# Montmorillonite-001-NaCEC143_NITROUSACID-AC
# h[nm],U(h)[kJ/mol]
0.149999999999999994,66.666355643138942355
0.150999999999999995,65.626128513752092886
0.151999999999999996,64.710267167375860708
0.152999999999999997,63.820610580848004645
0.153999999999999998,62.917680813291610775
0.154999999999999999,61.992818451183588024
0.156000000000000000,61.051533834255522493
0.157000000000000001,60.104084689404899677
0.158000000000000002,59.160581431301942246
0.159000000000000002,58.228824184080608006
0.160000000000000003,57.313700498640947956
0.161000000000000004,56.417399983555981180
0.162000000000000005,55.539989828610430322
0.163000000000000006,54.680085465902720898
0.164000000000000007,53.835473484705673286
0.165000000000000008,53.003620815217530549
0.166000000000000009,52.182050241865226781
0.167000000000000010,51.368588065437315038
0.168000000000000010,50.561502504774331612
0.169000000000000011,49.759556185817679363
0.170000000000000012,48.961996137777219928
0.171000000000000013,48.168502283009658527
0.172000000000000014,47.379111854739718979
0.173000000000000015,46.594133349979379943
0.174000000000000016,45.814060007164613353
0.175000000000000017,45.039489636097741254
0.176000000000000018,44.271055019180941770
0.177000000000000018,43.509367054686563847
0.178000000000000019,42.754971281149025231
0.179000000000000020,42.008317338105101157
0.180000000000000021,41.269740204945094320
0.181000000000000022,40.539451640313572511
0.182000000000000023,39.817540049726275697
0.183000000000000024,39.103976978522197783
0.184000000000000025,38.398628510708604722
0.185000000000000026,37.701270011265165749
0.186000000000000026,37.011602848579464364
0.187000000000000027,36.329271951206962399
0.188000000000000028,35.653883271940756572
0.189000000000000029,34.985020440431142674
0.190000000000000030,34.322260075728081574
0.191000000000000031,33.665185397803824685
0.192000000000000032,33.013397920462502100
0.193000000000000033,32.366527126923060109
0.194000000000000034,31.724238124859329702
0.195000000000000034,31.086237351658361661
0.196000000000000035,30.452276455438202163
0.197000000000000036,29.822154515477315329
0.198000000000000037,29.195718789707235885
0.199000000000000038,28.572864189273637692
0.200000000000000039,27.953531683168893807
0.201000000000000040,27.337705831647866717
0.202000000000000041,26.725411637379163921
0.203000000000000042,26.116710889624375369
0.204000000000000042,25.511698160498909260
0.205000000000000043,24.910496594642552282
0.206000000000000044,24.313253615291650078
0.207000000000000045,23.720136651493639590
0.208000000000000046,23.131328973560574269
0.209000000000000047,22.547025707209193968
0.210000000000000048,21.967430081445911583
0.211000000000000049,21.392749951293545507
0.212000000000000050,20.823194624010593401
0.213000000000000050,20.258972006549061717
0.214000000000000051,19.700286082606744742
0.215000000000000052,19.147334719695642491
0.216000000000000053,18.600307800081385068
0.217000000000000054,18.059385664144809169
0.218000000000000055,17.524737850559525043
0.219000000000000056,16.996522114550419502
0.220000000000000057,16.474883703271636648
0.221000000000000058,15.959954865906624377
0.222000000000000058,15.451854575326454011
0.223000000000000059,14.950688437946832110
0.224000000000000060,14.456548768694990059
0.225000000000000061,13.969514808649014626
0.226000000000000062,13.489653063862386162
0.227000000000000063,13.017017745064402234
0.228000000000000064,12.551651289271116951
0.229000000000000065,12.093584945795695873
0.230000000000000066,11.642839410668099021
0.231000000000000066,11.199425495020122412
0.232000000000000067,10.763344814533535754
0.233000000000000068,10.334590488558287547
0.234000000000000069,9.913147838964958325
0.235000000000000070,9.498995080184169382
0.236000000000000071,9.092103993194559308
0.237000000000000072,8.692440577440125438
0.238000000000000073,8.299965675784006791
0.239000000000000073,7.914635568635834950
0.240000000000000074,7.536402534321057445
0.241000000000000075,7.165215373598044835
0.242000000000000076,6.801019896971574497
0.243000000000000077,6.443759374104438109
0.244000000000000078,6.093374945197385095
0.245000000000000079,5.749805994695110556
0.246000000000000080,5.412990488089727492
0.247000000000000081,5.082865272936677670
0.248000000000000081,4.759366345479361549
0.249000000000000082,4.442429084502180991
0.250000000000000111,4.131988454203300520
0.251000000000000112,3.827979178004160765
0.252000000000000113,3.530335885296631115
0.253000000000000114,3.238993233178336872
0.254000000000000115,2.953886005242853052
0.255000000000000115,2.674949189482759060
0.256000000000000116,2.402118037330692513
0.257000000000000117,2.135328105812147381
0.258000000000000118,1.874515284716912422
0.259000000000000119,1.619615810616036544
0.260000000000000120,1.370566269461511721
0.261000000000000121,1.127303589409236029
0.262000000000000122,0.889765025403098542
0.263000000000000123,0.657888136952972546
0.264000000000000123,0.431610760431791196
0.265000000000000124,0.210870977109761965
0.266000000000000125,-0.004392921962784157
0.267000000000000126,-0.214242473216612689
0.268000000000000127,-0.418739079063373043
0.269000000000000128,-0.617944046825954718
0.270000000000000129,-0.811918627385393776
0.271000000000000130,-1.000724052919605089
0.272000000000000131,-1.184421573193284782
0.273000000000000131,-1.363072489937813714
0.274000000000000132,-1.536738188933830074
0.275000000000000133,-1.705480169478003960
0.276000000000000134,-1.869360070979097177
0.277000000000000135,-2.028439696486314059
0.278000000000000136,-2.182781033006629734
0.279000000000000137,-2.332446268515691035
0.280000000000000138,-2.477497805610306081
0.281000000000000139,-2.617998271789686804
0.282000000000000139,-2.754010526386789337
0.283000000000000140,-2.885597664201751567
0.284000000000000141,-3.012823015915667035
0.285000000000000142,-3.135750145385968857
0.286000000000000143,-3.254442843943996966
0.287000000000000144,-3.368965121831504206
0.288000000000000145,-3.479381196926521369
0.289000000000000146,-3.585755480919165628
0.290000000000000147,-3.688152563106657844
0.291000000000000147,-3.786637191982401340
0.292000000000000148,-3.881274254798254386
0.293000000000000149,-3.972128755280937007
0.294000000000000150,-4.059265789684305403
0.295000000000000151,-4.142750521358117055
0.296000000000000152,-4.222648154011830357
0.297000000000000153,-4.299023903848542716
0.298000000000000154,-4.371942970740101408
0.299000000000000155,-4.441470508609140389
0.300000000000000155,-4.507671595178210922
0.301000000000000156,-4.570611201239612953
0.302000000000000157,-4.630354159593028207
0.303000000000000158,-4.686965133790557125
0.304000000000000159,-4.740508586821630566
0.305000000000000160,-4.791048749862346412
0.306000000000000161,-4.838649591206269918
0.307000000000000162,-4.883374785485800729
0.308000000000000163,-4.925287683285398899
0.309000000000000163,-4.964451281240262581
0.310000000000000164,-5.000928192706443731
0.311000000000000165,-5.034780619080700070
0.312000000000000166,-5.066070321841316115
0.313000000000000167,-5.094858595373746191
0.314000000000000168,-5.121206240638169760
0.315000000000000169,-5.145173539729322343
0.316000000000000170,-5.166820231372677874
0.317000000000000171,-5.186205487394738078
0.318000000000000171,-5.203387890199534738
0.319000000000000172,-5.218425411277830328
0.320000000000000173,-5.231375390770223177
0.321000000000000174,-5.242294518100427680
0.322000000000000175,-5.251238813690366491
0.323000000000000176,-5.258263611764293799
0.324000000000000177,-5.263423544245169339
0.325000000000000178,-5.266772525742529965
0.326000000000000179,-5.268363739627886844
0.327000000000000179,-5.268249625190160046
0.328000000000000180,-5.266481865860744627
0.329000000000000181,-5.263111378495297643
0.330000000000000182,-5.258188303696467614
0.331000000000000183,-5.251761997159939632
0.332000000000000184,-5.243881022023871630
0.333000000000000185,-5.234593142200137272
0.334000000000000186,-5.223945316664179828
0.335000000000000187,-5.211983694678819390
0.336000000000000187,-5.198753611926294482
0.337000000000000188,-5.184299587521516983
0.338000000000000189,-5.168665321878973096
0.339000000000000190,-5.151893695404750062
0.340000000000000191,-5.134026767984610551
0.341000000000000192,-5.115105779238779959
0.342000000000000193,-5.095171149513536335
0.343000000000000194,-5.074262481579790318
0.344000000000000195,-5.052418563008385100
0.345000000000000195,-5.029677369192327774
0.346000000000000196,-5.006076066985788664
0.347000000000000197,-4.981651018930247865
0.348000000000000198,-4.956437788038265069
0.349000000000000199,-4.930471143105686238
0.350000000000000200,-4.903785064523608739
0.351000000000000201,-4.876412750561713416
0.352000000000000202,-4.848386624095200048
0.353000000000000203,-4.819738339748094624
0.354000000000000203,-4.790498791426244019
0.355000000000000204,-4.760698120213902484
0.356000000000000205,-4.730365722608590673
0.357000000000000206,-4.699530259069500282
0.358000000000000207,-4.668219662855331187
0.359000000000000208,-4.636461149128349390
0.360000000000000209,-4.604281224302051889
0.361000000000000210,-4.571705695610553732
0.362000000000000210,-4.538759680878645675
0.363000000000000211,-4.505467618472099645
0.364000000000000212,-4.471853277408703420
0.365000000000000213,-4.437939767611062791
0.366000000000000214,-4.403749550283137637
0.367000000000000215,-4.369304448393068085
0.368000000000000216,-4.334625657245716468
0.369000000000000217,-4.299733755128936963
0.370000000000000218,-4.264648714018449915
0.371000000000000218,-4.229389910326713853
0.372000000000000219,-4.193976135682089712
0.373000000000000220,-4.158425607725106943
0.374000000000000221,-4.122755980909397877
0.375000000000000222,-4.086984357295423642
0.376000000000000223,-4.051127297325876064
0.377000000000000224,-4.015200830572156931
0.378000000000000225,-3.979220466441933723
0.379000000000000226,-3.943201204838428175
0.380000000000000226,-3.907157546762623390
0.381000000000000227,-3.871103504850029964
0.382000000000000228,-3.835052613834405211
0.383000000000000229,-3.799017940931082471
0.384000000000000230,-3.763012096133201201
0.385000000000000231,-3.727047242414630368
0.386000000000000232,-3.691135105833728947
0.387000000000000233,-3.655286985532627764
0.388000000000000234,-3.619513763627046465
0.389000000000000234,-3.583825914982224248
0.390000000000000235,-3.548233516870704651
0.391000000000000236,-3.512746258508353314
0.392000000000000237,-3.477373450465089721
0.393000000000000238,-3.442124033947383310
0.394000000000000239,-3.407006589949695297
0.395000000000000240,-3.372029348272528093
0.396000000000000241,-3.337200196404930264
0.397000000000000242,-3.302526688269598054
0.398000000000000242,-3.268016052829067597
0.399000000000000243,-3.233675202551650418
0.400000000000000244,-3.199510741736006025
0.401000000000000245,-3.165528974693621933
0.402000000000000246,-3.131735913788458614
0.403000000000000247,-3.098137287333400991
0.404000000000000248,-3.064738547343285990
0.405000000000000249,-3.031544877144469297
0.406000000000000250,-2.998561198841007247
0.407000000000000250,-2.965792180637819797
0.408000000000000251,-2.933242244021193823
0.409000000000000252,-2.900915570797258702
0.410000000000000253,-2.868816109989114072
0.411000000000000254,-2.836947584593452198
0.412000000000000255,-2.805313498197604449
0.413000000000000256,-2.773917141458101643
0.414000000000000257,-2.742761598441819881
0.415000000000000258,-2.711849752831055671
0.416000000000000258,-2.681184293993737811
0.417000000000000259,-2.650767722920265967
0.418000000000000260,-2.620602358028395251
0.419000000000000261,-2.590690340837700223
0.420000000000000262,-2.561033641515216175
0.421000000000000263,-2.531634064293917241
0.422000000000000264,-2.502493252765672693
0.423000000000000265,-2.473612695050423138
0.424000000000000266,-2.444993728843406267
0.425000000000000266,-2.416637546342113474
0.426000000000000267,-2.388545199054912249
0.427000000000000268,-2.360717602493112910
0.428000000000000269,-2.333155540748374168
0.429000000000000270,-2.305859670957357999
0.430000000000000271,-2.278830527655465232
0.431000000000000272,-2.252068527021639621
0.432000000000000273,-2.225573971016092223
0.433000000000000274,-2.199347051412918752
0.434000000000000274,-2.173387853729460861
0.435000000000000275,-2.147696361054415526
0.436000000000000276,-2.122272457776545718
0.437000000000000277,-2.097115933215911276
0.438000000000000278,-2.072226485159547327
0.439000000000000279,-2.047603723303468737
0.440000000000000280,-2.023247172602868016
0.441000000000000281,-1.999156276532391585
0.442000000000000282,-1.975330400258361152
0.443000000000000282,-1.951768833724726537
0.444000000000000283,-1.928470794654645104
0.445000000000000284,-1.905435431469436391
0.446000000000000285,-1.882661826126674542
0.447000000000000286,-1.860148996879292138
0.448000000000000287,-1.837895900957285722
0.449000000000000288,-1.815901437173879085
0.450000000000000289,-1.794164448457755467
0.451000000000000290,-1.772683724313055764
0.452000000000000290,-1.751458003208830050
0.453000000000000291,-1.730485974899508950
0.454000000000000292,-1.709766282678047089
0.455000000000000293,-1.689297525563282720
0.456000000000000294,-1.669078260423086935
0.457000000000000295,-1.649107004034825907
0.458000000000000296,-1.629382235084616326
0.459000000000000297,-1.609902396106884570
0.460000000000000298,-1.590665895365639404
0.461000000000000298,-1.571671108678921680
0.462000000000000299,-1.552916381187797068
0.463000000000000300,-1.534400029071268490
0.464000000000000301,-1.516120341208465616
0.465000000000000302,-1.498075580789435923
0.466000000000000303,-1.480263986875795634
0.467000000000000304,-1.462683775912541728
0.468000000000000305,-1.445333143192271352
0.469000000000000306,-1.428210264272980368
0.470000000000000306,-1.411313296350709123
0.471000000000000307,-1.394640379588115930
0.472000000000000308,-1.378189638400192152
0.473000000000000309,-1.361959182698197157
0.474000000000000310,-1.345947109092920702
0.475000000000000311,-1.330151502058332991
0.476000000000000312,-1.314570435056711117
0.477000000000000313,-1.299201971626189112
0.478000000000000314,-1.284044166431794753
0.479000000000000314,-1.269095066280948370
0.480000000000000315,-1.254352711104330442
0.481000000000000316,-1.239815134903120120
0.482000000000000317,-1.225480366663453946
0.483000000000000318,-1.211346431239046284
0.484000000000000319,-1.197411350202798763
0.485000000000000320,-1.183673142668295597
0.486000000000000321,-1.170129826081967916
0.487000000000000322,-1.156779416986778442
0.488000000000000322,-1.143619931758164343
0.489000000000000323,-1.130649387313083620
0.490000000000000324,-1.117865801792850222
0.491000000000000325,-1.105267195220528631
0.492000000000000326,-1.092851590133585349
0.493000000000000327,-1.080617012192514714
0.494000000000000328,-1.068561490766111621
0.495000000000000329,-1.056683059494045507
0.496000000000000330,-1.044979756827398187
0.497000000000000330,-1.033449626547803035
0.498000000000000331,-1.022090718265757037
0.499000000000000332,-1.010901087898777639
0.500000000000000333,-0.999878798129933744
0.501000000000000334,-0.989021918847326154
0.502000000000000335,-0.978328527565099693
0.503000000000000336,-0.967796709826508006
0.504000000000000337,-0.957424559589560409
0.505000000000000338,-0.947210179595767143
0.506000000000000338,-0.937151681722486529
0.507000000000000339,-0.927247187319351296
0.508000000000000340,-0.917494827529248935
0.509000000000000341,-0.907892743594347573
0.510000000000000342,-0.898439087147564819
0.511000000000000343,-0.889132020489964647
0.512000000000000344,-0.879969716854479556
0.513000000000000345,-0.870950360656386202
0.514000000000000346,-0.862072147730949867
0.515000000000000346,-0.853333285558595001
0.516000000000000347,-0.844731993478016085
0.517000000000000348,-0.836266502887612617
0.518000000000000349,-0.827935057435554178
0.519000000000000350,-0.819735913198897825
0.520000000000000351,-0.811667338852048781
0.521000000000000352,-0.803727615824933905
0.522000000000000353,-0.795915038451189272
0.523000000000000353,-0.788227914106678029
0.524000000000000354,-0.780664563338682393
0.525000000000000355,-0.773223319986015567
0.526000000000000356,-0.765902531290377220
0.527000000000000357,-0.758700557999248515
0.528000000000000358,-0.751615774460549724
0.529000000000000359,-0.744646568709401158
0.530000000000000360,-0.737791342547173046
0.531000000000000361,-0.731048511613143548
0.532000000000000361,-0.724416505448956416
0.533000000000000362,-0.717893767556167739
0.534000000000000363,-0.711478755447069622
0.535000000000000364,-0.705169940689051922
0.536000000000000365,-0.698965808942699440
0.537000000000000366,-0.692864859993857385
0.538000000000000367,-0.686865607779847287
0.539000000000000368,-0.680966580410080069
0.540000000000000369,-0.675166320181197266
0.541000000000000369,-0.669463383587007632
0.542000000000000370,-0.663856341323340482
0.543000000000000371,-0.658343778288029702
0.544000000000000372,-0.652924293576201520
0.545000000000000373,-0.647596500471032788
0.546000000000000374,-0.642359026430131430
0.547000000000000375,-0.637210513067722362
0.548000000000000376,-0.632149616132794634
0.549000000000000377,-0.627175005483339709
0.550000000000000377,-0.622285365056844286
0.551000000000000378,-0.617479392837186891
0.552000000000000379,-0.612755800818059582
0.553000000000000380,-0.608113314963075191
0.554000000000000381,-0.603550675162651040
0.555000000000000382,-0.599066635187858632
0.556000000000000383,-0.594659962641287398
0.557000000000000384,-0.590329438905117243
0.558000000000000385,-0.586073859086456928
0.559000000000000385,-0.581892031960105194
0.560000000000000386,-0.577782779908812993
0.561000000000000387,-0.573744938861178277
0.562000000000000388,-0.569777358227253949
0.563000000000000389,-0.565878900832001208
0.564000000000000390,-0.562048442846646235
0.565000000000000391,-0.558284873718072339
0.566000000000000392,-0.554587096096311627
0.567000000000000393,-0.550954025760250543
0.568000000000000393,-0.547384591541608900
0.569000000000000394,-0.543877735247302430
0.570000000000000395,-0.540432411580251459
0.571000000000000396,-0.537047588058720216
0.572000000000000397,-0.533722244934284662
0.573000000000000398,-0.530455375108451088
0.574000000000000399,-0.527245984048066552
0.575000000000000400,-0.524093089699529058
0.576000000000000401,-0.520995722401897621
0.577000000000000401,-0.517952924798980918
0.578000000000000402,-0.514963751750423304
0.579000000000000403,-0.512027270241887655
0.580000000000000404,-0.509142559294392116
0.581000000000000405,-0.506308709872835494
0.582000000000000406,-0.503524824793793568
0.583000000000000407,-0.500790018632623513
0.584000000000000408,-0.498103417629939593
0.585000000000000409,-0.495464159597499232
0.586000000000000409,-0.492871393823569093
0.587000000000000410,-0.490324280977794735
0.588000000000000411,-0.487821993015636557
0.589000000000000412,-0.485363713082418768
0.590000000000000413,-0.482948635417015493
0.591000000000000414,-0.480575965255234105
0.592000000000000415,-0.478244918732942614
0.593000000000000416,-0.475954722788948015
0.594000000000000417,-0.473704615067695123
0.595000000000000417,-0.471493843821822967
0.596000000000000418,-0.469321667814575239
0.597000000000000419,-0.467187356222157846
0.598000000000000420,-0.465090188536021187
0.599000000000000421,-0.463029454465135548
0.600000000000000422,-0.461004453838279205
0.601000000000000423,-0.459014496506359393
0.602000000000000424,-0.457058902244812160
0.603000000000000425,-0.455137000656097690
0.604000000000000425,-0.453248131072320148
0.605000000000000426,-0.451391642457989573
0.606000000000000427,-0.449566893312988047
0.607000000000000428,-0.447773251575680042
0.608000000000000429,-0.446010094526322676
0.609000000000000430,-0.444276808690632130
0.610000000000000431,-0.442572789743694184
0.611000000000000432,-0.440897442414115492
0.612000000000000433,-0.439250180388482570
0.613000000000000433,-0.437630426216172541
