# Montmorillonite-001-NaCEC143_2HYDROXYACETALDEHYDE-AC
# h[nm],U(h)[kJ/mol]
0.149999999999999994,88.490566168983121997
0.150999999999999995,87.276475976695522263
0.151999999999999996,86.059596599694060615
0.152999999999999997,84.861101043162705082
0.153999999999999998,83.683207177464936422
0.154999999999999999,82.521739468323701772
0.156000000000000000,81.371969549078329464
0.157000000000000001,80.230807513645061135
0.158000000000000002,79.097167901923114641
0.159000000000000002,77.971550004969259362
0.160000000000000003,76.855390554564991135
0.161000000000000004,75.750460190110658232
0.162000000000000005,74.658411612654646206
0.163000000000000006,73.580499936128873628
0.164000000000000007,72.517453914586013752
0.165000000000000008,71.469461034866441196
0.166000000000000009,70.436227821185141806
0.167000000000000010,69.417081789616204901
0.168000000000000010,68.411089075014643868
0.169000000000000011,67.417169519775455910
0.170000000000000012,66.434197833141126921
0.171000000000000013,65.461084867016069211
0.172000000000000014,64.496837061641542732
0.173000000000000015,63.540594839639688018
0.174000000000000016,62.591652398238878163
0.175000000000000017,61.649462210776050597
0.176000000000000018,60.713627824773730879
0.177000000000000018,59.783888425610406614
0.178000000000000019,58.860098273969356342
0.179000000000000020,57.942203636762620533
0.180000000000000021,57.030219297626004504
0.181000000000000022,56.124206210228678060
0.182000000000000023,55.224251380462114014
0.183000000000000024,54.330450651236319004
0.184000000000000025,53.442894723934628587
0.185000000000000026,52.561658483628306726
0.186000000000000026,51.686793496018765381
0.187000000000000027,50.818323404986472269
0.188000000000000028,49.956241871471021909
0.189000000000000029,49.100512647790779397
0.190000000000000030,48.251071367450279581
0.191000000000000031,47.407828640830508959
0.192000000000000032,46.570674074815414656
0.193000000000000033,45.739480873409007700
0.194000000000000034,44.914110721892924971
0.195000000000000034,44.094418705250454593
0.196000000000000035,43.280258059549545635
0.197000000000000036,42.471484600650676100
0.198000000000000037,41.667960716564110157
0.199000000000000038,40.869558847153776071
0.200000000000000039,40.076164407229171616
0.201000000000000040,39.287678136271253493
0.202000000000000041,38.504017880233696758
0.203000000000000042,37.725119828352589479
0.204000000000000042,36.950939241097906063
0.205000000000000043,36.181450714790351242
0.206000000000000044,35.416648034493725561
0.207000000000000045,34.656543670084566600
0.208000000000000046,33.901167971385881117
0.209000000000000047,33.150568117386747247
0.210000000000000048,32.404806872266881612
0.211000000000000049,31.663961197576423245
0.212000000000000050,30.928120765800592551
0.213000000000000050,30.197386415946887439
0.214000000000000051,29.471868586948108515
0.215000000000000052,28.751685759770548856
0.216000000000000053,28.036962934295445393
0.217000000000000054,27.327830162419520121
0.218000000000000055,26.624421154478859819
0.219000000000000056,25.926871972100741459
0.220000000000000057,25.235319816961474970
0.221000000000000058,24.549901921703138896
0.222000000000000058,23.870754546431459886
0.223000000000000059,23.198012081786252736
0.224000000000000060,22.531806257519992442
0.225000000000000061,21.872265453823604986
0.226000000000000062,21.219514111272761880
0.227000000000000063,20.573672234203669973
0.228000000000000064,19.934854981536666685
0.229000000000000065,19.303172338513206796
0.230000000000000066,18.678728862472802064
0.231000000000000066,18.061623495635092951
0.232000000000000067,17.451949437846685953
0.233000000000000068,16.849794072371512499
0.234000000000000069,16.255238938027495976
0.235000000000000070,15.668359741276280062
0.236000000000000071,15.089226402240521807
0.237000000000000072,14.517903129033573606
0.238000000000000073,13.954448515228619954
0.239000000000000073,13.398915655753253162
0.240000000000000074,12.851352276958522225
0.241000000000000075,12.311800877074457361
0.242000000000000076,11.780298873714126984
0.243000000000000077,11.256878755522588875
0.244000000000000078,10.741568235480402294
0.245000000000000079,10.234390403759098476
0.246000000000000080,9.735363878387948589
0.247000000000000081,9.244502952322470435
0.248000000000000081,8.761817735808559604
0.249000000000000082,8.287314293208728699
0.250000000000000111,7.820994773700197911
0.251000000000000112,7.362857535469584214
0.252000000000000113,6.912897263215181276
0.253000000000000114,6.471105078930162513
0.254000000000000115,6.037468646074776402
0.255000000000000115,5.611972267360131106
0.256000000000000116,5.194596976457616755
0.257000000000000117,4.785320624020963365
0.258000000000000118,4.384117958463717102
0.259000000000000119,3.990960701974155533
0.260000000000000120,3.605817622275336198
0.261000000000000121,3.228654600651870599
0.262000000000000122,2.859434696767293893
0.263000000000000123,2.498118210790150506
0.264000000000000123,2.144662743332365729
0.265000000000000124,1.799023253683381451
0.266000000000000125,1.461152116797745704
0.267000000000000126,1.130999179464189597
0.268000000000000127,0.808511816050952348
0.269000000000000128,0.493634984187509396
0.270000000000000129,0.186311280705934668
0.271000000000000130,-0.113519001872390307
0.272000000000000131,-0.405917818056117763
0.273000000000000131,-0.690949311098337349
0.274000000000000132,-0.968679753531093923
0.275000000000000133,-1.239177486380484083
0.276000000000000134,-1.502512856956664811
0.277000000000000135,-1.758758155144565904
0.278000000000000136,-2.007987548151943358
0.279000000000000137,-2.250277013699057527
0.280000000000000138,-2.485704271660071019
0.281000000000000139,-2.714348714190383927
0.282000000000000139,-2.936291334395154440
0.283000000000000140,-3.151614653613800332
0.284000000000000141,-3.360402647412089827
0.285000000000000142,-3.562740670388399256
0.286000000000000143,-3.758715379913515342
0.287000000000000144,-3.948414658933820931
0.288000000000000145,-4.131927537977121645
0.289000000000000146,-4.309344116506533595
0.290000000000000147,-4.480755483773966930
0.291000000000000147,-4.646253639327731833
0.292000000000000148,-4.805931413331545166
0.293000000000000149,-4.959882386852493497
0.294000000000000150,-5.108200812275489611
0.295000000000000151,-5.250981533999888207
0.296000000000000152,-5.388319909571476884
0.297000000000000153,-5.520311731399361932
0.298000000000000154,-5.647053149203034472
0.299000000000000155,-5.768640593329768862
0.300000000000000155,-5.885170699076850198
0.301000000000000156,-5.996740232146808403
0.302000000000000157,-6.103446015357427257
0.303000000000000158,-6.205384856720995046
0.304000000000000159,-6.302653479000290382
0.305000000000000160,-6.395348450841010113
0.306000000000000161,-6.483566119572977016
0.307000000000000162,-6.567402545764653432
0.308000000000000163,-6.646953439607675485
0.309000000000000163,-6.722314099200533022
0.310000000000000164,-6.793579350792856353
0.311000000000000165,-6.860843491044117393
0.312000000000000166,-6.924200231343324852
0.313000000000000167,-6.983742644228965624
0.314000000000000168,-7.039563111941417262
0.315000000000000169,-7.091753277133278743
0.316000000000000170,-7.140403995756663846
0.317000000000000171,-7.185605292139856992
0.318000000000000171,-7.227446316260095038
0.319000000000000172,-7.266015303213279708
0.320000000000000173,-7.301399534876077624
0.321000000000000174,-7.333685303750627327
0.322000000000000175,-7.362957878977383075
0.323000000000000176,-7.389301474496933864
0.324000000000000177,-7.412799219337541601
0.325000000000000178,-7.433533130001007905
0.326000000000000179,-7.451584084916150985
0.327000000000000179,-7.467031800925494345
0.328000000000000180,-7.479954811767856704
0.329000000000000181,-7.490430448516943507
0.330000000000000182,-7.498534821933001915
0.331000000000000183,-7.504342806683068190
0.332000000000000184,-7.507928027382656744
0.333000000000000185,-7.509362846410456704
0.334000000000000186,-7.508718353445901883
0.335000000000000187,-7.506064356678163740
0.336000000000000187,-7.501469375634208347
0.337000000000000188,-7.495000635572393044
0.338000000000000189,-7.486724063387745431
0.339000000000000190,-7.476704284974348802
0.340000000000000191,-7.465004623989900168
0.341000000000000192,-7.451687101967562121
0.342000000000000193,-7.436812439719989065
0.343000000000000194,-7.420440059980731640
0.344000000000000195,-7.402628091228201868
0.345000000000000195,-7.383433372638245729
0.346000000000000196,-7.362911460111254414
0.347000000000000197,-7.341116633320896590
0.348000000000000198,-7.318101903731912827
0.349000000000000199,-7.293919023535258006
0.350000000000000200,-7.268618495449922889
0.351000000000000201,-7.242249583341374475
0.352000000000000202,-7.214860323607824810
0.353000000000000203,-7.186497537286442139
0.354000000000000203,-7.157206842832837701
0.355000000000000204,-7.127032669528053255
0.356000000000000205,-7.096018271468784278
0.357000000000000206,-7.064205742097603213
0.358000000000000207,-7.031636029231056462
0.359000000000000208,-6.998348950545087988
0.360000000000000209,-6.964383209478251402
0.361000000000000210,-6.929776411514484202
0.362000000000000210,-6.894565080808694901
0.363000000000000211,-6.858784677119421858
0.364000000000000212,-6.822469613014396472
0.365000000000000213,-6.785653271315922552
0.366000000000000214,-6.748368022754375417
0.367000000000000215,-6.710645243799362447
0.368000000000000216,-6.672515334639372853
0.369000000000000217,-6.634007737281945261
0.370000000000000218,-6.595150953747689115
0.371000000000000218,-6.555972564332591901
0.372000000000000219,-6.516499245914341820
0.373000000000000220,-6.476756790279560860
0.374000000000000221,-6.436770122449918752
0.375000000000000222,-6.396563318986205005
0.376000000000000223,-6.356159626250737382
0.377000000000000224,-6.315581478609249011
0.378000000000000225,-6.274850516554723256
0.379000000000000226,-6.233987604736407562
0.380000000000000226,-6.193012849878546611
0.381000000000000227,-6.151945618573894770
0.382000000000000228,-6.110804554938493283
0.383000000000000229,-6.069607598114703073
0.384000000000000230,-6.028371999610518728
0.385000000000000231,-5.987114340464127160
0.386000000000000232,-5.945850548223246435
0.387000000000000233,-5.904595913729835388
0.388000000000000234,-5.863365107701256740
0.389000000000000234,-5.822172197099988011
0.390000000000000235,-5.781030661284384031
0.391000000000000236,-5.739953407933937157
0.392000000000000237,-5.698952788742881026
0.393000000000000238,-5.658040614876835406
0.394000000000000239,-5.617228172187557433
0.395000000000000240,-5.576526236181623908
0.396000000000000241,-5.535945086739300081
0.397000000000000242,-5.495494522580334440
0.398000000000000242,-5.455183875474070021
0.399000000000000243,-5.415022024191547878
0.400000000000000244,-5.375017408197789059
0.401000000000000245,-5.335178041082973444
0.402000000000000246,-5.295511523731410541
0.403000000000000247,-5.256025057227779129
0.404000000000000248,-5.216725455500358599
0.405000000000000249,-5.177619157701374597
0.406000000000000250,-5.138712240324808889
0.407000000000000250,-5.100010429062455941
0.408000000000000251,-5.061519110399157029
0.409000000000000252,-5.023243342948507717
0.410000000000000253,-4.985187868530517541
0.411000000000000254,-4.947357122992950273
0.412000000000000255,-4.909755246778320981
0.413000000000000256,-4.872386095238677051
0.414000000000000257,-4.835253248700462692
0.415000000000000258,-4.798360022282071036
0.416000000000000258,-4.761709475466608943
0.417000000000000259,-4.725304421432811708
0.418000000000000260,-4.689147436146955172
0.419000000000000261,-4.653240867218896071
0.420000000000000262,-4.617586842525353674
0.421000000000000263,-4.582187278603768732
0.422000000000000264,-4.547043888820050839
0.423000000000000265,-4.512158191313652367
0.424000000000000266,-4.477531516723591842
0.425000000000000266,-4.443165015698809839
0.426000000000000267,-4.409059666196677441
0.427000000000000268,-4.375216280573215322
0.428000000000000269,-4.341635512468764446
0.429000000000000270,-4.308317863492900024
0.430000000000000271,-4.275263689712261339
0.431000000000000272,-4.242473207945191227
0.432000000000000273,-4.209946501866902224
0.433000000000000274,-4.177683527929032081
0.434000000000000274,-4.145684121097342079
0.435000000000000275,-4.113948000411408401
0.436000000000000276,-4.082474774370099091
0.437000000000000277,-4.051263946146556272
0.438000000000000278,-4.020314918636532120
0.439000000000000279,-3.989626999343786729
0.440000000000000280,-3.959199405106242242
0.441000000000000281,-3.929031266666611621
0.442000000000000282,-3.899121633091218175
0.443000000000000282,-3.869469476040477751
0.444000000000000283,-3.840073693894848539
0.445000000000000284,-3.810933115739622679
0.446000000000000285,-3.782046505212131482
0.447000000000000286,-3.753412564214926306
0.448000000000000287,-3.725029936498181371
0.449000000000000288,-3.696897211114884563
0.450000000000000289,-3.669012925752004772
0.451000000000000290,-3.641375569941002421
0.452000000000000290,-3.613983588150910808
0.453000000000000291,-3.586835382767104452
0.454000000000000292,-3.559929316958996282
0.455000000000000293,-3.533263717439621310
0.456000000000000294,-3.506836877120222962
0.457000000000000295,-3.480647057662790811
0.458000000000000296,-3.454692491933399445
0.459000000000000297,-3.428971386359331408
0.460000000000000298,-3.403481923192663405
0.461000000000000298,-3.378222262683173938
0.462000000000000299,-3.353190545163194258
0.463000000000000300,-3.328384893047058313
0.464000000000000301,-3.303803412747773116
0.465000000000000302,-3.279444196513408460
0.466000000000000303,-3.255305324185668869
0.467000000000000304,-3.231384864883099617
0.468000000000000305,-3.207680878611280040
0.469000000000000306,-3.184191417802289870
0.470000000000000306,-3.160914528785792932
0.471000000000000307,-3.137848253193809445
0.472000000000000308,-3.114990629301460423
0.473000000000000309,-3.092339693305702575
0.474000000000000310,-3.069893480544149789
0.475000000000000311,-3.047650026655919220
0.476000000000000312,-3.025607368686578980
0.477000000000000313,-3.003763546138914275
0.478000000000000314,-2.982116601971514847
0.479000000000000314,-2.960664583546942286
0.480000000000000315,-2.939405543531164344
0.481000000000000316,-2.918337540746096970
0.482000000000000317,-2.897458640976785293
0.483000000000000318,-2.876766917734915996
0.484000000000000319,-2.856260452980220688
0.485000000000000320,-2.835937337801301084
0.486000000000000321,-2.815795673057345905
0.487000000000000322,-2.795833569982210332
0.488000000000000322,-2.776049150752212924
0.489000000000000323,-2.756440549019100850
0.490000000000000324,-2.737005910409421094
0.491000000000000325,-2.717743392991628149
0.492000000000000326,-2.698651167712142307
0.493000000000000327,-2.679727418801628236
0.494000000000000328,-2.660970344152595590
0.495000000000000329,-2.642378155669510953
0.496000000000000330,-2.623949079592491351
0.497000000000000330,-2.605681356795701564
0.498000000000000331,-2.587573243061376704
0.499000000000000332,-2.569623009330640251
0.500000000000000333,-2.551828941931950645
0.501000000000000334,-2.534189342788156551
0.502000000000000335,-2.516702529603106253
0.503000000000000336,-2.499366836028666050
0.504000000000000337,-2.482180611812981663
0.505000000000000338,-2.465142222930844618
0.506000000000000338,-2.448250051696946095
0.507000000000000339,-2.431502496862764762
0.508000000000000340,-2.414897973697862632
0.509000000000000341,-2.398434914056329692
0.510000000000000342,-2.382111766428999466
0.511000000000000343,-2.365926995982181147
0.512000000000000344,-2.349879084583507360
0.513000000000000345,-2.333966530815544171
0.514000000000000346,-2.318187849977788595
0.515000000000000346,-2.302541574077570097
0.516000000000000347,-2.287026251810474697
0.517000000000000348,-2.271640448530843237
0.518000000000000349,-2.256382746212783452
0.519000000000000350,-2.241251743402299379
0.520000000000000351,-2.226246055160942205
0.521000000000000352,-2.211364313001512372
0.522000000000000353,-2.196605164816201050
0.523000000000000353,-2.181967274797634637
0.524000000000000354,-2.167449323353262791
0.525000000000000355,-2.153050007013426637
0.526000000000000356,-2.138768038333528576
0.527000000000000357,-2.124602145790706054
0.528000000000000358,-2.110551073675258404
0.529000000000000359,-2.096613581977316620
0.530000000000000360,-2.082788446268923011
0.531000000000000361,-2.069074457581968840
0.532000000000000361,-2.055470422282204446
0.533000000000000362,-2.041975161939653560
0.534000000000000363,-2.028587513195684977
0.535000000000000364,-2.015306327627026661
0.536000000000000365,-2.002130471606956341
0.537000000000000366,-1.989058826163932592
0.538000000000000367,-1.976090286837858923
0.539000000000000368,-1.963223763534286848
0.540000000000000369,-1.950458180376640982
0.541000000000000369,-1.937792475556820992
0.542000000000000370,-1.925225601184235469
0.543000000000000371,-1.912756523133547049
0.544000000000000372,-1.900384220891265574
0.545000000000000373,-1.888107687401374690
0.546000000000000374,-1.875925928910120222
0.547000000000000375,-1.863837964810156622
0.548000000000000376,-1.851842827484177390
0.549000000000000377,-1.839939562148166008
0.550000000000000377,-1.828127226694387542
0.551000000000000378,-1.816404891534280086
0.552000000000000379,-1.804771639441330011
0.553000000000000380,-1.793226565394074878
0.554000000000000381,-1.781768776419295763
0.555000000000000382,-1.770397391435569956
0.556000000000000383,-1.759111541097191589
0.557000000000000384,-1.747910367638645157
0.558000000000000385,-1.736793024719622380
0.559000000000000385,-1.725758677270758046
0.560000000000000386,-1.714806501340071065
0.561000000000000387,-1.703935683940254409
0.562000000000000388,-1.693145422896826346
0.563000000000000389,-1.682434926697259359
0.564000000000000390,-1.671803414341085370
0.565000000000000391,-1.661250115191084564
0.566000000000000392,-1.650774268825577762
0.567000000000000393,-1.640375124891894743
0.568000000000000393,-1.630051942961030065
0.569000000000000394,-1.619803992383555435
0.570000000000000395,-1.609630552146831706
0.571000000000000396,-1.599530910733507838
0.572000000000000397,-1.589504365981425638
0.573000000000000398,-1.579550224944850312
0.574000000000000399,-1.569667803757165858
0.575000000000000400,-1.559856427494963782
0.576000000000000401,-1.550115430043607301
0.577000000000000401,-1.540444153964288132
0.578000000000000402,-1.530841950362554549
0.579000000000000403,-1.521308178758353780
0.580000000000000404,-1.511842206957625168
0.581000000000000405,-1.502443410925397682
0.582000000000000406,-1.493111174660466611
0.583000000000000407,-1.483844890071592815
0.584000000000000408,-1.474643956855300031
0.585000000000000409,-1.465507782375215395
0.586000000000000409,-1.456435781542988694
0.587000000000000410,-1.447427376700799462
0.588000000000000411,-1.438481997505413501
0.589000000000000412,-1.429599080813853007
0.590000000000000413,-1.420778070570599239
0.591000000000000414,-1.412018417696394579
0.592000000000000415,-1.403319579978616671
0.593000000000000416,-1.394681021963195322
0.594000000000000417,-1.386102214848091929
0.595000000000000417,-1.377582636378370085
0.596000000000000418,-1.369121770742742772
0.597000000000000419,-1.360719108471726946
0.598000000000000420,-1.352374146337274485
0.599000000000000421,-1.344086387253953463
0.600000000000000422,-1.335855340181625550
0.601000000000000423,-1.327680520029624445
0.602000000000000424,-1.319561447562423107
0.603000000000000425,-1.311497649306775815
0.604000000000000425,-1.303488657460327049
0.605000000000000426,-1.295534009801655229
0.606000000000000427,-1.287633249601799035
0.607000000000000428,-1.279785925537119340
0.608000000000000429,-1.271991591603697458
0.609000000000000430,-1.264249807032992390
0.610000000000000431,-1.256560136208995093
0.611000000000000432,-1.248922148586683045
0.612000000000000433,-1.241335418611830388
