# AuSphere1NM_LYSSCA-AC
# h[nm],U(h)[kJ/mol]
0.149999999999999994,91.055751436840139945
0.150999999999999995,89.306036347088166849
0.151999999999999996,86.222138287647595689
0.152999999999999997,82.952935648777469169
0.153999999999999998,79.909036450756872227
0.154999999999999999,77.155114099044851628
0.156000000000000000,74.622232202883054697
0.157000000000000001,72.213783280412684462
0.158000000000000002,69.851151191983134936
0.159000000000000002,67.487271274019036582
0.160000000000000003,65.104751062317248511
0.161000000000000004,62.707968278487349778
0.162000000000000005,60.314112859703108427
0.163000000000000006,57.945495991611849718
0.164000000000000007,55.623950116766785357
0.165000000000000008,53.367353320702001440
0.166000000000000009,51.187945381349599927
0.167000000000000010,49.091979582708788143
0.168000000000000010,47.080260710734783913
0.169000000000000011,45.149186706028103799
0.170000000000000012,43.291999307064997993
0.171000000000000013,41.500035959623552628
0.172000000000000014,39.763850772005518763
0.173000000000000015,38.074132465215647869
0.174000000000000016,36.422391903906422783
0.175000000000000017,34.801422570401811640
0.176000000000000018,33.205556702221045384
0.177000000000000018,31.630750330720037056
0.178000000000000019,30.074534512017823573
0.179000000000000020,28.535869655495041286
0.180000000000000021,27.014936656434297646
0.181000000000000022,25.512893772246183488
0.182000000000000023,24.031622753791499036
0.183000000000000024,22.573482282084178507
0.184000000000000025,21.141081671193926894
0.185000000000000026,19.737083315837981701
0.186000000000000026,18.364038598066052543
0.187000000000000027,17.024258945736473692
0.188000000000000028,15.719721422799562305
0.189000000000000029,14.452006559444281919
0.190000000000000030,13.222265012293416220
0.191000000000000031,12.031208987906641283
0.192000000000000032,10.879124075209499978
0.193000000000000033,9.765897129006514632
0.194000000000000034,8.691056051826656415
0.195000000000000034,7.653817670135184770
0.196000000000000035,6.653140339620312815
0.197000000000000036,5.687778399567148924
0.198000000000000037,4.756336094654089131
0.199000000000000038,3.857319068734182288
0.200000000000000039,2.989181991442119823
0.201000000000000040,2.150371292974579962
0.202000000000000041,1.339362348186670104
0.203000000000000042,0.554690765122118123
0.204000000000000042,-0.205022304943294209
0.205000000000000043,-0.941050706970693929
0.206000000000000044,-1.654549376917377357
0.207000000000000045,-2.346545574585848559
0.208000000000000046,-3.017934751755969369
0.209000000000000047,-3.669480499457313361
0.210000000000000048,-4.301817992118674105
0.211000000000000049,-4.915460342592981036
0.212000000000000050,-5.510807296210992412
0.213000000000000050,-6.088155719989674530
0.214000000000000051,-6.647711381301107281
0.215000000000000052,-7.189601555548968292
0.216000000000000053,-7.713888052023759379
0.217000000000000054,-8.220580298877921521
0.218000000000000055,-8.709648180250871619
0.219000000000000056,-9.181034369527958816
0.220000000000000057,-9.634665951419487229
0.221000000000000058,-10.070465171161744777
0.222000000000000058,-10.488359191102489376
0.223000000000000059,-10.888288772865470477
0.224000000000000060,-11.270215837010152171
0.225000000000000061,-11.634129881566678932
0.226000000000000062,-11.980053266102171250
0.227000000000000063,-12.308045389221957677
0.228000000000000064,-12.618205804850775920
0.229000000000000065,-12.910676336547505016
0.230000000000000066,-13.185642259779829288
0.231000000000000066,-13.443332629844571002
0.232000000000000067,-13.684019838285214732
0.233000000000000068,-13.908018483553671985
0.234000000000000069,-14.115683642598913394
0.235000000000000070,-14.307408629337047046
0.236000000000000071,-14.483622323843940549
0.237000000000000072,-14.644786152869908591
0.238000000000000073,-14.791390798140474416
0.239000000000000073,-14.923952704088240040
0.240000000000000074,-15.043010451349754675
0.241000000000000075,-15.149121056719675238
0.242000000000000076,-15.242856254429236529
0.243000000000000077,-15.324798807729127503
0.244000000000000078,-15.395538893913030876
0.245000000000000079,-15.455670600202045861
0.246000000000000080,-15.505788562394560159
0.247000000000000081,-15.546484772924177520
0.248000000000000081,-15.578345580003565729
0.249000000000000082,-15.601948894895468101
0.250000000000000111,-15.617861620064411809
0.251000000000000112,-15.626637307035679214
0.252000000000000113,-15.628814049228282101
0.253000000000000114,-15.624912611831234699
0.254000000000000115,-15.615434797955401791
0.255000000000000115,-15.600862047800996280
0.256000000000000116,-15.581654265422892891
0.257000000000000117,-15.558248865833565588
0.258000000000000118,-15.531060033638393492
0.259000000000000119,-15.500478183130834253
0.260000000000000120,-15.466869608764238109
0.261000000000000121,-15.430576314141664085
0.262000000000000122,-15.391916007104217812
0.263000000000000123,-15.351182248130612606
0.264000000000000123,-15.308644739066329166
0.265000000000000124,-15.264549739158976394
0.266000000000000125,-15.219120595470339907
0.267000000000000126,-15.172558374944838278
0.268000000000000127,-15.125042585724798982
0.269000000000000128,-15.076731975696995747
0.270000000000000129,-15.027765396719502178
0.271000000000000130,-14.978262723499119247
0.272000000000000131,-14.928325816655444669
0.273000000000000131,-14.878039520107003923
0.274000000000000132,-14.827472683538033493
0.275000000000000133,-14.776679201342636460
0.276000000000000134,-14.725699060088079051
0.277000000000000135,-14.674559387184132220
0.278000000000000136,-14.623275494085167026
0.279000000000000137,-14.571851907979844754
0.280000000000000138,-14.520283386536698700
0.281000000000000139,-14.468555910867758385
0.282000000000000139,-14.416647652444691374
0.283000000000000140,-14.364529910249359546
0.284000000000000141,-14.312168014961887508
0.285000000000000142,-14.259522197483013528
0.286000000000000143,-14.206548419551859652
0.287000000000000144,-14.153199164655680065
0.288000000000000145,-14.099424187834085131
0.289000000000000146,-14.045171223355819023
0.290000000000000147,-13.990386649593485657
0.291000000000000147,-13.935016110739223194
0.292000000000000148,-13.879005095294477456
0.293000000000000149,-13.822299471529461812
0.294000000000000150,-13.764845980344251331
0.295000000000000151,-13.706592686174619899
0.296000000000000152,-13.647489386772539532
0.297000000000000153,-13.587487982855677160
0.298000000000000154,-13.526542808762332726
0.299000000000000155,-13.464610925370667616
0.300000000000000155,-13.401652376644056730
0.301000000000000156,-13.337630411249438822
0.302000000000000157,-13.272511670764398417
0.303000000000000158,-13.206266346042037085
0.304000000000000159,-13.138868303341984856
0.305000000000000160,-13.070295181862121581
0.306000000000000161,-13.000528464320485256
0.307000000000000162,-12.929553522240535557
0.308000000000000163,-12.857359637587318701
0.309000000000000163,-12.783940002387810253
0.310000000000000164,-12.709291697946722977
0.311000000000000165,-12.633415655240234798
0.312000000000000166,-12.556316598035438759
0.313000000000000167,-12.478002970243505132
0.314000000000000168,-12.398486848970154739
0.315000000000000169,-12.317783844679166094
0.316000000000000170,-12.235912989833575892
0.317000000000000171,-12.152896617325669837
0.318000000000000171,-12.068760229951156049
0.319000000000000172,-11.983532362126354087
0.320000000000000173,-11.897244434988792250
0.321000000000000174,-11.809930605963392836
0.322000000000000175,-11.721627613817409141
0.323000000000000176,-11.632374620168782542
0.324000000000000177,-11.542213048354158289
0.325000000000000178,-11.451186420505290897
0.326000000000000179,-11.359340193625969917
0.327000000000000179,-11.266721595405865486
0.328000000000000180,-11.173379460453521261
0.329000000000000181,-11.079364067578048036
0.330000000000000182,-10.984726978697452182
0.331000000000000183,-10.889520879902425676
0.332000000000000184,-10.793799425156290539
0.333000000000000185,-10.697617083065958710
0.334000000000000186,-10.601028987114840874
0.335000000000000187,-10.504090789706195253
0.336000000000000187,-10.406858520325629414
0.337000000000000188,-10.309388448092811075
0.338000000000000189,-10.211736948936639635
0.339000000000000190,-10.113960377593524953
0.340000000000000191,-10.016114944596013814
0.341000000000000192,-9.918256598389028511
0.342000000000000193,-9.820440912681648982
0.343000000000000194,-9.722722979116383613
0.344000000000000195,-9.625157305312322720
0.345000000000000195,-9.527797718315753173
0.346000000000000196,-9.430697273470082465
0.347000000000000197,-9.333908168697075070
0.348000000000000198,-9.237481664163189166
0.349000000000000199,-9.141468007287773645
0.350000000000000200,-9.045916363034939067
0.351000000000000201,-8.950874749416467324
0.352000000000000202,-8.856389978120988715
0.353000000000000203,-8.762507600173030653
0.354000000000000203,-8.669271856515473829
0.355000000000000204,-8.576725633399998827
0.356000000000000205,-8.484910422462217383
0.357000000000000206,-8.393866285351233358
0.358000000000000207,-8.303631822777516547
0.359000000000000208,-8.214244147837979071
0.360000000000000209,-8.125738863472999896
0.361000000000000210,-8.038150043906707509
0.362000000000000210,-7.951510219919386557
0.363000000000000211,-7.865850367798721265
0.364000000000000212,-7.781199901815668341
0.365000000000000213,-7.697586670069614279
0.366000000000000214,-7.615036953547826393
0.367000000000000215,-7.533575468244218420
0.368000000000000216,-7.453225370183519161
0.369000000000000217,-7.374008263198095214
0.370000000000000218,-7.295944209306402861
0.371000000000000218,-7.219051741543964340
0.372000000000000219,-7.143347879100152120
0.373000000000000220,-7.068848144616717732
0.374000000000000221,-6.995566583506693803
0.375000000000000222,-6.923515785155530011
0.376000000000000223,-6.852706905869540677
0.377000000000000224,-6.783149693440131855
0.378000000000000225,-6.714852513195991079
0.379000000000000226,-6.647822375418956931
0.380000000000000226,-6.582064964003268237
0.381000000000000227,-6.517584666241623026
0.382000000000000228,-6.454384603625579864
0.383000000000000229,-6.392466663551721773
0.384000000000000230,-6.331831531829008597
0.385000000000000231,-6.272478725886988293
0.386000000000000232,-6.214406628588281301
0.387000000000000233,-6.157612522553046475
0.388000000000000234,-6.102092624906945595
0.389000000000000234,-6.047842122368361828
0.390000000000000235,-5.994855206594186470
0.391000000000000236,-5.943125109707803055
0.392000000000000237,-5.892644139936363601
0.393000000000000238,-5.843403717288499166
0.394000000000000239,-5.795394409207074382
0.395000000000000240,-5.748605966135408529
0.396000000000000241,-5.703027356938806136
0.397000000000000242,-5.658646804126709284
0.398000000000000242,-5.615451818824274355
0.399000000000000243,-5.573429235445237495
0.400000000000000244,-5.532565246021301064
0.401000000000000245,-5.492845434146364170
0.402000000000000246,-5.454254808496769691
0.403000000000000247,-5.416777835891745774
0.404000000000000248,-5.380398473861044195
0.405000000000000249,-5.345100202689429203
0.406000000000000250,-5.310866056910240829
0.407000000000000250,-5.277678656222853704
0.408000000000000251,-5.245520235811161669
0.409000000000000252,-5.214372676042676957
0.410000000000000253,-5.184217531529782264
0.411000000000000254,-5.155036059537144055
0.412000000000000255,-5.126809247720983009
0.413000000000000256,-5.099517841188106360
0.414000000000000257,-5.073142368864220764
0.415000000000000258,-5.047663169162999175
0.416000000000000258,-5.023060414948885111
0.417000000000000259,-4.999314137788291035
0.418000000000000260,-4.976404251485335273
0.419000000000000261,-4.954310574899620789
0.420000000000000262,-4.933012854044968698
0.421000000000000263,-4.912490783469330324
0.422000000000000264,-4.892724026917033342
0.423000000000000265,-4.873692237276006978
0.424000000000000266,-4.855375075813411101
0.425000000000000266,-4.837752230704147394
0.426000000000000267,-4.820803434857625192
0.427000000000000268,-4.804508483049131584
0.428000000000000269,-4.788847248362722908
0.429000000000000270,-4.773799697953473142
0.430000000000000271,-4.759345908137531111
0.431000000000000272,-4.745466078819043254
0.432000000000000273,-4.732140547263532504
0.433000000000000274,-4.719349801227986418
0.434000000000000274,-4.707074491458214993
0.435000000000000275,-4.695295443564535098
0.436000000000000276,-4.683993669287288775
0.437000000000000277,-4.673150377163885594
0.438000000000000278,-4.662746982609529134
0.439000000000000279,-4.652765117423959040
0.440000000000000280,-4.643186638736764849
0.441000000000000281,-4.633993637404057786
0.442000000000000282,-4.625168445869492828
0.443000000000000282,-4.616693645502579990
0.444000000000000283,-4.608552073427627960
0.445000000000000284,-4.600726828856423367
0.446000000000000285,-4.593201278937992349
0.447000000000000286,-4.585959064138855013
0.448000000000000287,-4.578984103166916952
0.449000000000000288,-4.572260597452505237
0.450000000000000289,-4.565773035199677032
0.451000000000000290,-4.559506195021066688
0.452000000000000290,-4.553445149169436768
0.453000000000000291,-4.547575266378911962
0.454000000000000292,-4.541882214328909484
0.455000000000000293,-4.536351961743518402
0.456000000000000294,-4.530970780139076837
0.457000000000000295,-4.525725245232441019
0.458000000000000296,-4.520602238022336294
0.459000000000000297,-4.515588945556054057
0.460000000000000298,-4.510672861393470789
0.461000000000000298,-4.505841785780274833
0.462000000000000299,-4.501083825542099071
0.463000000000000300,-4.496387393710962854
0.464000000000000301,-4.491741208895341231
0.465000000000000302,-4.487134294404861556
0.466000000000000303,-4.482555977140552095
0.467000000000000304,-4.477995886261136427
0.468000000000000305,-4.473443951635886151
0.469000000000000306,-4.468890402094130465
0.470000000000000306,-4.464325763481424403
0.471000000000000307,-4.459740856531995590
0.472000000000000308,-4.455126794567097370
0.473000000000000309,-4.450474981028384569
0.474000000000000310,-4.445777106855381078
0.475000000000000311,-4.441025147715877530
0.476000000000000312,-4.436211361097727846
0.477000000000000313,-4.431328283270426383
0.478000000000000314,-4.426368726124537467
0.479000000000000314,-4.421325773896848332
0.480000000000000315,-4.416192779788860712
0.481000000000000316,-4.410963362486076456
0.482000000000000317,-4.405631402585195033
0.483000000000000318,-4.400191038936249299
0.484000000000000319,-4.394636664906367507
0.485000000000000320,-4.388962924571730539
0.486000000000000321,-4.383164708844016211
0.487000000000000322,-4.377237151537419102
0.488000000000000322,-4.371175625382136332
0.489000000000000323,-4.364975737990040905
0.490000000000000324,-4.358633327777973854
0.491000000000000325,-4.352144459853988678
0.492000000000000326,-4.345505421871566298
0.493000000000000327,-4.338712719856804512
0.494000000000000328,-4.331763074013157855
0.495000000000000329,-4.324653414508397020
0.496000000000000330,-4.317380877247982696
0.497000000000000330,-4.309942799639168598
0.498000000000000331,-4.302336716349694612
0.499000000000000332,-4.294560355064989565
0.500000000000000333,-4.286611632247506520
0.501000000000000334,-4.278488648901669578
0.502000000000000335,-4.270189686347822366
0.503000000000000336,-4.261713202008315271
0.504000000000000337,-4.253057825208802711
0.505000000000000338,-4.244222352997621073
0.506000000000000338,-4.235205745986007742
0.507000000000000339,-4.226007124211763610
0.508000000000000340,-4.216625763028841511
0.509000000000000341,-4.207061089025201817
0.510000000000000342,-4.197312675971153872
0.511000000000000343,-4.187380240800282039
0.512000000000000344,-4.177263639624919200
0.513000000000000345,-4.166962863788020499
0.514000000000000346,-4.156478035953248273
0.515000000000000346,-4.145809406234784333
0.516000000000000347,-4.134957348368510921
0.517000000000000348,-4.123922355925950356
0.518000000000000349,-4.112705038572256555
0.519000000000000350,-4.101306118369556941
0.520000000000000351,-4.089726426126739867
0.521000000000000352,-4.077966897796766688
0.522000000000000353,-4.066028570922441077
0.523000000000000353,-4.053912581131558390
0.524000000000000354,-4.041620158682219355
0.525000000000000355,-4.029152625059025716
0.526000000000000356,-4.016511389620815997
0.527000000000000357,-4.003697946300531996
0.528000000000000358,-3.990713870357716964
0.529000000000000359,-3.977560815184082887
0.530000000000000360,-3.964240509162537229
0.531000000000000361,-3.950754752580000861
0.532000000000000361,-3.937105414594264996
0.533000000000000362,-3.923294430255069187
0.534000000000000363,-3.909323797579630000
0.535000000000000364,-3.895195574682623008
0.536000000000000365,-3.880911876960743800
0.537000000000000366,-3.866474874331840450
0.538000000000000367,-3.851886788528513961
0.539000000000000368,-3.837149890446230671
0.540000000000000369,-3.822266497545683706
0.541000000000000369,-3.807238971309354181
0.542000000000000370,-3.792069714752005716
0.543000000000000371,-3.776761169984901301
0.544000000000000372,-3.761315815833491172
0.545000000000000373,-3.745736165508254167
0.546000000000000374,-3.730024764328368825
0.547000000000000375,-3.714184187497847400
0.548000000000000376,-3.698217037933802409
0.549000000000000377,-3.682125944146371843
0.550000000000000377,-3.665913558169906050
0.551000000000000378,-3.649582553544959751
0.552000000000000379,-3.633135623350634891
0.553000000000000380,-3.616575478286738754
0.554000000000000381,-3.599904844805275506
0.555000000000000382,-3.583126463290768893
0.556000000000000383,-3.566243086288795272
0.557000000000000384,-3.549257476782263776
0.558000000000000385,-3.532172406514798801
0.559000000000000385,-3.514990654360681255
0.560000000000000386,-3.497715004740739708
0.561000000000000387,-3.480348246083596386
0.562000000000000388,-3.462893169331645815
0.563000000000000389,-3.445352566491136859
0.564000000000000390,-3.427729229225749741
0.565000000000000391,-3.410025947493017462
0.566000000000000392,-3.392245508222946349
0.567000000000000393,-3.374390694038202465
0.568000000000000393,-3.356464282015200418
0.569000000000000394,-3.338469042485426197
0.570000000000000395,-3.320407737876398979
0.571000000000000396,-3.302283121591501835
0.572000000000000397,-3.284097936928141337
0.573000000000000398,-3.265854916033480659
0.574000000000000399,-3.247556778897131124
0.575000000000000400,-3.229206232380124497
0.576000000000000401,-3.210805969279491023
0.577000000000000401,-3.192358667427828145
0.578000000000000402,-3.173866988827129809
0.579000000000000403,-3.155333578816270190
0.580000000000000404,-3.136761065271496118
0.581000000000000405,-3.118152057839211899
0.582000000000000406,-3.099509147200482762
0.583000000000000407,-3.080834904366545945
0.584000000000000408,-3.062131880004750339
0.585000000000000409,-3.043402603794238104
0.586000000000000409,-3.024649583810734121
0.587000000000000410,-3.005875305939889053
0.588000000000000411,-2.987082233318433033
0.589000000000000412,-2.968272805802645742
0.590000000000000413,-2.949449439463427414
0.591000000000000414,-2.930614526107437889
0.592000000000000415,-2.911770432823683308
0.593000000000000416,-2.892919501554918504
0.594000000000000417,-2.874064048693329543
0.595000000000000417,-2.855206364699923061
0.596000000000000418,-2.836348713746949191
0.597000000000000419,-2.817493333382956155
0.598000000000000420,-2.798642434219732245
0.599000000000000421,-2.779798199640748368
0.600000000000000422,-2.760962785530429731
0.601000000000000423,-2.742138320023792541
0.602000000000000424,-2.723326903275883559
0.603000000000000425,-2.704530607250515750
0.604000000000000425,-2.685751475527748955
0.605000000000000426,-2.666991523129659925
0.606000000000000427,-2.648252736363866156
0.607000000000000428,-2.629537072684289711
0.608000000000000429,-2.610846460568750693
0.609000000000000430,-2.592182799412804606
0.610000000000000431,-2.573547959439474120
