# AuSphere1NM_LEUSCA-AC
# h[nm],U(h)[kJ/mol]
0.149999999999999994,120.425789021938314249
0.150999999999999995,119.828976639279900951
0.151999999999999996,116.258391343866975376
0.152999999999999997,112.130598855590477569
0.153999999999999998,108.337737018345961815
0.154999999999999999,105.048579779447393889
0.156000000000000000,102.145086557450639475
0.157000000000000001,99.442510332343232449
0.158000000000000002,96.786132429601664739
0.159000000000000002,94.081730764391508615
0.160000000000000003,91.293732469260731932
0.161000000000000004,88.430369793910159615
0.162000000000000005,85.526131915956824514
0.163000000000000006,82.626412126403067759
0.164000000000000007,79.776168763484747615
0.165000000000000008,77.012774697594295503
0.166000000000000009,74.362453057457884142
0.167000000000000010,71.839419696151679773
0.168000000000000010,69.446845462145532224
0.169000000000000011,67.178873280958327996
0.170000000000000012,65.023094158085967820
0.171000000000000013,62.963057221485314585
0.172000000000000014,60.980539422543223793
0.173000000000000015,59.057421726320555422
0.174000000000000016,57.177109461066059737
0.175000000000000017,55.325497854251786123
0.176000000000000018,53.491524258424092864
0.177000000000000018,51.667371160411150299
0.178000000000000019,49.848393451768593820
0.179000000000000020,48.032843646339799193
0.180000000000000021,46.221463031074691230
0.181000000000000022,44.416997652107262695
0.182000000000000023,42.623687427690910567
0.183000000000000024,40.846765842529443091
0.184000000000000025,39.091997466363451963
0.185000000000000026,37.365271461091978722
0.186000000000000026,35.672261548390650887
0.187000000000000027,34.018156676749605083
0.188000000000000028,32.407461805278032330
0.189000000000000029,30.843864688586968725
0.190000000000000030,29.330162138556818974
0.191000000000000031,27.868237774167262444
0.192000000000000032,26.459082569285349962
0.193000000000000033,25.102849400810480773
0.194000000000000034,23.798933133691132724
0.195000000000000034,22.546068423405490222
0.196000000000000035,21.342438260329146260
0.197000000000000036,20.185787234567509785
0.198000000000000037,19.073534494086480606
0.199000000000000038,18.002882350187643823
0.200000000000000039,16.970917414121053923
0.201000000000000040,15.974702000827551984
0.202000000000000041,15.011354294445078850
0.203000000000000042,14.078116427283637435
0.204000000000000042,13.172410177610846205
0.205000000000000043,12.291880444510420389
0.206000000000000044,11.434427016226091922
0.207000000000000045,10.598225419885483944
0.208000000000000046,9.781737834670618525
0.209000000000000047,8.983715177309495203
0.210000000000000048,8.203191538203039812
0.211000000000000049,7.439472168249073647
0.212000000000000050,6.692116199555198541
0.213000000000000050,5.960915236060570166
0.214000000000000051,5.245868880050129412
0.215000000000000052,4.547158174176492373
0.216000000000000053,3.865117841523733055
0.217000000000000054,3.200208103192120124
0.218000000000000055,2.552986747769665499
0.219000000000000056,1.924082023042287037
0.220000000000000057,1.314166819852024215
0.221000000000000058,0.723934523021900755
0.222000000000000058,0.154076816067716449
0.223000000000000059,-0.394736354076598073
0.224000000000000060,-0.921874518361244788
0.225000000000000061,-1.426762062811699705
0.226000000000000062,-1.908891226873542735
0.227000000000000063,-2.367832755390554489
0.228000000000000064,-2.803244276096206189
0.229000000000000065,-3.214876506574061210
0.230000000000000066,-3.602577419949620552
0.231000000000000066,-3.966294517726509206
0.232000000000000067,-4.306075371800340612
0.233000000000000068,-4.622066606410886180
0.234000000000000069,-4.914511495247973372
0.235000000000000070,-5.183746349709389634
0.236000000000000071,-5.430195871987335110
0.237000000000000072,-5.654367641764184604
0.238000000000000073,-5.856845898315990340
0.239000000000000073,-6.038284771197089285
0.240000000000000074,-6.199401102812422515
0.241000000000000075,-6.340966995427621100
0.242000000000000076,-6.463802203834218219
0.243000000000000077,-6.568766483247071797
0.244000000000000078,-6.656751990295123100
0.245000000000000079,-6.728675823367675335
0.246000000000000080,-6.785472777259758281
0.247000000000000081,-6.828088376150285299
0.248000000000000081,-6.857472238549990884
0.249000000000000082,-6.874571818050259076
0.250000000000000111,-6.880326554546863704
0.251000000000000112,-6.875662462141337805
0.252000000000000113,-6.861487172160346759
0.253000000000000114,-6.838685442686033511
0.254000000000000115,-6.808115139656857551
0.255000000000000115,-6.770603688962046007
0.256000000000000116,-6.726944993995417121
0.257000000000000117,-6.677896808825797059
0.258000000000000118,-6.624178553450255080
0.259000000000000119,-6.566469554486758398
0.260000000000000120,-6.505407692095997341
0.261000000000000121,-6.441588431857387498
0.262000000000000122,-6.375564218722018062
0.263000000000000123,-6.307844208983416578
0.264000000000000123,-6.238894315406487756
0.265000000000000124,-6.169137540195004377
0.266000000000000125,-6.098954570322550062
0.267000000000000126,-6.028684609862422938
0.268000000000000127,-5.958626424296224577
0.269000000000000128,-5.889039572324939797
0.270000000000000129,-5.820145801420771647
0.271000000000000130,-5.752130584214310005
0.272000000000000131,-5.685144773784442052
0.273000000000000131,-5.619306356983321038
0.274000000000000132,-5.554702286065159811
0.275000000000000133,-5.491390370075384553
0.276000000000000134,-5.429401208678692470
0.277000000000000135,-5.368740152345579553
0.278000000000000136,-5.309389274062729314
0.279000000000000137,-5.251309338971756446
0.280000000000000138,-5.194441759563037664
0.281000000000000139,-5.138710525247025984
0.282000000000000139,-5.084024096288181305
0.283000000000000140,-5.030277253209533228
0.284000000000000141,-4.977352893853894678
0.285000000000000142,-4.925123771317357679
0.286000000000000143,-4.873454166948347321
0.287000000000000144,-4.822201493529036043
0.288000000000000145,-4.771217824624542914
0.289000000000000146,-4.720351346896975997
0.290000000000000147,-4.669447732937326734
0.291000000000000147,-4.618351432867434880
0.292000000000000148,-4.566906883608561785
0.293000000000000149,-4.514959635302885133
0.294000000000000150,-4.462357394911064645
0.295000000000000151,-4.408950987495321883
0.296000000000000152,-4.354595236133613767
0.297000000000000153,-4.299149761800556746
0.298000000000000154,-4.242479704894820181
0.299000000000000155,-4.184456370395008840
0.300000000000000155,-4.124957798887582072
0.301000000000000156,-4.063869265934037855
0.302000000000000157,-4.001083712433016970
0.303000000000000158,-3.936502108788046961
0.304000000000000159,-3.870033755816314258
0.305000000000000160,-3.801596525429525197
0.306000000000000161,-3.731117044188285714
0.307000000000000162,-3.658530822877099631
0.308000000000000163,-3.583782335271204822
0.309000000000000163,-3.506825049271022898
0.310000000000000164,-3.427621413566249942
0.311000000000000165,-3.346142802962128737
0.312000000000000166,-3.262369425456806304
0.313000000000000167,-3.176290194102151077
0.314000000000000168,-3.087902566613115685
0.315000000000000169,-2.997212355613727119
0.316000000000000170,-2.904233512322728306
0.317000000000000171,-2.808987886389783029
0.318000000000000171,-2.711504964495355274
0.319000000000000172,-2.611821590224987055
0.320000000000000173,-2.509981667622658286
0.321000000000000174,-2.406035850718994062
0.322000000000000175,-2.300041221219594867
0.323000000000000176,-2.192060956426931106
0.324000000000000177,-2.082163989356991429
0.325000000000000178,-1.970424662899991075
0.326000000000000179,-1.856922379763277009
0.327000000000000179,-1.741741249824487969
0.328000000000000180,-1.624969736414724197
0.329000000000000181,-1.506700302945828795
0.330000000000000182,-1.387029061191211499
0.331000000000000183,-1.266055422429628985
0.332000000000000184,-1.143881752562476928
0.333000000000000185,-1.020613032220617056
0.334000000000000186,-0.896356522785078269
0.335000000000000187,-0.771221439157701361
0.336000000000000187,-0.645318630033368423
0.337000000000000188,-0.518760266344345689
0.338000000000000189,-0.391659538470099933
0.339000000000000190,-0.264130362732288293
0.340000000000000191,-0.136287097624626485
0.341000000000000192,-0.008244270161598122
0.342000000000000193,0.119883687333303859
0.343000000000000194,0.247982689737199419
0.344000000000000195,0.375939240728786483
0.345000000000000195,0.503640663325489846
0.346000000000000196,0.630975319250368982
0.347000000000000197,0.757832817067533693
0.348000000000000198,0.884104209066523872
0.349000000000000199,1.009682176915276841
0.350000000000000200,1.134461206136727185
0.351000000000000201,1.258337749497388858
0.352000000000000202,1.381210379426050405
0.353000000000000203,1.502979929608304177
0.354000000000000203,1.623549625927619644
0.355000000000000204,1.742825206945854077
0.356000000000000205,1.860715034136388057
0.357000000000000206,1.977130192100963413
0.358000000000000207,2.091984579017011292
0.359000000000000208,2.205194987576148069
0.360000000000000209,2.316681176686393062
0.361000000000000210,2.426365934220917175
0.362000000000000210,2.534175131104566603
0.363000000000000211,2.640037767036390370
0.364000000000000212,2.743886008151881217
0.365000000000000213,2.845655216932840403
0.366000000000000214,2.945283974675544592
0.367000000000000215,3.042714096829710169
0.368000000000000216,3.137890641521214441
0.369000000000000217,3.230761911571327971
0.370000000000000218,3.321279450323693538
0.371000000000000218,3.409398031588310118
0.372000000000000219,3.495075644008687199
0.373000000000000220,3.578273470154829106
0.374000000000000221,3.658955860640297431
0.375000000000000222,3.737090303556905635
0.376000000000000223,3.812647389515080754
0.377000000000000224,3.885600772572280537
0.378000000000000225,3.955927127325414183
0.379000000000000226,4.023606102436876775
0.380000000000000226,4.088620270856739403
0.381000000000000227,4.150955076996611481
0.382000000000000228,4.210598781103274568
0.383000000000000229,4.267542401072631719
0.384000000000000230,4.321779651936945577
0.385000000000000231,4.373306883250346111
0.386000000000000232,4.422123014589894652
0.387000000000000233,4.468229469381517660
0.388000000000000234,4.511630107252089239
0.389000000000000234,4.552331155101085436
0.390000000000000235,4.590341137077381894
0.391000000000000236,4.625670803638604944
0.392000000000000237,4.658333059863059233
0.393000000000000238,4.688342893176112192
0.394000000000000239,4.715717300645563270
0.395000000000000240,4.740475215992890234
0.396000000000000241,4.762637436459883133
0.397000000000000242,4.782226549662895287
0.398000000000000242,4.799266860559887604
0.399000000000000243,4.813784318648370864
0.400000000000000244,4.825806445505762099
0.401000000000000245,4.835362262776635056
0.402000000000000246,4.842482220705404572
0.403000000000000247,4.847198127306265647
0.404000000000000248,4.849543078256336237
0.405000000000000249,4.849551387591949592
0.406000000000000250,4.847258519282372724
0.407000000000000250,4.842701019749567237
0.408000000000000251,4.835916451397465288
0.409000000000000252,4.826943327208759627
0.410000000000000253,4.815821046462590793
0.411000000000000254,4.802589831621386196
0.412000000000000255,4.787290666430783048
0.413000000000000256,4.769965235271895310
0.414000000000000257,4.750655863801233281
0.415000000000000258,4.729405460909199554
0.416000000000000258,4.706257462024571403
0.417000000000000259,4.681255773788326913
0.418000000000000260,4.654444720116897471
0.419000000000000261,4.625868989671493736
0.420000000000000262,4.595573584746856177
0.421000000000000263,4.563603771589858304
0.422000000000000264,4.530005032155561828
0.423000000000000265,4.494823017305389357
0.424000000000000266,4.458103501449699912
0.425000000000000266,4.419892338634531015
0.426000000000000267,4.380235420070027530
0.427000000000000268,4.339178633095833071
0.428000000000000269,4.296767821576784385
0.429000000000000270,4.253048747720407974
0.430000000000000271,4.208067055305682480
0.431000000000000272,4.161868234311238979
0.432000000000000273,4.114497586929372730
0.433000000000000274,4.066000194950928126
0.434000000000000274,4.016420888504681486
0.435000000000000275,3.965804216133894222
0.436000000000000276,3.914194416191245640
0.437000000000000277,3.861635389532571683
0.438000000000000278,3.808170673488857183
0.439000000000000279,3.753843417095009904
0.440000000000000280,3.698696357553227898
0.441000000000000281,3.642771797908185505
0.442000000000000282,3.586111585910391142
0.443000000000000282,3.528757094043901699
0.444000000000000283,3.470749200693735936
0.445000000000000284,3.412128272428236464
0.446000000000000285,3.352934147371084528
0.447000000000000286,3.293206119637491103
0.448000000000000287,3.232982924808843528
0.449000000000000288,3.172302726419911068
0.450000000000000289,3.111203103432541806
0.451000000000000290,3.049721038669829465
0.452000000000000290,2.987892908184563545
0.453000000000000291,2.925754471535875645
0.454000000000000292,2.863340862947999721
0.455000000000000293,2.800686583325162182
0.456000000000000294,2.737825493096758045
0.457000000000000295,2.674790805867122145
0.458000000000000296,2.611615082844285674
0.459000000000000297,2.548330228022562594
0.460000000000000298,2.484967484093671963
0.461000000000000298,2.421557429061843791
0.462000000000000299,2.358129973538121593
0.463000000000000300,2.294714358689800004
0.464000000000000301,2.231339154821008641
0.465000000000000302,2.168032260560960545
0.466000000000000303,2.104820902636480806
0.467000000000000304,2.041731636206168155
0.468000000000000305,1.978790345733582257
0.469000000000000306,1.916022246377413252
0.470000000000000306,1.853451885877021255
0.471000000000000307,1.791103146911974475
0.472000000000000308,1.728999249914834335
0.473000000000000309,1.667162756316683758
0.474000000000000310,1.605615572205538744
0.475000000000000311,1.544378952377835068
0.476000000000000312,1.483473504764249995
0.477000000000000313,1.422919195210746279
0.478000000000000314,1.362735352596968097
0.479000000000000314,1.302940674273969091
0.480000000000000315,1.243553231804033654
0.481000000000000316,1.184590476985630136
0.482000000000000317,1.126069248147076651
0.483000000000000318,1.068005776692865227
0.484000000000000319,1.010415693887081856
0.485000000000000320,0.953314037858782881
0.486000000000000321,0.896715260814581638
0.487000000000000322,0.840633236444222276
0.488000000000000322,0.785081267505206681
0.489000000000000323,0.730072093573163050
0.490000000000000324,0.675617898944787298
0.491000000000000325,0.621730320680887183
0.492000000000000326,0.568420456777252392
0.493000000000000327,0.515698874451595457
0.494000000000000328,0.463575618535155609
0.495000000000000329,0.412060219957927742
0.496000000000000330,0.361161704316957433
0.497000000000000330,0.310888600517357450
0.498000000000000331,0.261248949476241665
0.499000000000000332,0.212250312880076952
0.500000000000000333,0.163899781986192927
0.501000000000000334,0.116203986459732178
0.502000000000000335,0.069169103237552404
0.503000000000000336,0.022800865410954475
0.504000000000000337,-0.022895428880611711
0.505000000000000338,-0.067914907552255738
0.506000000000000338,-0.112253115679997031
0.507000000000000339,-0.155906006617626769
0.508000000000000340,-0.198869933130576187
0.509000000000000341,-0.241141638553100085
0.510000000000000342,-0.282718247974745651
0.511000000000000343,-0.323597259461812559
0.512000000000000344,-0.363776535319222993
0.513000000000000345,-0.403254293397941943
0.514000000000000346,-0.442029098452944857
0.515000000000000346,-0.480099853556264111
0.516000000000000347,-0.517465791569620692
0.517000000000000348,-0.554126466680789909
0.518000000000000349,-0.590081746007646624
0.519000000000000350,-0.625331801273599663
0.520000000000000351,-0.659877100557964891
0.521000000000000352,-0.693718400124542556
0.522000000000000353,-0.726856736331463194
0.523000000000000353,-0.759293417625310996
0.524000000000000354,-0.791030016622082166
0.525000000000000355,-0.822068362277633247
0.526000000000000356,-0.852410532149863398
0.527000000000000357,-0.882058844754847193
0.528000000000000358,-0.911015852018977390
0.529000000000000359,-0.939284331828792007
0.530000000000000360,-0.966867280680368757
0.531000000000000361,-0.993767906429687264
0.532000000000000361,-1.019989621145426462
0.533000000000000362,-1.045536034065381870
0.534000000000000363,-1.070410944657688379
0.535000000000000364,-1.094618335787802321
0.536000000000000365,-1.118162366992092371
0.537000000000000366,-1.141047367858828654
0.538000000000000367,-1.163277831517133931
0.539000000000000368,-1.184858408234504612
0.540000000000000369,-1.205793899123217106
0.541000000000000369,-1.226089249956019422
0.542000000000000370,-1.245749545091243693
0.543000000000000371,-1.264780001507534779
0.544000000000000372,-1.283185962948172332
0.545000000000000373,-1.300972894174952987
0.546000000000000374,-1.318146375331525011
0.547000000000000375,-1.334712096415900939
0.548000000000000376,-1.350675851861943721
0.549000000000000377,-1.366043535229391148
0.550000000000000377,-1.380821134002073070
0.551000000000000378,-1.395014724493754299
0.552000000000000379,-1.408630466861144903
0.553000000000000380,-1.421674600223391538
0.554000000000000381,-1.434153437887438987
0.555000000000000382,-1.446073362678572449
0.556000000000000383,-1.457440822375298151
0.557000000000000384,-1.468262325247871702
0.558000000000000385,-1.478544435699521431
0.559000000000000385,-1.488293770009565309
0.560000000000000386,-1.497516992177433393
0.561000000000000387,-1.506220809866680277
0.562000000000000388,-1.514411970447951727
0.563000000000000389,-1.522097257139938487
0.564000000000000390,-1.529283485247184160
0.565000000000000391,-1.535977498493747095
0.566000000000000392,-1.542186165451557400
0.567000000000000393,-1.547916376062367760
0.568000000000000393,-1.553175038252123219
0.569000000000000394,-1.557969074636614826
0.570000000000000395,-1.562305419317223887
0.571000000000000396,-1.566191014765509593
0.572000000000000397,-1.569632808795503154
0.573000000000000398,-1.572637751622428803
0.574000000000000399,-1.575212793006608880
0.575000000000000400,-1.577364879481343962
0.576000000000000401,-1.579100951663460428
0.577000000000000401,-1.580427941645327738
0.578000000000000402,-1.581352770466999624
0.579000000000000403,-1.581882345667267709
0.580000000000000404,-1.582023558912323491
0.581000000000000405,-1.581783283700745946
0.582000000000000406,-1.581168373143559069
0.583000000000000407,-1.580185657818023781
0.584000000000000408,-1.578841943693982897
0.585000000000000409,-1.577144010131361851
0.586000000000000409,-1.575098607947634566
0.587000000000000410,-1.572712457553977483
0.588000000000000411,-1.569992247158770393
0.589000000000000412,-1.566944631037297864
0.590000000000000413,-1.563576227866276591
0.591000000000000414,-1.559893619122036723
0.592000000000000415,-1.555903347541102821
0.593000000000000416,-1.551611915641888162
0.594000000000000417,-1.547025784306331087
0.595000000000000417,-1.542151371420251049
0.596000000000000418,-1.536995050571144272
0.597000000000000419,-1.531563149802335655
0.598000000000000420,-1.525861950422171542
0.599000000000000421,-1.519897685867178661
0.600000000000000422,-1.513676540617945765
0.601000000000000423,-1.507204649166611787
0.602000000000000424,-1.500488095034789637
0.603000000000000425,-1.493532909840841638
0.604000000000000425,-1.486345072415282242
0.605000000000000426,-1.478930507963322594
0.606000000000000427,-1.471295087273376545
0.607000000000000428,-1.463444625970454993
0.608000000000000429,-1.455384883813429564
0.609000000000000430,-1.447121564035018793
0.610000000000000431,-1.438660312723564427
0.611000000000000432,-1.430006718245454778
0.612000000000000433,-1.421166310707265623
0.613000000000000433,-1.412144561456574632
0.614000000000000434,-1.402946882620476954
0.615000000000000435,-1.393578626680794574
0.616000000000000436,-1.384045086085080367
0.617000000000000437,-1.374351492892426974
