# AuSphere1NM_CS-61465-AC
# h[nm],U(h)[kJ/mol]
0.149999999999999994,91.325561316213423879
0.150999999999999995,89.852444139278333068
0.151999999999999996,86.535981474012174886
0.152999999999999997,82.933471609657061663
0.153999999999999998,79.607745488609879203
0.154999999999999999,76.653683401427571198
0.156000000000000000,73.983755039501630790
0.157000000000000001,71.470952996385307188
0.158000000000000002,69.010791547067199758
0.159000000000000002,66.540097925642058385
0.160000000000000003,64.034940421498589558
0.161000000000000004,61.500343451605957057
0.162000000000000005,58.958479200420903510
0.163000000000000006,56.438478841573257228
0.164000000000000007,53.968991726638918749
0.165000000000000008,51.573555497569671502
0.166000000000000009,49.268344249959689307
0.167000000000000010,47.061692690621178770
0.168000000000000010,44.954799669212249569
0.169000000000000011,42.943102211230772980
0.170000000000000012,41.017927516370335184
0.171000000000000013,39.168146011160686726
0.172000000000000014,37.381649195484165205
0.173000000000000015,35.646556350472472730
0.174000000000000016,33.952113822357759432
0.175000000000000017,32.289291742176075672
0.176000000000000018,30.651108917397454690
0.177000000000000018,29.032730669934903034
0.178000000000000019,27.431389770220540925
0.179000000000000020,25.846180038127869238
0.180000000000000021,24.277767828966123176
0.181000000000000022,22.728060167112950296
0.182000000000000023,21.199860950944053428
0.183000000000000024,19.696539274896675664
0.184000000000000025,18.221727043306145788
0.185000000000000026,16.779057003354683530
0.186000000000000026,15.371947250916823791
0.187000000000000027,14.003434195759524528
0.188000000000000028,12.676052866236810601
0.189000000000000029,11.391761195759114500
0.190000000000000030,10.151903446469731307
0.191000000000000031,8.957207063367849997
0.192000000000000032,7.807806890146132162
0.193000000000000033,6.703290700654038758
0.194000000000000034,5.642760304341321032
0.195000000000000034,4.624902982068201496
0.196000000000000035,3.648068627060697899
0.197000000000000036,2.710348645644063303
0.198000000000000037,1.809653367932896995
0.199000000000000038,0.943785395691917772
0.200000000000000039,0.110506948805688648
0.201000000000000040,-0.692400152856466056
0.202000000000000041,-1.467082728320341145
0.203000000000000042,-2.215573116623258620
0.204000000000000042,-2.939754759596191480
0.205000000000000043,-3.641336253491040509
0.206000000000000044,-4.321833409398999848
0.207000000000000045,-4.982558694077212635
0.208000000000000046,-5.624617306549916762
0.209000000000000047,-6.248909074568238964
0.210000000000000048,-6.856135321657577109
0.211000000000000049,-7.446809853314681149
0.212000000000000050,-8.021273233677487013
0.213000000000000050,-8.579709565991391784
0.214000000000000051,-9.122165046390852794
0.215000000000000052,-9.648567626506286743
0.216000000000000053,-10.158747192443248863
0.217000000000000054,-10.652455742628497148
0.218000000000000055,-11.129387122311413805
0.219000000000000056,-11.589195946107105684
0.220000000000000057,-12.031515410294977286
0.221000000000000058,-12.455973762470142319
0.222000000000000058,-12.862209256776012012
0.223000000000000059,-13.249883477799730969
0.224000000000000060,-13.618692965024672858
0.225000000000000061,-13.968379112437347089
0.226000000000000062,-14.298736354575916963
0.227000000000000063,-14.609618681206615776
0.228000000000000064,-14.900944548235983689
0.229000000000000065,-15.172700272796358689
0.230000000000000066,-15.424942016101478970
0.231000000000000066,-15.657796469113694826
0.232000000000000067,-15.871460363750685474
0.233000000000000068,-16.066198936748030235
0.234000000000000069,-16.242343474826615335
0.235000000000000070,-16.400288068916516693
0.236000000000000071,-16.540485702258557410
0.237000000000000072,-16.663443792612962824
0.238000000000000073,-16.769719302886905155
0.239000000000000073,-16.859913527555740131
0.240000000000000074,-16.934666654570143862
0.241000000000000075,-16.994652194251521848
0.242000000000000076,-17.040571358192732276
0.243000000000000077,-17.073147462579537859
0.244000000000000078,-17.093120421784284702
0.245000000000000079,-17.101241389682627414
0.246000000000000080,-17.098267598013574542
0.247000000000000081,-17.084957433323609166
0.248000000000000081,-17.062065786672693690
0.249000000000000082,-17.030339703381070393
0.250000000000000111,-16.990514353693800587
0.251000000000000112,-16.943309339355074883
0.252000000000000113,-16.889425345726952088
0.253000000000000114,-16.829541144255102836
0.254000000000000115,-16.764310945773480910
0.255000000000000115,-16.694362101332778536
0.256000000000000116,-16.620293143918512868
0.257000000000000117,-16.542672161568923173
0.258000000000000118,-16.462035489984895520
0.259000000000000119,-16.378886710717104336
0.260000000000000120,-16.293695939388943117
0.261000000000000121,-16.206899387137799096
0.262000000000000122,-16.118899177502843401
0.263000000000000123,-16.030063400322511313
0.264000000000000123,-15.940726383802584110
0.265000000000000124,-15.851189165745248388
0.266000000000000125,-15.761720144965845947
0.267000000000000126,-15.672555894138890054
0.268000000000000127,-15.583902115686376177
0.269000000000000128,-15.495934722824156182
0.270000000000000129,-15.408801028496759145
0.271000000000000130,-15.322621025636646408
0.272000000000000131,-15.237488742963344990
0.273000000000000131,-15.153473661373684678
0.274000000000000132,-15.070622176853001761
0.275000000000000133,-14.988959096744185473
0.276000000000000134,-14.908489157135212722
0.277000000000000135,-14.829198550056508665
0.278000000000000136,-14.751056450106593942
0.279000000000000137,-14.674016531041278455
0.280000000000000138,-14.598018463760496388
0.281000000000000139,-14.522989388002091715
0.282000000000000139,-14.448845350898718465
0.283000000000000140,-14.375492706368470763
0.284000000000000141,-14.302829470088511243
0.285000000000000142,-14.230746625541780048
0.286000000000000143,-14.159129377327754895
0.287000000000000144,-14.087858348587488422
0.288000000000000145,-14.016810720011701363
0.289000000000000146,-13.945861308475764773
0.290000000000000147,-13.874883583879604743
0.291000000000000147,-13.803750623262587283
0.292000000000000148,-13.732336001715134799
0.293000000000000149,-13.660514620020501653
0.294000000000000150,-13.588163469333318645
0.295000000000000151,-13.515162333537940498
0.296000000000000152,-13.441394430229726353
0.297000000000000153,-13.366746991529357302
0.298000000000000154,-13.291111786173999576
0.299000000000000155,-13.214385584533294704
0.300000000000000155,-13.136470568372649481
0.301000000000000156,-13.057274687334338381
0.302000000000000157,-12.976711964229741270
0.303000000000000158,-12.894702751335094248
0.304000000000000159,-12.811173939961056689
0.305000000000000160,-12.726059125623587320
0.306000000000000161,-12.639298731183334468
0.307000000000000162,-12.550840090343035271
0.308000000000000163,-12.460637493899712425
0.309000000000000163,-12.368652201142314340
0.310000000000000164,-12.274852418766457163
0.311000000000000165,-12.179213249648199735
0.312000000000000166,-12.081716613779537539
0.313000000000000167,-11.982351143619851541
0.314000000000000168,-11.881112056062423932
0.315000000000000169,-11.778001003152834159
0.316000000000000170,-11.673025903629014266
0.317000000000000171,-11.566200757280617140
0.318000000000000171,-11.457545444049763717
0.319000000000000172,-11.347085509716775320
0.320000000000000173,-11.234851939933538034
0.321000000000000174,-11.120880924284943347
0.322000000000000175,-11.005213611975198873
0.323000000000000176,-10.887895860652328395
0.324000000000000177,-10.768977979799805311
0.325000000000000178,-10.648514470041298807
0.326000000000000179,-10.526563759621680560
0.327000000000000179,-10.403187939245988503
0.328000000000000180,-10.278452496378054803
0.329000000000000181,-10.152426050022549830
0.330000000000000182,-10.025180086937110602
0.331000000000000183,-9.896788700148068330
0.332000000000000184,-9.767328330570403949
0.333000000000000185,-9.636877512463803086
0.334000000000000186,-9.505516623389420161
0.335000000000000187,-9.373327639267628797
0.336000000000000187,-9.240393895075708741
0.337000000000000188,-9.106799851665066114
0.338000000000000189,-8.972630869121907438
0.339000000000000190,-8.837972987041505135
0.340000000000000191,-8.702912712035658416
0.341000000000000192,-8.567536812745320418
0.342000000000000193,-8.431932122584479217
0.343000000000000194,-8.296185350399628788
0.344000000000000195,-8.160382899188501682
0.345000000000000195,-8.024610692984815330
0.346000000000000196,-7.888954011980625403
0.347000000000000197,-7.753497335925440659
0.348000000000000198,-7.618324195811221777
0.349000000000000199,-7.483517033824258036
0.350000000000000200,-7.349157071519575979
0.351000000000000201,-7.215324186149594254
0.352000000000000202,-7.082096795057441163
0.353000000000000203,-6.949551748025688980
0.354000000000000203,-6.817764227453295689
0.355000000000000204,-6.686807656217823137
0.356000000000000205,-6.556753613065512631
0.357000000000000206,-6.427671755359052774
0.358000000000000207,-6.299629749001751655
0.359000000000000208,-6.172693205346980072
0.360000000000000209,-6.046925624893312090
0.361000000000000210,-5.922388347558633193
0.362000000000000210,-5.799140509320505288
0.363000000000000211,-5.677239005005160877
0.364000000000000212,-5.556738457003818965
0.365000000000000213,-5.437691189691958193
0.366000000000000214,-5.320147209325435611
0.367000000000000215,-5.204154189186089852
0.368000000000000216,-5.089757459749280954
0.369000000000000217,-4.977000003646049997
0.370000000000000218,-4.865922455193752327
0.371000000000000218,-4.756563104270620457
0.372000000000000219,-4.648957904311895817
0.373000000000000220,-4.543140484207894403
0.374000000000000221,-4.439142163887544790
0.375000000000000222,-4.336991973374407117
0.376000000000000223,-4.236716675106208640
0.377000000000000224,-4.138340789313058821
0.378000000000000225,-4.041886622254208916
0.379000000000000226,-3.947374297117757003
0.380000000000000226,-3.854821787392953780
0.381000000000000227,-3.764244952529691712
0.382000000000000228,-3.675657575705291613
0.383000000000000229,-3.589071403524075610
0.384000000000000230,-3.504496187480646174
0.385000000000000231,-3.421939727023721733
0.386000000000000232,-3.341407914062732853
0.387000000000000233,-3.262904778765323588
0.388000000000000234,-3.186432536499495427
0.389000000000000234,-3.111991635780050558
0.390000000000000235,-3.039580807084338865
0.391000000000000236,-2.969197112408505923
0.392000000000000237,-2.900835995440461001
0.393000000000000238,-2.834491332231928951
0.394000000000000239,-2.770155482256969837
0.395000000000000240,-2.707819339750071386
0.396000000000000241,-2.647472385222085833
0.397000000000000242,-2.589102737057545678
0.398000000000000242,-2.532697203102047379
0.399000000000000243,-2.478241332153350740
0.400000000000000244,-2.425719465274652986
0.401000000000000245,-2.375114786853566251
0.402000000000000246,-2.326409375334562490
0.403000000000000247,-2.279584253557447759
0.404000000000000248,-2.234619438638756783
0.405000000000000249,-2.191493991337161162
0.406000000000000250,-2.150186064848125245
0.407000000000000250,-2.110672952977076466
0.408000000000000251,-2.072931137644099753
0.409000000000000252,-2.036936335677051346
0.410000000000000253,-2.002663544853327870
0.411000000000000254,-1.970087089154248350
0.412000000000000255,-1.939180663199048471
0.413000000000000256,-1.909917375828911856
0.414000000000000257,-1.882269792814267984
0.415000000000000258,-1.856209978661748750
0.416000000000000258,-1.831709537499780494
0.417000000000000259,-1.808739653024585392
0.418000000000000260,-1.787271127490878131
0.419000000000000261,-1.767274419733892099
0.420000000000000262,-1.748719682211830939
0.421000000000000263,-1.731576797059912520
0.422000000000000264,-1.715815411149219871
0.423000000000000265,-1.701404970145683482
0.424000000000000266,-1.688314751566301286
0.425000000000000266,-1.676513896831427264
0.426000000000000267,-1.665971442313650908
0.427000000000000268,-1.656656349385442484
0.428000000000000269,-1.648537533469026428
0.429000000000000270,-1.641583892093452679
0.430000000000000271,-1.635764331965145146
0.431000000000000272,-1.631047795059255234
0.432000000000000273,-1.627403283740449513
0.433000000000000274,-1.624799884922668580
0.434000000000000274,-1.623206793278467286
0.435000000000000275,-1.622593333509302793
0.436000000000000276,-1.622928981689115258
0.437000000000000277,-1.624183385694176085
0.438000000000000278,-1.626326384732912356
0.439000000000000279,-1.629328027990085470
0.440000000000000280,-1.633158592400177911
0.441000000000000281,-1.637788599565408010
0.442000000000000282,-1.643188831834313079
0.443000000000000282,-1.649330347557052434
0.444000000000000283,-1.656184495534196888
0.445000000000000284,-1.663722928675850365
0.446000000000000285,-1.671917616888326519
0.447000000000000286,-1.680740859205880344
0.448000000000000287,-1.690165295184989702
0.449000000000000288,-1.700163915579031793
0.450000000000000289,-1.710710072311205421
0.451000000000000290,-1.721777487763588299
0.452000000000000290,-1.733340263400383163
0.453000000000000291,-1.745372887743288803
0.454000000000000292,-1.757850243717024696
0.455000000000000293,-1.770747615382919360
0.456000000000000294,-1.784040694078452560
0.457000000000000295,-1.797705583980510280
0.458000000000000296,-1.811718807110088703
0.459000000000000297,-1.826057307795886597
0.460000000000000298,-1.840698456614322298
0.461000000000000298,-1.855620053823021420
0.462000000000000299,-1.870800332305009972
0.463000000000000300,-1.886217960040298181
0.464000000000000301,-1.901852042121598974
0.465000000000000302,-1.917682122330496286
0.466000000000000303,-1.933688184290358603
0.467000000000000304,-1.949850652211780666
0.468000000000000305,-1.966150391246353379
0.469000000000000306,-1.982568707464107849
0.470000000000000306,-1.999087347469783449
0.471000000000000307,-2.015688497672782908
0.472000000000000308,-2.032354783225425621
0.473000000000000309,-2.049069266643753551
0.474000000000000310,-2.065815446124868782
0.475000000000000311,-2.082577253574635634
0.476000000000000312,-2.099339052358947466
0.477000000000000313,-2.116085634791880388
0.478000000000000314,-2.132802219373369113
0.479000000000000314,-2.149474447789019305
0.480000000000000315,-2.166088381684169839
0.481000000000000316,-2.182630499224175402
0.482000000000000317,-2.199087691452423332
0.483000000000000318,-2.215447258457426738
0.484000000000000319,-2.231696905359944250
0.485000000000000320,-2.247824738130826283
0.486000000000000321,-2.263819259249972848
0.487000000000000322,-2.279669363216470845
0.488000000000000322,-2.295364331919739431
0.489000000000000323,-2.310893829881149220
0.490000000000000324,-2.326247899375359474
0.491000000000000325,-2.341416955440302594
0.492000000000000326,-2.356391780784438339
0.493000000000000327,-2.371163520599684382
0.494000000000000328,-2.385723677288092759
0.495000000000000329,-2.400064105110134793
0.496000000000000330,-2.414177004762100065
0.497000000000000330,-2.428054917889994169
0.498000000000000331,-2.441690721546898146
0.499000000000000332,-2.455077622600629450
0.500000000000000333,-2.468209152098231662
0.501000000000000334,-2.481079159593623018
0.502000000000000335,-2.493681807444410037
0.503000000000000336,-2.506011565083757109
0.504000000000000337,-2.518063203272881800
0.505000000000000338,-2.529831788339550691
0.506000000000000338,-2.541312676407741389
0.507000000000000339,-2.552501507623436083
0.508000000000000340,-2.563394200381233112
0.509000000000000341,-2.573986945556359096
0.510000000000000342,-2.584276200746374208
0.511000000000000343,-2.594258684526743686
0.512000000000000344,-2.603931370724182237
0.513000000000000345,-2.613291482711565195
0.514000000000000346,-2.622336487728005316
0.515000000000000346,-2.631064091227441448
0.516000000000000347,-2.639472231259037738
0.517000000000000348,-2.647559072882455844
0.518000000000000349,-2.655323002620870732
0.519000000000000350,-2.662762622954542024
0.520000000000000351,-2.669876746857511751
0.521000000000000352,-2.676664392379892288
0.522000000000000353,-2.683124777278044881
0.523000000000000353,-2.689257313694857654
0.524000000000000354,-2.695061602892135699
0.525000000000000355,-2.700537430037017295
0.526000000000000356,-2.705684759044207688
0.527000000000000357,-2.710503727475697566
0.528000000000000358,-2.714994641499521411
0.529000000000000359,-2.719157970908933741
0.530000000000000360,-2.722994344203413242
0.531000000000000361,-2.726504543732631625
0.532000000000000361,-2.729689500904560084
0.533000000000000362,-2.732550291458670788
0.534000000000000363,-2.735088130805226836
0.535000000000000364,-2.737304369431409867
0.536000000000000365,-2.739200488375090892
0.537000000000000366,-2.740778094766867845
0.538000000000000367,-2.742038917440932089
0.539000000000000368,-2.742984802615314965
0.540000000000000369,-2.743617709641851476
0.541000000000000369,-2.743939706826302505
0.542000000000000370,-2.743952967318824321
0.543000000000000371,-2.743659765075066925
0.544000000000000372,-2.743062470888020243
0.545000000000000373,-2.742163548490685887
0.546000000000000374,-2.740965550729636213
0.547000000000000375,-2.739471115809390067
0.548000000000000376,-2.737682963607587450
0.549000000000000377,-2.735603892060767262
0.550000000000000377,-2.733236773620614457
0.551000000000000378,-2.730584551780427915
0.552000000000000379,-2.727650237671573663
0.553000000000000380,-2.724436906729569507
0.554000000000000381,-2.720947695429472013
0.555000000000000382,-2.717185798090226534
0.556000000000000383,-2.713154463747441181
0.557000000000000384,-2.708856993094279630
0.558000000000000385,-2.704296735489848391
0.559000000000000385,-2.699477086034664630
0.560000000000000386,-2.694401482712589946
0.561000000000000387,-2.689073403598706058
0.562000000000000388,-2.683496364132508472
0.563000000000000389,-2.677673914455815041
0.564000000000000390,-2.671609636814727740
0.565000000000000391,-2.665307143025015257
0.566000000000000392,-2.658770072000220974
0.567000000000000393,-2.652002087341796432
0.568000000000000393,-2.645006874990550649
0.569000000000000394,-2.637788140938681192
0.570000000000000395,-2.630349609001687128
0.571000000000000396,-2.622695018649313425
0.572000000000000397,-2.614828122894885087
0.573000000000000398,-2.606752686242156170
0.574000000000000399,-2.598472482688937824
0.575000000000000400,-2.589991293786702009
0.576000000000000401,-2.581312906755346859
0.577000000000000401,-2.572441112652362083
0.578000000000000402,-2.563379704595512010
0.579000000000000403,-2.554132476038283084
0.580000000000000404,-2.544703219097257385
0.581000000000000405,-2.535095722930565287
0.582000000000000406,-2.525313772166628112
0.583000000000000407,-2.515361145382335017
0.584000000000000408,-2.505241613629862307
0.585000000000000409,-2.494958939011259869
0.586000000000000409,-2.484516873300016915
0.587000000000000410,-2.473919156608785475
0.588000000000000411,-2.463169516102384993
0.589000000000000412,-2.452271664755346858
0.590000000000000413,-2.441229300153097803
0.591000000000000414,-2.430046103336029439
0.592000000000000415,-2.418725737685619048
0.593000000000000416,-2.407271847851771618
0.594000000000000417,-2.395688058720619296
0.595000000000000417,-2.383977974421972679
0.596000000000000418,-2.372145177375573510
0.597000000000000419,-2.360193227375475100
0.598000000000000420,-2.348125660711642304
0.599000000000000421,-2.335945989328085837
0.600000000000000422,-2.323657700016731109
0.601000000000000423,-2.311264253646247102
0.602000000000000424,-2.298769084425098974
0.603000000000000425,-2.286175599198091213
0.604000000000000425,-2.273487176775601526
0.605000000000000426,-2.260707167294854436
0.606000000000000427,-2.247838891612452983
0.607000000000000428,-2.234885640727456213
0.608000000000000429,-2.221850675234335881
0.609000000000000430,-2.208737224805051191
0.610000000000000431,-2.195548487699619855
