# AuSphere1NM_VAL-AC
# h[nm],U(h)[kJ/mol]
0.149999999999999994,114.421598645002262629
0.150999999999999995,110.860122925623699075
0.151999999999999996,107.393801037145493638
0.152999999999999997,103.982196279625824786
0.153999999999999998,100.627825200543469464
0.154999999999999999,97.341735323059737084
0.156000000000000000,94.130588070173374149
0.157000000000000001,90.994100370780572007
0.158000000000000002,87.926721546118386641
0.159000000000000002,84.920409638363054228
0.160000000000000003,81.967083600891015749
0.161000000000000004,79.060258418981888440
0.162000000000000005,76.195835390035682622
0.163000000000000006,73.372218393052008878
0.164000000000000007,70.589981476867805554
0.165000000000000008,67.851296731140990914
0.166000000000000009,65.159286255421719147
0.167000000000000010,62.517410893137181915
0.168000000000000010,59.928962410290083085
0.169000000000000011,57.396689404708332916
0.170000000000000012,54.922561187045587872
0.171000000000000013,52.507657116929465246
0.172000000000000014,50.152159612822131862
0.173000000000000015,47.855425359752942427
0.174000000000000016,45.616109368826684545
0.175000000000000017,43.432319054325517982
0.176000000000000018,41.301779278696997721
0.177000000000000018,39.221993571536941658
0.178000000000000019,37.190390915735676458
0.179000000000000020,35.204451279463782498
0.180000000000000021,33.261806279731956693
0.181000000000000022,31.360313926108197791
0.182000000000000023,29.498108320651709846
0.183000000000000024,27.673626537192454578
0.184000000000000025,25.885615749697318932
0.185000000000000026,24.133124115493213679
0.186000000000000026,22.415479034242519418
0.187000000000000027,20.732256280909258095
0.188000000000000028,19.083243223525009569
0.189000000000000029,17.468398945711840042
0.190000000000000030,15.887813649124222337
0.191000000000000031,14.341669250518895851
0.192000000000000032,12.830202640306390904
0.193000000000000033,11.353672653822393102
0.194000000000000034,9.912331435698533255
0.195000000000000034,8.506400558406490120
0.196000000000000035,7.136051990705055914
0.197000000000000036,5.801393799474157120
0.198000000000000037,4.502460306124401512
0.199000000000000038,3.239206301782657782
0.200000000000000039,2.011504848272396284
0.201000000000000040,0.819148148661529740
0.202000000000000041,-0.338149044027088952
0.203000000000000042,-1.460744004065686052
0.204000000000000042,-2.549059095789659501
0.205000000000000043,-3.603573784218646381
0.206000000000000044,-4.624816010028301783
0.207000000000000045,-5.613353294341209221
0.208000000000000046,-6.569783885426038417
0.209000000000000047,-7.494728205944312549
0.210000000000000048,-8.388820807641959476
0.211000000000000049,-9.252702991672412836
0.212000000000000050,-10.087016208000227024
0.213000000000000050,-10.892396307166730907
0.214000000000000051,-11.669468682437939222
0.215000000000000052,-12.418844310101084361
0.216000000000000053,-13.141116670360281304
0.217000000000000054,-13.836859510700614706
0.218000000000000055,-14.506625397439298908
0.219000000000000056,-15.150944989092014481
0.220000000000000057,-15.770326956745728708
0.221000000000000058,-16.365258471405667251
0.222000000000000058,-16.936206175851499012
0.223000000000000059,-17.483617558458703911
0.224000000000000060,-18.007922648318903214
0.225000000000000061,-18.509535954445404116
0.226000000000000062,-18.988858576528841127
0.227000000000000063,-19.446280420302034742
0.228000000000000064,-19.882182456801444914
0.229000000000000065,-20.296938971436411236
0.230000000000000066,-20.690919755583440320
0.231000000000000066,-21.064492200240419351
0.232000000000000067,-21.418023257956775751
0.233000000000000068,-21.751881245684941746
0.234000000000000069,-22.066437467285176410
0.235000000000000070,-22.362067640090639742
0.236000000000000071,-22.639153115154858398
0.237000000000000072,-22.898081885529741442
0.238000000000000073,-23.139249381140910344
0.239000000000000073,-23.363059052536581106
0.240000000000000074,-23.569922748994194706
0.241000000000000075,-23.760260899188693884
0.242000000000000076,-23.934502504881386642
0.243000000000000077,-24.093084959905688436
0.244000000000000078,-24.236453708135542229
0.245000000000000079,-24.365061755157029211
0.246000000000000080,-24.479369049058803398
0.247000000000000081,-24.579841746146730230
0.248000000000000081,-24.666951377507306375
0.249000000000000082,-24.741173932226605103
0.250000000000000111,-24.802988872751132732
0.251000000000000112,-24.852878097381836398
0.252000000000000113,-24.891324864256446858
0.253000000000000114,-24.918812690419937184
0.254000000000000115,-24.935824238739023428
0.255000000000000115,-24.942840204502431334
0.256000000000000116,-24.940338212587271016
0.257000000000000117,-24.928791735081418324
0.258000000000000118,-24.908669038246802785
0.259000000000000119,-24.880432166705947594
0.260000000000000120,-24.844535971744061698
0.261000000000000121,-24.801427189652024197
0.262000000000000122,-24.751543575102182615
0.263000000000000123,-24.695313093653357583
0.264000000000000123,-24.633153176632671233
0.265000000000000124,-24.565470040840676091
0.266000000000000125,-24.492658074779662059
0.267000000000000126,-24.415099292411561294
0.268000000000000127,-24.333162854815547860
0.269000000000000128,-24.247204659535221083
0.270000000000000129,-24.157566996880923682
0.271000000000000130,-24.064578271984196078
0.272000000000000131,-23.968552790986564105
0.273000000000000131,-23.869790609381976054
0.274000000000000132,-23.768577440219200270
0.275000000000000133,-23.665184619606041139
0.276000000000000134,-23.559869126736277423
0.277000000000000135,-23.452873655482530779
0.278000000000000136,-23.344426734459894135
0.279000000000000137,-23.234742892362575617
0.280000000000000138,-23.124022865307814811
0.281000000000000139,-23.012453842883004995
0.282000000000000139,-22.900209749582284502
0.283000000000000140,-22.787451558333930990
0.284000000000000141,-22.674327632857131931
0.285000000000000142,-22.560974095644482418
0.286000000000000143,-22.447515218440820206
0.287000000000000144,-22.334063832178891573
0.288000000000000145,-22.220721753435341839
0.289000000000000146,-22.107580224583109896
0.290000000000000147,-21.994720364939361446
0.291000000000000147,-21.882213630337005839
0.292000000000000148,-21.770122278682741523
0.293000000000000149,-21.658499839203578574
0.294000000000000150,-21.547391583224715816
0.295000000000000151,-21.436834994464945225
0.296000000000000152,-21.326860236978099294
0.297000000000000153,-21.217490619011890374
0.298000000000000154,-21.108743051195460794
0.299000000000000155,-21.000628497605546841
0.300000000000000155,-20.893152418396098824
0.301000000000000156,-20.786315202807422509
0.302000000000000157,-20.680112591498343022
0.303000000000000158,-20.574536087267507156
0.304000000000000159,-20.469573353347698230
0.305000000000000160,-20.365208598569488174
0.306000000000000161,-20.261422948797950028
0.307000000000000162,-20.158194804147719026
0.308000000000000163,-20.055500181577780694
0.309000000000000163,-19.953313042557805801
0.310000000000000164,-19.851605605582488323
0.311000000000000165,-19.750348643389578740
0.312000000000000166,-19.649511764810760894
0.313000000000000167,-19.549063681252523139
0.314000000000000168,-19.448972457866972263
0.315000000000000169,-19.349205749529911458
0.316000000000000170,-19.249731021796012698
0.317000000000000171,-19.150515757048285792
0.318000000000000171,-19.051527646101988012
0.319000000000000172,-18.952734765561309871
0.320000000000000173,-18.854105741261189877
0.321000000000000174,-18.755609898156514248
0.322000000000000175,-18.657217397046757412
0.323000000000000176,-18.558899358546650404
0.324000000000000177,-18.460627974732112477
0.325000000000000178,-18.362376608906039621
0.326000000000000179,-18.264119883941539513
0.327000000000000179,-18.165833759669190783
0.328000000000000180,-18.067495599782173343
0.329000000000000181,-17.969084228737919773
0.330000000000000182,-17.870579979136280713
0.331000000000000183,-17.771964730055437087
0.332000000000000184,-17.673221936824020872
0.333000000000000185,-17.574336652705078166
0.334000000000000186,-17.475295542962062001
0.335000000000000187,-17.376086891770476939
0.336000000000000187,-17.276700602431397158
0.337000000000000188,-17.177128191333455476
0.338000000000000189,-17.077362776100638797
0.339000000000000190,-16.977399058352066419
0.340000000000000191,-16.877233301488004713
0.341000000000000192,-16.776863303905180658
0.342000000000000193,-16.676288368030192544
0.343000000000000194,-16.575509265548095783
0.344000000000000195,-16.474528199188345212
0.345000000000000195,-16.373348761417396702
0.346000000000000196,-16.271975890372594620
0.347000000000000197,-16.170415823358069929
0.348000000000000198,-16.068676048208999418
0.349000000000000199,-15.966765252816319531
0.350000000000000200,-15.864693273090001213
0.351000000000000201,-15.762471039624497138
0.352000000000000202,-15.660110523316413733
0.353000000000000203,-15.557624680170485831
0.354000000000000203,-15.455027395516484745
0.355000000000000204,-15.352333427846266645
0.356000000000000205,-15.249558352467426303
0.357000000000000206,-15.146718505157149792
0.358000000000000207,-15.043830925987379032
0.359000000000000208,-14.940913303480808594
0.360000000000000209,-14.837983919245175457
0.361000000000000210,-14.735061593222141596
0.362000000000000210,-14.632165629676332941
0.363000000000000211,-14.529315764039376191
0.364000000000000212,-14.426532110713875312
0.365000000000000213,-14.323835111932373465
0.366000000000000214,-14.221245487757244064
0.367000000000000215,-14.118784187298288657
0.368000000000000216,-14.016472341216754671
0.369000000000000217,-13.914331215575819201
0.370000000000000218,-13.812382167090429874
0.371000000000000218,-13.710646599821675551
0.372000000000000219,-13.609145923354054375
0.373000000000000220,-13.507901512487620721
0.374000000000000221,-13.406934668470478655
0.375000000000000222,-13.306266581791447834
0.376000000000000223,-13.205918296547290325
0.377000000000000224,-13.105910676393511594
0.378000000000000225,-13.006264372083276015
0.379000000000000226,-12.906999790594024802
0.380000000000000226,-12.808137065837831514
0.381000000000000227,-12.709696030946808776
0.382000000000000228,-12.611696192122231253
0.383000000000000229,-12.514156704031943690
0.384000000000000230,-12.417096346737894308
0.385000000000000231,-12.320533504133019065
0.386000000000000232,-12.224486143863748211
0.387000000000000233,-12.128971798712411712
0.388000000000000234,-12.034007549411542826
0.389000000000000234,-11.939610008860496393
0.390000000000000235,-11.845795307712553068
0.391000000000000236,-11.752579081299973751
0.392000000000000237,-11.659976457862423871
0.393000000000000238,-11.568002048043695140
0.394000000000000239,-11.476669935620160246
0.395000000000000240,-11.385993669424053110
0.396000000000000241,-11.295986256423686811
0.397000000000000242,-11.206660155922332223
0.398000000000000242,-11.118027274837194440
0.399000000000000243,-11.030098964019375174
0.400000000000000244,-10.942886015575812308
0.401000000000000245,-10.856398661154099017
0.402000000000000246,-10.770646571151036852
0.403000000000000247,-10.685638854805851850
0.404000000000000248,-10.601384061139530246
0.405000000000000249,-10.517890180701755298
0.406000000000000250,-10.435164648087292605
0.407000000000000250,-10.353214345184360567
0.408000000000000251,-10.272045605117691380
0.409000000000000252,-10.191664216849856572
0.410000000000000253,-10.112075430404734888
0.411000000000000254,-10.033283962677909784
0.412000000000000255,-9.955294003799254554
0.413000000000000256,-9.878109224013877920
0.414000000000000257,-9.801732781048110965
0.415000000000000258,-9.726167327928289197
0.416000000000000258,-9.651415021220660861
0.417000000000000259,-9.577477529661560851
0.418000000000000260,-9.504356043148147748
0.419000000000000261,-9.432051282060331943
0.420000000000000262,-9.360563506885871021
0.421000000000000263,-9.289892528121283632
0.422000000000000264,-9.220037716421943585
0.423000000000000265,-9.150998012975879448
0.424000000000000266,-9.082771940076598938
0.425000000000000266,-9.015357611871005261
0.426000000000000267,-8.948752745259458408
0.427000000000000268,-8.882954670925929719
0.428000000000000269,-8.817960344476995616
0.429000000000000270,-8.753766357669302778
0.430000000000000271,-8.690368949705964852
0.431000000000000272,-8.627764018583198080
0.432000000000000273,-8.565947132469357683
0.433000000000000274,-8.504913541099288210
0.434000000000000274,-8.444658187167737751
0.435000000000000275,-8.385175717706372822
0.436000000000000276,-8.326460495429691022
0.437000000000000277,-8.268506610035814219
0.438000000000000278,-8.211307889449040331
0.439000000000000279,-8.154857910991623271
0.440000000000000280,-8.099150012472902560
0.441000000000000281,-8.044177303184788741
0.442000000000000282,-7.989932674793107203
0.443000000000000282,-7.936408812114947864
0.444000000000000283,-7.883598203772942625
0.445000000000000284,-7.831493152717906803
0.446000000000000285,-7.780085786611711463
0.447000000000000286,-7.729368068063311448
0.448000000000000287,-7.679331804710753495
0.449000000000000288,-7.629968659143131049
0.450000000000000289,-7.581270158656566949
0.451000000000000290,-7.533227704838968641
0.452000000000000290,-7.485832582978820149
0.453000000000000291,-7.439075971293606315
0.454000000000000292,-7.392948949974067929
0.455000000000000293,-7.347442510040748331
0.456000000000000294,-7.302547562009879201
0.457000000000000295,-7.258254944365920558
0.458000000000000296,-7.214555431838486577
0.459000000000000297,-7.171439743481807128
0.460000000000000298,-7.128898550555125446
0.461000000000000298,-7.086922484202806238
0.462000000000000299,-7.045502142933362855
0.463000000000000300,-7.004628099896612170
0.464000000000000301,-6.964290909958829268
0.465000000000000302,-6.924481116575760709
0.466000000000000303,-6.885189258463737971
0.467000000000000304,-6.846405876069336038
0.468000000000000305,-6.808121517838335635
0.469000000000000306,-6.770326746284784925
0.470000000000000306,-6.733012143861463628
0.471000000000000307,-6.696168318632830463
0.472000000000000308,-6.659785909752199196
0.473000000000000309,-6.623855592744621212
0.474000000000000310,-6.588368084597403751
0.475000000000000311,-6.553314148660211558
0.476000000000000312,-6.518684599356944886
0.477000000000000313,-6.484470306711489052
0.478000000000000314,-6.450662200689881054
0.479000000000000314,-6.417251275361297580
0.480000000000000315,-6.384228592880400122
0.481000000000000316,-6.351585287293854520
0.482000000000000317,-6.319312568173651279
0.483000000000000318,-6.287401724080147858
0.484000000000000319,-6.255844125857728422
0.485000000000000320,-6.224631229766073304
0.486000000000000321,-6.193754580450052671
0.487000000000000322,-6.163205813751330808
0.488000000000000322,-6.132976659364797634
0.489000000000000323,-6.103058943343039999
0.490000000000000324,-6.073444590451980041
0.491000000000000325,-6.044125626380984606
0.492000000000000326,-6.015094179810555275
0.493000000000000327,-5.986342484341026449
0.494000000000000328,-5.957862880285392571
0.495000000000000329,-5.929647816329636001
0.496000000000000330,-5.901689851063759207
0.497000000000000330,-5.873981654386867035
0.498000000000000331,-5.846516008789494734
0.499000000000000332,-5.819285810516514168
0.500000000000000333,-5.792284070613789027
0.501000000000000334,-5.765503915861867945
0.502000000000000335,-5.738938589599898776
0.503000000000000336,-5.712581452442949903
0.504000000000000337,-5.686425982895931597
0.505000000000000338,-5.660465777867194959
0.506000000000000338,-5.634694553084983681
0.507000000000000339,-5.609106143419762880
0.508000000000000340,-5.583694503115487429
0.509000000000000341,-5.558453705932825173
0.510000000000000342,-5.533377945207272219
0.511000000000000343,-5.508461533825119716
0.512000000000000344,-5.483698904120148931
0.513000000000000345,-5.459084607693879043
0.514000000000000346,-5.434613315162247105
0.515000000000000346,-5.410279815831373185
0.516000000000000347,-5.386079017305197780
0.517000000000000348,-5.362005945027692455
0.518000000000000349,-5.338055741762129713
0.519000000000000350,-5.314223667010145036
0.520000000000000351,-5.290505096373037119
0.521000000000000352,-5.266895520857782564
0.522000000000000353,-5.243390546130234142
0.523000000000000353,-5.219985891717819904
0.524000000000000354,-5.196677390164193611
0.525000000000000355,-5.173460986137953022
0.526000000000000356,-5.150332735497807235
0.527000000000000357,-5.127288804316306070
0.528000000000000358,-5.104325467864271992
0.529000000000000359,-5.081439109558006706
0.530000000000000360,-5.058626219871344531
0.531000000000000361,-5.035883395214504787
0.532000000000000361,-5.013207336781695389
0.533000000000000362,-4.990594849369320407
0.534000000000000363,-4.968042840166707386
0.535000000000000364,-4.945548317521034853
0.536000000000000365,-4.923108389678295893
0.537000000000000366,-4.900720263501963103
0.538000000000000367,-4.878381243170943016
0.539000000000000368,-4.856088728858552805
0.540000000000000369,-4.833840215393916395
0.541000000000000369,-4.811633290907421312
0.542000000000000370,-4.789465635461622739
0.543000000000000371,-4.767335019669038942
0.544000000000000372,-4.745239303298218303
0.545000000000000373,-4.723176433869415547
0.546000000000000374,-4.701144445241136616
0.547000000000000375,-4.679141456188828485
0.548000000000000376,-4.657165668976940509
0.549000000000000377,-4.635215367925474617
0.550000000000000377,-4.613288917972176328
0.551000000000000378,-4.591384763231451061
0.552000000000000379,-4.569501425551091067
0.553000000000000380,-4.547637503067747389
0.554000000000000381,-4.525791668762171760
0.555000000000000382,-4.503962669015220577
0.556000000000000383,-4.482149322165353666
0.557000000000000384,-4.460350517068715881
0.558000000000000385,-4.438565211662435672
0.559000000000000385,-4.416792431532096330
0.560000000000000386,-4.395031268484025588
0.561000000000000387,-4.373280879123226939
0.562000000000000388,-4.351540483437604578
0.563000000000000389,-4.329809363389183652
0.564000000000000390,-4.308086861512931520
0.565000000000000391,-4.286372379523855969
0.566000000000000392,-4.264665376932894603
0.567000000000000393,-4.242965369672227816
0.568000000000000393,-4.221271928730452316
0.569000000000000394,-4.199584678798211179
0.570000000000000395,-4.177903296924729837
0.571000000000000396,-4.156227511185647039
0.572000000000000397,-4.134557099362691446
0.573000000000000398,-4.112891887635485411
0.574000000000000399,-4.091231749285952013
0.575000000000000400,-4.069576603415628213
0.576000000000000401,-4.047926413676226076
0.577000000000000401,-4.026281187013818652
0.578000000000000402,-4.004640972426851242
0.579000000000000403,-3.983005859738315557
0.580000000000000404,-3.961375978382351892
0.581000000000000405,-3.939751496205468051
0.582000000000000406,-3.918132618282633928
0.583000000000000407,-3.896519585748431158
0.584000000000000408,-3.874912674643463895
0.585000000000000409,-3.853312194776176369
0.586000000000000409,-3.831718488600228234
0.587000000000000410,-3.810131930107607534
0.588000000000000411,-3.788552923737527944
0.589000000000000412,-3.766981903301290568
0.590000000000000413,-3.745419330923148493
0.591000000000000414,-3.723865695997285563
0.592000000000000415,-3.702321514160976879
0.593000000000000416,-3.680787326283941674
0.594000000000000417,-3.659263697473979171
0.595000000000000417,-3.637751216098939810
0.596000000000000418,-3.616250492824907958
0.597000000000000419,-3.594762159670830126
0.598000000000000420,-3.573286869079367101
0.599000000000000421,-3.551825293004102768
0.600000000000000422,-3.530378122013020370
0.601000000000000423,-3.508946064408235976
0.602000000000000424,-3.487529845361942993
0.603000000000000425,-3.466130206068538833
0.604000000000000425,-3.444747902912823179
0.605000000000000426,-3.423383706654276715
0.606000000000000427,-3.402038401627319075
0.607000000000000428,-3.380712784957399464
0.608000000000000429,-3.359407665792986108
