# AuSphere1NM_13THIAZOLE-AC
# h[nm],U(h)[kJ/mol]
0.149999999999999994,88.968778403767714735
0.150999999999999995,86.796998291826071181
0.151999999999999996,83.388799550373732927
0.152999999999999997,79.808180929553969918
0.153999999999999998,76.442180822576744958
0.154999999999999999,73.357300765004623599
0.156000000000000000,70.493890422731510625
0.157000000000000001,67.764152737554269379
0.158000000000000002,65.095122154039145812
0.159000000000000002,62.442043961945650210
0.160000000000000003,59.787305468132025510
0.161000000000000004,57.133560148401784318
0.162000000000000005,54.495660132899658379
0.163000000000000006,51.893600318277819383
0.164000000000000007,49.347295073264739074
0.165000000000000008,46.873268286517017600
0.166000000000000009,44.482985602642038714
0.167000000000000010,42.182430723088330637
0.168000000000000010,39.972522681717748583
0.169000000000000011,37.850025019503128476
0.170000000000000012,35.808673702216779589
0.171000000000000013,33.840327908512293220
0.172000000000000014,31.936016193479815684
0.173000000000000015,30.086805890788291151
0.174000000000000016,28.284465342550287659
0.175000000000000017,26.521917854794033076
0.176000000000000018,24.793505185896655973
0.177000000000000018,23.095089107884927415
0.178000000000000019,21.424024236027186419
0.179000000000000020,19.779035720963580758
0.180000000000000021,18.160033025532889894
0.181000000000000022,16.567887019742141064
0.182000000000000023,15.004192878005360612
0.183000000000000024,13.471036356681249657
0.184000000000000025,11.970776367518229932
0.185000000000000026,10.505852586816661898
0.186000000000000026,9.078623276596859526
0.187000000000000027,7.691235584739557041
0.188000000000000028,6.345528321059424215
0.189000000000000029,5.042965524798318278
0.190000000000000030,3.784597975061395836
0.191000000000000031,2.571049069362194128
0.192000000000000032,1.402521125775700650
0.193000000000000033,0.278818074464524834
0.194000000000000034,-0.800619374919264049
0.195000000000000034,-1.836669732808152933
0.196000000000000035,-2.830481169644759376
0.197000000000000036,-3.783419243013566469
0.198000000000000037,-4.697014308366287416
0.199000000000000038,-5.572910560631535226
0.200000000000000039,-6.412818224825935332
0.201000000000000040,-7.218470017373526559
0.202000000000000041,-7.991582644332959617
0.203000000000000042,-8.733823792503816463
0.204000000000000042,-9.446784805886148106
0.205000000000000043,-10.131959022446704211
0.206000000000000044,-10.790725572269774801
0.207000000000000045,-11.424338304523448784
0.208000000000000046,-12.033919413183046032
0.209000000000000047,-12.620457265707424099
0.210000000000000048,-13.184807900364535982
0.211000000000000049,-13.727699642248126111
0.212000000000000050,-14.249740291054241226
0.213000000000000050,-14.751426351544106197
0.214000000000000051,-15.233153806842793188
0.215000000000000052,-15.695229972239113536
0.216000000000000053,-16.137886010302157302
0.217000000000000054,-16.561289734649704997
0.218000000000000055,-16.965558377708784832
0.219000000000000056,-17.350771045759209699
0.220000000000000057,-17.716980631231926679
0.221000000000000058,-18.064224996699230985
0.222000000000000058,-18.392537286561260856
0.223000000000000059,-18.701955260615079624
0.224000000000000060,-18.992529578195252782
0.225000000000000061,-19.264330992247892027
0.226000000000000062,-19.517456439513857447
0.227000000000000063,-19.752034036024419095
0.228000000000000064,-19.968227006496199749
0.229000000000000065,-20.166236592156327134
0.230000000000000066,-20.346303994271327298
0.231000000000000066,-20.508711420465921549
0.232000000000000067,-20.653782308079733809
0.233000000000000068,-20.781880803611244346
0.234000000000000069,-20.893410580022965917
0.235000000000000070,-20.988813074608625442
0.236000000000000071,-21.068565229515819226
0.237000000000000072,-21.133176815126955006
0.238000000000000073,-21.183187413556826328
0.239000000000000073,-21.219163135739339765
0.240000000000000074,-21.241693141140888912
0.241000000000000075,-21.251386024224231619
0.242000000000000076,-21.248866126546072763
0.243000000000000077,-21.234769827937256537
0.244000000000000078,-21.209741864700092151
0.245000000000000079,-21.174431717259405872
0.246000000000000080,-21.129490104305254761
0.247000000000000081,-21.075565615231358407
0.248000000000000081,-21.013301507657956790
0.249000000000000082,-20.943332692073639123
0.250000000000000111,-20.866282921167705666
0.251000000000000112,-20.782762197275744143
0.252000000000000113,-20.693364407540183691
0.253000000000000114,-20.598665192900618592
0.254000000000000115,-20.499220053878548953
0.255000000000000115,-20.395562693302146329
0.256000000000000116,-20.288203593622036180
0.257000000000000117,-20.177628824287314302
0.258000000000000118,-20.064299072767742160
0.259000000000000119,-19.948648891208222267
0.260000000000000120,-19.831086149367756377
0.261000000000000121,-19.711991683408140119
0.262000000000000122,-19.591719129240207309
0.263000000000000123,-19.470594928487251707
0.264000000000000123,-19.348918494667955770
0.265000000000000124,-19.226962526916118179
0.266000000000000125,-19.104973458423607724
0.267000000000000126,-18.983172026798030174
0.268000000000000127,-18.861753953652769411
0.269000000000000128,-18.740890720975990291
0.270000000000000129,-18.620730432144824817
0.271000000000000130,-18.501398745844927163
0.272000000000000131,-18.382999871613176168
0.273000000000000131,-18.265617616229107512
0.274000000000000132,-18.149316470728763306
0.275000000000000133,-18.034142728393298682
0.276000000000000134,-17.920125624664080988
0.277000000000000135,-17.807278490549656169
0.278000000000000136,-17.695599911709440022
0.279000000000000137,-17.585074886018798423
0.280000000000000138,-17.475675973035230015
0.281000000000000139,-17.367364429389485991
0.282000000000000139,-17.260091324716867689
0.283000000000000140,-17.153798633316760913
0.284000000000000141,-17.048420297282159908
0.285000000000000142,-16.943883257371460616
0.286000000000000143,-16.840108448401387875
0.287000000000000144,-16.737011756420859143
0.288000000000000145,-16.634504935379837320
0.289000000000000146,-16.532496481434293401
0.290000000000000147,-16.430892463427777983
0.291000000000000147,-16.329597308461924143
0.292000000000000148,-16.228514541812682381
0.293000000000000149,-16.127547480766157406
0.294000000000000150,-16.026599882238706130
0.295000000000000151,-15.925576544311056182
0.296000000000000152,-15.824383862045593219
0.297000000000000153,-15.722930338172460552
0.298000000000000154,-15.621127049422067756
0.299000000000000155,-15.518888069452970058
0.300000000000000155,-15.416130849473230313
0.301000000000000156,-15.312776557783768894
0.302000000000000157,-15.208750379583312551
0.303000000000000158,-15.103981778468323682
0.304000000000000159,-14.998404721139042550
0.305000000000000160,-14.891957866884705908
0.306000000000000161,-14.784584723469549772
0.307000000000000162,-14.676233771076301338
0.308000000000000163,-14.566858555987073132
0.309000000000000163,-14.456417755694214833
0.310000000000000164,-14.344875217136067391
0.311000000000000165,-14.232199969745945367
0.312000000000000166,-14.118366214988572693
0.313000000000000167,-14.003353294035985499
0.314000000000000168,-13.887145635207176042
0.315000000000000169,-13.769732682761755882
0.316000000000000170,-13.651108808599460076
0.317000000000000171,-13.531273208374315686
0.318000000000000171,-13.410229783485750232
0.319000000000000172,-13.287987010359657347
0.320000000000000173,-13.164557798380148057
0.321000000000000174,-13.039959337779018611
0.322000000000000175,-12.914212938734298319
0.323000000000000176,-12.787343862872919686
0.324000000000000177,-12.659381148315045351
0.325000000000000178,-12.530357429340089226
0.326000000000000179,-12.400308751696950793
0.327000000000000179,-12.269274384523344068
0.328000000000000180,-12.137296629782255764
0.329000000000000181,-12.004420630067809128
0.330000000000000182,-11.870694175576707252
0.331000000000000183,-11.736167510988421370
0.332000000000000184,-11.600893142943414560
0.333000000000000185,-11.464925648757922971
0.334000000000000186,-11.328321486963522702
0.335000000000000187,-11.191138810211343824
0.336000000000000187,-11.053437281034382167
0.337000000000000188,-10.915277890915890069
0.338000000000000189,-10.776722783069255129
0.339000000000000190,-10.637835079292878859
0.340000000000000191,-10.498678711224204818
0.341000000000000192,-10.359318256279678394
0.342000000000000193,-10.219818778530804337
0.343000000000000194,-10.080245674733298245
0.344000000000000195,-9.940664525693449605
0.345000000000000195,-9.801140953125795363
0.346000000000000196,-9.661740482127409990
0.347000000000000197,-9.522528409367156499
0.348000000000000198,-9.383569677063182013
0.349000000000000199,-9.244928752798173832
0.350000000000000200,-9.106669515200115583
0.351000000000000201,-8.968855145495671977
0.352000000000000202,-8.831548024924639861
0.353000000000000203,-8.694809637986276485
0.354000000000000203,-8.558700481472337529
0.355000000000000204,-8.423279979226887093
0.356000000000000205,-8.288606402559691944
0.357000000000000206,-8.154736796227513906
0.358000000000000207,-8.021726909886874424
0.359000000000000208,-7.889631134911847532
0.360000000000000209,-7.758502446461578828
0.361000000000000210,-7.628392350674488398
0.362000000000000210,-7.499350836859140834
0.363000000000000211,-7.371426334545894576
0.364000000000000212,-7.244665675258350923
0.365000000000000213,-7.119114058859098648
0.366000000000000214,-6.994815024321047403
0.367000000000000215,-6.871810424772428760
0.368000000000000216,-6.750140406661619963
0.369000000000000217,-6.629843392886206388
0.370000000000000218,-6.510956069729769702
0.371000000000000218,-6.393513377449396629
0.372000000000000219,-6.277548504356838421
0.373000000000000220,-6.163092884236858637
0.374000000000000221,-6.050176196947110618
0.375000000000000222,-5.938826372045078905
0.376000000000000223,-5.829069595289358752
0.377000000000000224,-5.720930317864374004
0.378000000000000225,-5.614431268179929546
0.379000000000000226,-5.509593466099333092
0.380000000000000226,-5.406436239452717452
0.381000000000000227,-5.304977242694818074
0.382000000000000228,-5.205232477569888161
0.383000000000000229,-5.107216315649368177
0.384000000000000230,-5.010941522611423338
0.385000000000000231,-4.916419284135083778
0.386000000000000232,-4.823659233285068737
0.387000000000000233,-4.732669479267213930
0.388000000000000234,-4.643456637438107215
0.389000000000000234,-4.556025860456409227
0.390000000000000235,-4.470380870466891921
0.391000000000000236,-4.386523992212485012
0.392000000000000237,-4.304456186972983822
0.393000000000000238,-4.224177087233401906
0.394000000000000239,-4.145685031988342928
0.395000000000000240,-4.068977102592930883
0.396000000000000241,-3.994049159074383404
0.397000000000000242,-3.920895876822152903
0.398000000000000242,-3.849510783578296014
0.399000000000000243,-3.779886296653267586
0.400000000000000244,-3.712013760295901132
0.401000000000000245,-3.645883483150151871
0.402000000000000246,-3.581484775734201431
0.403000000000000247,-3.518805987881175490
0.404000000000000248,-3.457834546084039395
0.405000000000000249,-3.398556990690354329
0.406000000000000250,-3.340959012895754032
0.407000000000000250,-3.285025491488151594
0.408000000000000251,-3.230740529297517760
0.409000000000000252,-3.178087489309163960
0.410000000000000253,-3.127049030401030549
0.411000000000000254,-3.077607142668457030
0.412000000000000255,-3.029743182302309101
0.413000000000000256,-2.983437905989092531
0.414000000000000257,-2.938671504803915813
0.415000000000000258,-2.895423637569764175
0.416000000000000258,-2.853673463658636500
0.417000000000000259,-2.813399675212380213
0.418000000000000260,-2.774580528763197051
0.419000000000000261,-2.737193876235653356
0.420000000000000262,-2.701217195314205899
0.421000000000000263,-2.666627619161937357
0.422000000000000264,-2.633401965477936812
0.423000000000000265,-2.601516764882628951
0.424000000000000266,-2.570948288621853095
0.425000000000000266,-2.541672575582017313
0.426000000000000267,-2.513665458610138792
0.427000000000000268,-2.486902590134072888
0.428000000000000269,-2.461359467079356822
0.429000000000000270,-2.437011455080518196
0.430000000000000271,-2.413833811985808264
0.431000000000000272,-2.391801710655427904
0.432000000000000273,-2.370890261054391601
0.433000000000000274,-2.351074531642169951
0.434000000000000274,-2.332329570062176227
0.435000000000000275,-2.314630423135014325
0.436000000000000276,-2.297952156160281145
0.437000000000000277,-2.282269871532408789
0.438000000000000278,-2.267558726676797143
0.439000000000000279,-2.253793951313177502
0.440000000000000280,-2.240950864053639968
0.441000000000000281,-2.229004888343452784
0.442000000000000282,-2.217931567753309796
0.443000000000000282,-2.207706580632009974
0.444000000000000283,-2.198305754129171952
0.445000000000000284,-2.189705077597875693
0.446000000000000285,-2.181880715387480851
0.447000000000000286,-2.174809019037350133
0.448000000000000287,-2.168466538882227290
0.449000000000000288,-2.162830035080577140
0.450000000000000289,-2.157876488077206112
0.451000000000000290,-2.153583108511759381
0.452000000000000290,-2.149927346584885157
0.453000000000000291,-2.146886900893946848
0.454000000000000292,-2.144439726750323238
0.455000000000000293,-2.142564043990388800
0.456000000000000294,-2.141238344292401230
0.457000000000000295,-2.140441398011462049
0.458000000000000296,-2.140152260544905261
0.459000000000000297,-2.140350278240293669
0.460000000000000298,-2.141015093858371632
0.461000000000000298,-2.142126651603105003
0.462000000000000299,-2.143665201731136172
0.463000000000000300,-2.145611304752664150
0.464000000000000301,-2.147945835235895551
0.465000000000000302,-2.150649985226999128
0.466000000000000303,-2.153705267297513881
0.467000000000000304,-2.157093517230875612
0.468000000000000305,-2.160796896359842734
0.469000000000000306,-2.164797893566270837
0.470000000000000306,-2.169079326954645559
0.471000000000000307,-2.173624345210632747
0.472000000000000308,-2.178416428655744586
0.473000000000000309,-2.183439390009031644
0.474000000000000310,-2.188677374866558001
0.475000000000000311,-2.194114861909350900
0.476000000000000312,-2.199736662850092728
0.477000000000000313,-2.205527922128938556
0.478000000000000314,-2.211474116368413068
0.479000000000000314,-2.217561053597322474
0.480000000000000315,-2.223774872253300394
0.481000000000000316,-2.230102039973513861
0.482000000000000317,-2.236529352182780706
0.483000000000000318,-2.243043930488216375
0.484000000000000319,-2.249633220889256879
0.485000000000000320,-2.256284991811794871
0.486000000000000321,-2.262987331974886551
0.487000000000000322,-2.269728648098311208
0.488000000000000322,-2.276497662459101345
0.489000000000000323,-2.283283410304877137
0.490000000000000324,-2.290075237131731001
0.491000000000000325,-2.296862795834106130
0.492000000000000326,-2.303636043733960026
0.493000000000000327,-2.310385239496325571
0.494000000000000328,-2.317100939938125936
0.495000000000000329,-2.323773996737004133
0.496000000000000330,-2.330395553046595847
0.497000000000000330,-2.336957040024638221
0.498000000000000331,-2.343450173280000381
0.499000000000000332,-2.349866949244578063
0.500000000000000333,-2.356199641475838380
0.501000000000000334,-2.362440796895577400
0.502000000000000335,-2.368583231970278202
0.503000000000000336,-2.374620028838317687
0.504000000000000337,-2.380544531389052310
0.505000000000000338,-2.386350341298675737
0.506000000000000338,-2.392031314027536659
0.507000000000000339,-2.397581554783505986
0.508000000000000340,-2.402995414455735279
0.509000000000000341,-2.408267485523051477
0.510000000000000342,-2.413392597941069972
0.511000000000000343,-2.418365815011912723
0.512000000000000344,-2.423182429240346103
0.513000000000000345,-2.427837958179893452
0.514000000000000346,-2.432328140272491002
0.515000000000000346,-2.436648930684937486
0.516000000000000347,-2.440796497145386823
0.517000000000000348,-2.444767215782964964
0.518000000000000349,-2.448557666973397495
0.519000000000000350,-2.452164631193492816
0.520000000000000351,-2.455585084887187186
0.521000000000000352,-2.458816196345659399
0.522000000000000353,-2.461855321603992230
0.523000000000000353,-2.464700000356729426
0.524000000000000354,-2.467347951894517166
0.525000000000000355,-2.469797071063944749
0.526000000000000356,-2.472045424252599766
0.527000000000000357,-2.474091245401223382
0.528000000000000358,-2.475932932044803358
0.529000000000000359,-2.477569041384223514
0.530000000000000360,-2.478998286390182493
0.531000000000000361,-2.480219531940819344
0.532000000000000361,-2.481231790994519848
0.533000000000000362,-2.482034220799196778
0.534000000000000363,-2.482626119139363929
0.535000000000000364,-2.483006920622124802
0.536000000000000365,-2.483176193003196364
0.537000000000000366,-2.483133633553998187
0.538000000000000367,-2.482879065470733781
0.539000000000000368,-2.482412434326362494
0.540000000000000369,-2.481733804566250701
0.541000000000000369,-2.480843356048272774
0.542000000000000370,-2.479741380628000424
0.543000000000000371,-2.478428278789636785
0.544000000000000372,-2.476904556323231699
0.545000000000000373,-2.475170821048680025
0.546000000000000374,-2.473227779586953723
0.547000000000000375,-2.471076234178942066
0.548000000000000376,-2.468717079552286808
0.549000000000000377,-2.466151299836435218
0.550000000000000377,-2.463379965526216075
0.551000000000000378,-2.460404230494097177
0.552000000000000379,-2.457225329051310414
0.553000000000000380,-2.453844573057929690
0.554000000000000381,-2.450263349081990505
0.555000000000000382,-2.446483115607701819
0.556000000000000383,-2.442505400292696915
0.557000000000000384,-2.438331797274355672
0.558000000000000385,-2.433963964525068135
0.559000000000000385,-2.429403621256382095
0.560000000000000386,-2.424652545371857482
0.561000000000000387,-2.419712570968519216
0.562000000000000388,-2.414585585886667829
0.563000000000000389,-2.409273529307865758
0.564000000000000390,-2.403778389400841320
0.565000000000000391,-2.398102201015049229
0.566000000000000392,-2.392247043421614983
0.567000000000000393,-2.386215038101333619
0.568000000000000393,-2.380008346579389755
0.569000000000000394,-2.373629168306483184
0.570000000000000395,-2.367079738585978532
0.571000000000000396,-2.360362326546658451
0.572000000000000397,-2.353479233160756134
0.573000000000000398,-2.346432789306789779
0.574000000000000399,-2.339225353876794422
0.575000000000000400,-2.331859311927528378
0.576000000000000401,-2.324337072875153787
0.577000000000000401,-2.316661068732995155
0.578000000000000402,-2.308833752391826533
0.579000000000000403,-2.300857595942265466
0.580000000000000404,-2.292735089038743901
0.581000000000000405,-2.284468737304570674
0.582000000000000406,-2.276061060777572642
0.583000000000000407,-2.267514592395783346
0.584000000000000408,-2.258831876522707560
0.585000000000000409,-2.250015467511559120
0.586000000000000409,-2.241067928308003054
0.587000000000000410,-2.231991829090857138
0.588000000000000411,-2.222789745950157769
0.589000000000000412,-2.213464259602141659
0.590000000000000413,-2.204017954140499391
0.591000000000000414,-2.194453415823425679
0.592000000000000415,-2.184773231895890788
0.593000000000000416,-2.174979989446559792
0.594000000000000417,-2.165076274298857406
0.595000000000000417,-2.155064669935588650
0.596000000000000418,-2.144947756456561105
0.597000000000000419,-2.134728109568712284
0.598000000000000420,-2.124408299608096407
0.599000000000000421,-2.113990890593286931
0.600000000000000422,-2.103478439309566017
0.601000000000000423,-2.092873494423397762
0.602000000000000424,-2.082178595626618556
0.603000000000000425,-2.071396272809841843
0.604000000000000425,-2.060529045264473336
0.605000000000000426,-2.049579420912863714
0.606000000000000427,-2.038549895566043269
0.607000000000000428,-2.027442952208489579
0.608000000000000429,-2.016261060309437525
0.609000000000000430,-2.005006675160175611
