# AuSphere1NM_1HIMIDAZOLE-AC
# h[nm],U(h)[kJ/mol]
0.149999999999999994,80.541091468426159850
0.150999999999999995,78.886674776622342620
0.151999999999999996,75.567084589042750054
0.152999999999999997,72.039980482561162489
0.153999999999999998,68.813109196057752115
0.154999999999999999,65.955005297403801023
0.156000000000000000,63.369013446449187654
0.157000000000000001,60.928285496177352343
0.158000000000000002,58.532630051167345187
0.159000000000000002,56.124205726772970593
0.160000000000000003,53.683782925669035535
0.161000000000000004,51.219736017755863600
0.162000000000000005,48.756090630023379617
0.163000000000000006,46.322509591350765845
0.164000000000000007,43.947170901441722890
0.165000000000000008,41.652489968365308926
0.166000000000000009,39.453189287493749760
0.167000000000000010,37.356081980317156876
0.168000000000000010,35.360962338530825377
0.169000000000000011,33.462097261401282822
0.170000000000000012,31.649935882462024495
0.171000000000000013,29.912773338939622647
0.172000000000000014,28.238205719463234544
0.173000000000000015,26.614292440406064344
0.174000000000000016,25.030400036690469534
0.175000000000000017,23.477740291912105874
0.176000000000000018,21.949639328716003206
0.177000000000000018,20.441586352458816833
0.178000000000000019,18.951114457911156563
0.179000000000000020,17.477564009996523708
0.180000000000000021,16.021773766667461558
0.181000000000000022,14.585737762994801514
0.182000000000000023,13.172258196081575221
0.183000000000000024,11.784616936944370735
0.184000000000000025,10.426281346990178278
0.185000000000000026,9.100654068151190046
0.186000000000000026,7.810871500498519637
0.187000000000000027,6.559651781582376273
0.188000000000000028,5.349190168687987246
0.189000000000000029,4.181097687874943958
0.190000000000000030,3.056377621401002109
0.191000000000000031,1.975433722534976955
0.192000000000000032,0.938103843796633141
0.193000000000000033,-0.056287177197162030
0.194000000000000034,-1.008861114544101767
0.195000000000000034,-1.921111588425571615
0.196000000000000035,-2.794825408372283881
0.197000000000000036,-3.632003771646264312
0.198000000000000037,-4.434786339447630787
0.199000000000000038,-5.205380523221720068
0.200000000000000039,-5.945997677597067543
0.201000000000000040,-6.658797328952486438
0.202000000000000041,-7.345840076373066907
0.203000000000000042,-8.009049386912426627
0.204000000000000042,-8.650182168025365215
0.205000000000000043,-9.270807732517596378
0.206000000000000044,-9.872294569371515394
0.207000000000000045,-10.455804190281702049
0.208000000000000046,-11.022291229114337341
0.209000000000000047,-11.572508922153314614
0.210000000000000048,-12.107019083511852742
0.211000000000000049,-12.626205705519385702
0.212000000000000050,-13.130291351882425133
0.213000000000000050,-13.619355566274524705
0.214000000000000051,-14.093354585759731989
0.215000000000000052,-14.552141722822735659
0.216000000000000053,-14.995487858179846086
0.217000000000000054,-15.423101566031656162
0.218000000000000055,-15.834648471628042898
0.219000000000000056,-16.229769516113858430
0.220000000000000057,-16.608097874240407066
0.221000000000000058,-16.969274335687362765
0.222000000000000058,-17.312961019819717023
0.223000000000000059,-17.638853346352821205
0.224000000000000060,-17.946690230507805097
0.225000000000000061,-18.236262510882468746
0.226000000000000062,-18.507419651657233572
0.227000000000000063,-18.760074788231687393
0.228000000000000064,-18.994208207348570738
0.229000000000000065,-19.209869369669227979
0.230000000000000066,-19.407177595101952505
0.231000000000000066,-19.586321539455632035
0.232000000000000067,-19.747557595691198173
0.233000000000000068,-19.891207354658412498
0.234000000000000069,-20.017654259198419453
0.235000000000000070,-20.127339582297970821
0.236000000000000071,-20.220757855002581493
0.237000000000000072,-20.298451863402682704
0.238000000000000073,-20.361007326529680483
0.239000000000000073,-20.409047358736138733
0.240000000000000074,-20.443226811346924876
0.241000000000000075,-20.464226579282328800
0.242000000000000076,-20.472747949165171377
0.243000000000000077,-20.469507056296691871
0.244000000000000078,-20.455229508956353612
0.245000000000000079,-20.430645229859141665
0.246000000000000080,-20.396483556380189839
0.247000000000000081,-20.353468633395927156
0.248000000000000081,-20.302315125344183144
0.249000000000000082,-20.243724267404410000
0.250000000000000111,-20.178380269565288074
0.251000000000000112,-20.106947081785026654
0.252000000000000113,-20.030065523461079380
0.253000000000000114,-19.948350775996608775
0.254000000000000115,-19.862390233367865022
0.255000000000000115,-19.772741702233545880
0.256000000000000116,-19.679931940260903644
0.257000000000000117,-19.584455518942611718
0.258000000000000118,-19.486773995212040234
0.259000000000000119,-19.387315374600589735
0.260000000000000120,-19.286473847485236632
0.261000000000000121,-19.184609779113241501
0.262000000000000122,-19.082049933533291153
0.263000000000000123,-18.979087911273289535
0.264000000000000123,-18.875984780556628095
0.265000000000000124,-18.772969882008382569
0.266000000000000125,-18.670241787145915424
0.267000000000000126,-18.567969391444918870
0.268000000000000127,-18.466293123400994602
0.269000000000000128,-18.365326251743134378
0.270000000000000129,-18.265156273779474816
0.271000000000000130,-18.165846368748209017
0.272000000000000131,-18.067436900990202275
0.273000000000000131,-17.969946958739129172
0.274000000000000132,-17.873375915326352725
0.275000000000000133,-17.777705000608897024
0.276000000000000134,-17.682898871438855082
0.277000000000000135,-17.588907170992175821
0.278000000000000136,-17.495666067756701523
0.279000000000000137,-17.403099765934957333
0.280000000000000138,-17.311121979943447258
0.281000000000000139,-17.219637366579846116
0.282000000000000139,-17.128542909280657369
0.283000000000000140,-17.037729249701047962
0.284000000000000141,-16.947081962612902117
0.285000000000000142,-16.856482770836905161
0.286000000000000143,-16.765810697596954526
0.287000000000000144,-16.674943154310945204
0.288000000000000145,-16.583756962411992930
0.289000000000000146,-16.492129308326571646
0.290000000000000147,-16.399938631224454610
0.291000000000000147,-16.307065443599036314
0.292000000000000148,-16.213393085137514760
0.293000000000000149,-16.118808410700502520
0.294000000000000150,-16.023202413550784229
0.295000000000000151,-15.926470785254071671
0.296000000000000152,-15.828514413921231707
0.297000000000000153,-15.729239822675641136
0.298000000000000154,-15.628559550410187740
0.299000000000000155,-15.526392477051391694
0.300000000000000155,-15.422664095671965612
0.301000000000000156,-15.317306733892598558
0.302000000000000157,-15.210259727088507375
0.303000000000000158,-15.101469545970164887
0.304000000000000159,-14.990889881141246320
0.305000000000000160,-14.878481687252170573
0.306000000000000161,-14.764213189367174195
0.307000000000000162,-14.648059854147300385
0.308000000000000163,-14.530004328422844395
0.309000000000000163,-14.410036347688912173
0.310000000000000164,-14.288152617007018108
0.311000000000000165,-14.164356666736116708
0.312000000000000166,-14.038658685449565411
0.313000000000000167,-13.911075332320569586
0.314000000000000168,-13.781629531179486747
0.315000000000000169,-13.650350248362764560
0.316000000000000170,-13.517272256385862050
0.317000000000000171,-13.382435885382582441
0.318000000000000171,-13.245886764160985649
0.319000000000000172,-13.107675552633045513
0.320000000000000173,-12.967857667280929590
0.321000000000000174,-12.826493001228850943
0.322000000000000175,-12.683645640395841525
0.323000000000000176,-12.539383577111889778
0.324000000000000177,-12.393778422488521684
0.325000000000000178,-12.246905118744917829
0.326000000000000179,-12.098841652602988717
0.327000000000000179,-11.949668770778849591
0.328000000000000180,-11.799469698514931437
0.329000000000000181,-11.648329862016787217
0.330000000000000182,-11.496336615579874518
0.331000000000000183,-11.343578974117734859
0.332000000000000184,-11.190147351730146852
0.333000000000000185,-11.036133306881628968
0.334000000000000186,-10.881629294694530330
0.335000000000000187,-10.726728426798603167
0.336000000000000187,-10.571524239119462152
0.337000000000000188,-10.416110467932062633
0.338000000000000189,-10.260580834452307286
0.339000000000000190,-10.105028838189777929
0.340000000000000191,-9.949547559237499783
0.341000000000000192,-9.794229469631096308
0.342000000000000193,-9.639166253867887946
0.343000000000000194,-9.484448638639012330
0.344000000000000195,-9.330166231791537257
0.345000000000000195,-9.176407370505208050
0.346000000000000196,-9.023258978637892724
0.347000000000000197,-8.870806433166229965
0.348000000000000198,-8.719133439622670068
0.349000000000000199,-8.568321916406784311
0.350000000000000200,-8.418451887828256375
0.351000000000000201,-8.269601385719662190
0.352000000000000202,-8.121846359440862528
0.353000000000000203,-7.975260594081563070
0.354000000000000203,-7.829915636655552014
0.355000000000000204,-7.685880730068809896
0.356000000000000205,-7.543222754633717386
0.357000000000000206,-7.402006176893250355
0.358000000000000207,-7.262293005512191257
0.359000000000000208,-7.124142753986691723
0.360000000000000209,-6.987612409919185197
0.361000000000000210,-6.852756410602410142
0.362000000000000210,-6.719626624654043034
0.363000000000000211,-6.588272339442397652
0.364000000000000212,-6.458740254043294549
0.365000000000000213,-6.331074477468728645
0.366000000000000214,-6.205316531909415012
0.367000000000000215,-6.081505360735212307
0.368000000000000216,-5.959677341000262807
0.369000000000000217,-5.839866300202748661
0.370000000000000218,-5.722103537053190969
0.371000000000000218,-5.606417846009259520
0.372000000000000219,-5.492835545339927350
0.373000000000000220,-5.381380508486730996
0.374000000000000221,-5.272074198495367625
0.375000000000000222,-5.164935705296481494
0.376000000000000223,-5.059981785620375483
0.377000000000000224,-4.957226905336557188
0.378000000000000225,-4.856683284015316460
0.379000000000000226,-4.758360941514849785
0.380000000000000226,-4.662267746404151758
0.381000000000000227,-4.568409466038298561
0.382000000000000228,-4.476789818109610408
0.383000000000000229,-4.387410523504760462
0.384000000000000230,-4.300271360304513735
0.385000000000000231,-4.215370218769750821
0.386000000000000232,-4.132703157163720498
0.387000000000000233,-4.052264458267329061
0.388000000000000234,-3.974046686450677157
0.389000000000000234,-3.898040745170638477
0.390000000000000235,-3.824235934770389811
0.391000000000000236,-3.752620010463440625
0.392000000000000237,-3.683179240390421771
0.393000000000000238,-3.615898463643312688
0.394000000000000239,-3.550761148157400182
0.395000000000000240,-3.487749448377164718
0.396000000000000241,-3.426844262607832370
0.397000000000000242,-3.368025289969866609
0.398000000000000242,-3.311271086878901482
0.399000000000000243,-3.256559122978880172
0.400000000000000244,-3.203865836460968897
0.401000000000000245,-3.153166688706016796
0.402000000000000246,-3.104436218192587749
0.403000000000000247,-3.057648093617369334
0.404000000000000248,-3.012775166179111785
0.405000000000000249,-2.969789520981342967
0.406000000000000250,-2.928662527513195890
0.407000000000000250,-2.889364889171562645
0.408000000000000251,-2.851866691791473230
0.409000000000000252,-2.816137451155244165
0.410000000000000253,-2.782146159454158330
0.411000000000000254,-2.749861330679960858
0.412000000000000255,-2.719251044926268346
0.413000000000000256,-2.690282991583222039
0.414000000000000257,-2.662924511411274953
0.415000000000000258,-2.637142637482880581
0.416000000000000258,-2.612904134983261351
0.417000000000000259,-2.590175539863872167
0.418000000000000260,-2.568923196344504500
0.419000000000000261,-2.549113293261949131
0.420000000000000262,-2.530711899265405851
0.421000000000000263,-2.513684996860553689
0.422000000000000264,-2.497998515305943634
0.423000000000000265,-2.483618362367241872
0.424000000000000266,-2.470510454936280187
0.425000000000000266,-2.458640748523317932
0.426000000000000267,-2.447975265632332587
0.427000000000000268,-2.438480123030472235
0.428000000000000269,-2.430121557923809572
0.429000000000000270,-2.422865953052765864
0.430000000000000271,-2.416679860721550277
0.431000000000000272,-2.411530025776758901
0.432000000000000273,-2.407383407551242360
0.433000000000000274,-2.404207200790020149
0.434000000000000274,-2.401968855575782325
0.435000000000000275,-2.400636096272005027
0.436000000000000276,-2.400176939502396856
0.437000000000000277,-2.400559711185789702
0.438000000000000278,-2.401753062646016179
0.439000000000000279,-2.403725985816740796
0.440000000000000280,-2.406447827561461139
0.441000000000000281,-2.409888303129142262
0.442000000000000282,-2.414017508766318709
0.443000000000000282,-2.418805933506388062
0.444000000000000283,-2.424224470157238631
0.445000000000000284,-2.430244425508226946
0.446000000000000285,-2.436837529777639233
0.447000000000000286,-2.443975945321840815
0.448000000000000287,-2.451632274627134844
0.449000000000000288,-2.459779567605467676
0.450000000000000289,-2.468391328214919689
0.451000000000000290,-2.477441520425824883
0.452000000000000290,-2.486904573553247122
0.453000000000000291,-2.496755386976363233
0.454000000000000292,-2.506969334265106486
0.455000000000000293,-2.517522266734208980
0.456000000000000294,-2.528390516444605218
0.457000000000000295,-2.539550898671806500
0.458000000000000296,-2.550980713860754978
0.459000000000000297,-2.562657749086196368
0.460000000000000298,-2.574560279037542365
0.461000000000000298,-2.586667066546620930
0.462000000000000299,-2.598957362676731719
0.463000000000000300,-2.611410906390772890
0.464000000000000301,-2.624007923816123800
0.465000000000000302,-2.636729127123467631
0.466000000000000303,-2.649555713036552795
0.467000000000000304,-2.662469360989323519
0.468000000000000305,-2.675452230946753218
0.469000000000000306,-2.688486960905148937
0.470000000000000306,-2.701556664087419790
0.471000000000000307,-2.714644925848467949
0.472000000000000308,-2.727735800305436165
0.473000000000000309,-2.740813806707210976
0.474000000000000310,-2.753863925557178849
0.475000000000000311,-2.766871594502989140
0.476000000000000312,-2.779822704006485790
0.477000000000000313,-2.792703592806877744
0.478000000000000314,-2.805501043189614130
0.479000000000000314,-2.818202276073260570
0.480000000000000315,-2.830794945926165873
0.481000000000000316,-2.843267135524487177
0.482000000000000317,-2.855607350562668678
0.483000000000000318,-2.867804514127231030
0.484000000000000319,-2.879847961044301741
0.485000000000000320,-2.891727432111037555
0.486000000000000321,-2.903433068220734548
0.487000000000000322,-2.914955404391060600
0.488000000000000322,-2.926285363704602904
0.489000000000000323,-2.937414251170488377
0.490000000000000324,-2.948333747515675007
0.491000000000000325,-2.959035902914024518
0.492000000000000326,-2.969513130661123324
0.493000000000000327,-2.979758200802427037
0.494000000000000328,-2.989764233722029374
0.495000000000000329,-2.999524693699136435
0.496000000000000330,-3.009033382438912607
0.497000000000000330,-3.018284432584268373
0.498000000000000331,-3.027272301214718908
0.499000000000000332,-3.035991763338291349
0.500000000000000333,-3.044437905382192611
0.501000000000000334,-3.052606118687662295
0.502000000000000335,-3.060492093014195003
0.503000000000000336,-3.068091810058126701
0.504000000000000337,-3.075401536990312046
0.505000000000000338,-3.082417820017377963
0.506000000000000338,-3.089137477970862022
0.507000000000000339,-3.095557595928321692
0.508000000000000340,-3.101675518870258053
0.509000000000000341,-3.107488845376541242
0.510000000000000342,-3.112995421365793991
0.511000000000000343,-3.118193333881040807
0.512000000000000344,-3.123080904924695478
0.513000000000000345,-3.127656685345800547
0.514000000000000346,-3.131919448782329862
0.515000000000000346,-3.135868185661032648
0.516000000000000347,-3.139502097257304225
0.517000000000000348,-3.142820589817349575
0.518000000000000349,-3.145823268744684764
0.519000000000000350,-3.148509932852996851
0.520000000000000351,-3.150880568687152383
0.521000000000000352,-3.152935344914051363
0.522000000000000353,-3.154674606784827251
0.523000000000000353,-3.156098870669894918
0.524000000000000354,-3.157208818668077122
0.525000000000000355,-3.158005293291005877
0.526000000000000356,-3.158489292223876088
0.527000000000000357,-3.158661963163492459
0.528000000000000358,-3.158524598734484545
0.529000000000000359,-3.158078631484378285
0.530000000000000360,-3.157325628958238983
0.531000000000000361,-3.156267288853415565
0.532000000000000361,-3.154905434254843932
0.533000000000000362,-3.153242008951286479
0.534000000000000363,-3.151279072832840811
0.535000000000000364,-3.149018797369889544
0.536000000000000365,-3.146463461173664378
0.537000000000000366,-3.143615445638492822
0.538000000000000367,-3.140477230665696950
0.539000000000000368,-3.137051390469146828
0.540000000000000369,-3.133340589462256354
0.541000000000000369,-3.129347578226322479
0.542000000000000370,-3.125075189559888056
0.543000000000000371,-3.120526334608881847
0.544000000000000372,-3.115703999077169328
0.545000000000000373,-3.110611239517111493
0.546000000000000374,-3.105251179699704878
0.547000000000000375,-3.099627007063784134
0.548000000000000376,-3.093741969243819057
0.549000000000000377,-3.087599370675663923
0.550000000000000377,-3.081202569279714254
0.551000000000000378,-3.074554973220801291
0.552000000000000379,-3.067660037744180279
0.553000000000000380,-3.060521262086871808
0.554000000000000381,-3.053142186463674523
0.555000000000000382,-3.045526389127075184
0.556000000000000383,-3.037677483500241582
0.557000000000000384,-3.029599115382368701
0.558000000000000385,-3.021294960225481052
0.559000000000000385,-3.012768720481907359
0.560000000000000386,-3.004024123021508785
0.561000000000000387,-2.995064916617849349
0.562000000000000388,-2.985894869502355053
0.563000000000000389,-2.976517766985601998
0.564000000000000390,-2.966937409144772442
0.565000000000000391,-2.957157608576395980
0.566000000000000392,-2.947182188213409937
0.567000000000000393,-2.937014979205591736
0.568000000000000393,-2.926659818862414664
0.569000000000000394,-2.916120548657366918
0.570000000000000395,-2.905401012292789797
0.571000000000000396,-2.894505053824198093
0.572000000000000397,-2.883436515843199821
0.573000000000000398,-2.872199237717980580
0.574000000000000399,-2.860797053890379082
0.575000000000000400,-2.849233792228611062
0.576000000000000401,-2.837513272434616152
0.577000000000000401,-2.825639304505117799
0.578000000000000402,-2.813615687245332175
0.579000000000000403,-2.801446206834447672
0.580000000000000404,-2.789134635441842924
0.581000000000000405,-2.776684729893102777
0.582000000000000406,-2.764100230384868961
0.583000000000000407,-2.751384859247554715
0.584000000000000408,-2.738542319755013388
0.585000000000000409,-2.725576294980157854
0.586000000000000409,-2.712490446695634994
0.587000000000000410,-2.699288414318623097
0.588000000000000411,-2.685973813898784535
0.589000000000000412,-2.672550237148523689
0.590000000000000413,-2.659021250514568280
0.591000000000000414,-2.645390394290030311
0.592000000000000415,-2.631661181766031810
0.593000000000000416,-2.617837098421992970
0.594000000000000417,-2.603921601153745158
0.595000000000000417,-2.589918117538586362
0.596000000000000418,-2.575830045136389135
0.597000000000000419,-2.561660750826005195
0.598000000000000420,-2.547413570176007003
0.599000000000000421,-2.533091806849058436
0.600000000000000422,-2.518698732039023724
0.601000000000000423,-2.504237583940030376
0.602000000000000424,-2.489711567246704060
0.603000000000000425,-2.475123852684782300
0.604000000000000425,-2.460477576571322267
0.605000000000000426,-2.445775840403769941
0.606000000000000427,-2.431021710477110798
0.607000000000000428,-2.416218217528374623
0.608000000000000429,-2.401368356407774574
0.609000000000000430,-2.386475085775737970
0.610000000000000431,-2.371541327825168022
