# AuSphere1NM_DIFLUOROMETHANE
# h[nm],U(h)[kJ/mol]
0.149999999999999994,77.334264787453150802
0.150999999999999995,77.324499837329781826
0.151999999999999996,74.850618964937339683
0.152999999999999997,71.972678686137001591
0.153999999999999998,69.420901351071520935
0.154999999999999999,67.308720928426424734
0.156000000000000000,65.515103549235973901
0.157000000000000001,63.872987152976087089
0.158000000000000002,62.248943772431267973
0.159000000000000002,60.565645640548368078
0.160000000000000003,58.797347961023000096
0.161000000000000004,56.955253870703685948
0.162000000000000005,55.071505043667080770
0.163000000000000006,53.185769691986230612
0.164000000000000007,51.335734012941863114
0.165000000000000008,49.551427623107386466
0.166000000000000009,47.852701418509568043
0.167000000000000010,46.248993825209076647
0.168000000000000010,44.740562186484304164
0.169000000000000011,43.320496631951911581
0.170000000000000012,41.977003784312827861
0.171000000000000013,40.695609826966730793
0.172000000000000014,39.461069628314000113
0.173000000000000015,38.258875316427413793
0.174000000000000016,37.076334780057813134
0.175000000000000017,35.903241952816394189
0.176000000000000018,34.732191439905612640
0.177000000000000018,33.558605113830751066
0.178000000000000019,32.380542246860741784
0.179000000000000020,31.198361311854416300
0.180000000000000021,30.014293715039976007
0.181000000000000022,28.831979626365143332
0.182000000000000023,27.656005308511218743
0.183000000000000024,26.491470958661142987
0.184000000000000025,25.343608707874871300
0.185000000000000026,24.217462410521527261
0.186000000000000026,23.117634324775270471
0.187000000000000027,22.048098713266714554
0.188000000000000028,21.012078667350177597
0.189000000000000029,20.011979914258741786
0.190000000000000030,19.049373816180541041
0.191000000000000031,18.125021023806898057
0.192000000000000032,17.238927124236759880
0.193000000000000033,16.390421962302589520
0.194000000000000034,15.578254975302280982
0.195000000000000034,14.800699746728259498
0.196000000000000035,14.055661960319852710
0.197000000000000036,13.340785947836797831
0.198000000000000037,12.653556017022131286
0.199000000000000038,11.991389680795242256
0.200000000000000039,11.351720758505861042
0.201000000000000040,10.732071069507863825
0.202000000000000041,10.130110081220587759
0.203000000000000042,9.543702407487241857
0.204000000000000042,8.970943482351598774
0.205000000000000043,8.410184066545236092
0.206000000000000044,7.860044488266806795
0.207000000000000045,7.319419686657904656
0.208000000000000046,6.787476226571487636
0.209000000000000047,6.263642497524761765
0.210000000000000048,5.747593308364437270
0.211000000000000049,5.239230051637320251
0.212000000000000050,4.738657546521446662
0.213000000000000050,4.246158584008911774
0.214000000000000051,3.762167099389876590
0.215000000000000052,3.287240790519427414
0.216000000000000053,2.822033890453726102
0.217000000000000054,2.367270693537705029
0.218000000000000055,1.923720327838813748
0.219000000000000056,1.492173166168591081
0.220000000000000057,1.073419174419353750
0.221000000000000058,0.668228410650870019
0.222000000000000058,0.277333811925476015
0.223000000000000059,-0.098583661408214729
0.224000000000000060,-0.458907512462011113
0.225000000000000061,-0.803095863366627638
0.226000000000000062,-1.130689358266959044
0.227000000000000063,-1.441316925308750996
0.228000000000000064,-1.734699534815398847
0.229000000000000065,-2.010652109896777340
0.230000000000000066,-2.269083758877704859
0.231000000000000066,-2.509996506893942936
0.232000000000000067,-2.733482707469848449
0.233000000000000068,-2.939721314531066110
0.234000000000000069,-3.128973191743972926
0.235000000000000070,-3.301575629893815034
0.236000000000000071,-3.457936234748218318
0.237000000000000072,-3.598526337984206069
0.238000000000000073,-3.723874072714155492
0.239000000000000073,-3.834557243307636920
0.240000000000000074,-3.931196106902024034
0.241000000000000075,-4.014446171505626992
0.242000000000000076,-4.084991103162099790
0.243000000000000077,-4.143535822461203999
0.244000000000000078,-4.190799858909469044
0.245000000000000079,-4.227511020440877232
0.246000000000000080,-4.254399424751126091
0.247000000000000081,-4.272191929248731590
0.248000000000000081,-4.281606987280801135
0.249000000000000082,-4.283349949938282997
0.250000000000000111,-4.278108825186235364
0.251000000000000112,-4.266550499295640009
0.252000000000000113,-4.249317419560203035
0.253000000000000114,-4.227024732038950461
0.254000000000000115,-4.200257863543076731
0.255000000000000115,-4.169570533243717847
0.256000000000000116,-4.135483176076339973
0.257000000000000117,-4.098481757510908707
0.258000000000000118,-4.059016957199479414
0.259000000000000119,-4.017503697457023293
0.260000000000000120,-3.974320991430025263
0.261000000000000121,-3.929812085114301912
0.262000000000000122,-3.884284867054168977
0.263000000000000123,-3.838012519545458190
0.264000000000000123,-3.791234385434952170
0.265000000000000124,-3.744157025118318494
0.266000000000000125,-3.696955439053091652
0.267000000000000126,-3.649774431986835932
0.268000000000000127,-3.602730096124271419
0.269000000000000128,-3.555911391590880211
0.270000000000000129,-3.509381803769488162
0.271000000000000130,-3.463181058366594733
0.272000000000000131,-3.417326876386721946
0.273000000000000131,-3.371816752536371808
0.274000000000000132,-3.326629741929038708
0.275000000000000133,-3.281728241304434412
0.276000000000000134,-3.237059752296425508
0.277000000000000135,-3.192558615575341374
0.278000000000000136,-3.148147705941926056
0.279000000000000137,-3.103740079655633810
0.280000000000000138,-3.059240566433406805
0.281000000000000139,-3.014547299651641143
0.282000000000000139,-2.969553179321061886
0.283000000000000140,-2.924147263378750861
0.284000000000000141,-2.878216083752537013
0.285000000000000142,-2.831644884499596948
0.286000000000000143,-2.784318780103476332
0.287000000000000144,-2.736123832732390682
0.288000000000000145,-2.686948047918016336
0.289000000000000146,-2.636682288709099264
0.290000000000000147,-2.585221108890620290
0.291000000000000147,-2.532463506338566983
0.292000000000000148,-2.478313598005537521
0.293000000000000149,-2.422681218405689840
0.294000000000000150,-2.365482443791668832
0.295000000000000151,-2.306640044494452368
0.296000000000000152,-2.246083868131431682
0.297000000000000153,-2.183751156582619757
0.298000000000000154,-2.119586799791190135
0.299000000000000155,-2.053543529566721482
0.300000000000000155,-1.985582056659303429
0.301000000000000156,-1.915671154433379986
0.302000000000000157,-1.843787692504176956
0.303000000000000158,-1.769916623709614445
0.304000000000000159,-1.694050927778783189
0.305000000000000160,-1.616191515026767833
0.306000000000000161,-1.536347093357562921
0.307000000000000162,-1.454534001793088782
0.308000000000000163,-1.370776013669734672
0.309000000000000163,-1.285104112555903511
0.310000000000000164,-1.197556243846271018
0.311000000000000165,-1.108177044882664219
0.312000000000000166,-1.017017556339189666
0.313000000000000167,-0.924134917491439944
0.314000000000000168,-0.829592047867960147
0.315000000000000169,-0.733457317657443042
0.316000000000000170,-0.635804209118706276
0.317000000000000171,-0.536710971112906554
0.318000000000000171,-0.436260268749880276
0.319000000000000172,-0.334538830013444421
0.320000000000000173,-0.231637091104903325
0.321000000000000174,-0.127648842119950728
0.322000000000000175,-0.022670874552852015
0.323000000000000176,0.083197367996905539
0.324000000000000177,0.189854134655827400
0.325000000000000178,0.297195706497649814
0.326000000000000179,0.405116729114936125
0.327000000000000179,0.513510537605409434
0.328000000000000180,0.622269473137598284
0.329000000000000181,0.731285190355418058
0.330000000000000182,0.840448954973278206
0.331000000000000183,0.949651930999324101
0.332000000000000184,1.058785457107151773
0.333000000000000185,1.167741311753861089
0.334000000000000186,1.276411966715585766
0.335000000000000187,1.384690828780595684
0.336000000000000187,1.492472469404430457
0.337000000000000188,1.599652842191802371
0.338000000000000189,1.706129488125963434
0.339000000000000190,1.811801728518233956
0.340000000000000191,1.916570845698404524
0.341000000000000192,2.020340251510635454
0.342000000000000193,2.123015643720402856
0.343000000000000194,2.224505150474401560
0.344000000000000195,2.324719462989254914
0.345000000000000195,2.423571956674860584
0.346000000000000196,2.520978800925358421
0.347000000000000197,2.616859057834969970
0.348000000000000198,2.711134770117080262
0.349000000000000199,2.803731038523841423
0.350000000000000200,2.894576089079466286
0.351000000000000201,2.983601330454412448
0.352000000000000202,3.070741401818960714
0.353000000000000203,3.155934211524239252
0.354000000000000203,3.239120966966341886
0.355000000000000204,3.320246195994599248
0.356000000000000205,3.399257760229244862
0.357000000000000206,3.476106860656080322
0.358000000000000207,3.550748035866567509
0.359000000000000208,3.623139153311558225
0.360000000000000209,3.693241393935100980
0.361000000000000210,3.761019230552149928
0.362000000000000210,3.826440400330142211
0.363000000000000211,3.889475871729796808
0.364000000000000212,3.950099806254930623
0.365000000000000213,4.008289515354860555
0.366000000000000214,4.064025412815989391
0.367000000000000215,4.117290962971724255
0.368000000000000216,4.168072625051754798
0.369000000000000217,4.216359793983359694
0.370000000000000218,4.262144737948481144
0.371000000000000218,4.305422532991153517
0.372000000000000219,4.346190994960416276
0.373000000000000220,4.384450609064296955
0.374000000000000221,4.420204457300423329
0.375000000000000222,4.453458144019180054
0.376000000000000223,4.484219719865025766
0.377000000000000224,4.512499604331847713
0.378000000000000225,4.538310507157871321
0.379000000000000226,4.561667348775913844
0.380000000000000226,4.582587180024642493
0.381000000000000227,4.601089101316679475
0.382000000000000228,4.617194181449708168
0.383000000000000229,4.630925376236967317
0.384000000000000230,4.642307447124260911
0.385000000000000231,4.651366879951098987
0.386000000000000232,4.658131804004637999
0.387000000000000233,4.662631911506117000
0.388000000000000234,4.664898377660785300
0.389000000000000234,4.664963781393820064
0.390000000000000235,4.662862026886624989
0.391000000000000236,4.658628266019625208
0.392000000000000237,4.652298821820247454
0.393000000000000238,4.643911113006963021
0.394000000000000239,4.633503579713162068
0.395000000000000240,4.621115610467635193
0.396000000000000241,4.606787470501575221
0.397000000000000242,4.590560231445573791
0.398000000000000242,4.572475702473901116
0.399000000000000243,4.552576362947212907
0.400000000000000244,4.530905296599314624
0.401000000000000245,4.507506127307825849
0.402000000000000246,4.482422956483691934
0.403000000000000247,4.455700302109184996
0.404000000000000248,4.427383039449487079
0.405000000000000249,4.397516343458310217
0.406000000000000250,4.366145632893753792
0.407000000000000250,4.333316516156566323
0.408000000000000251,4.299074738859044231
0.409000000000000252,4.263466133129254487
0.410000000000000253,4.226536568651804160
0.411000000000000254,4.188331905443140712
0.412000000000000255,4.148897948356435883
0.413000000000000256,4.108280403308082640
0.414000000000000257,4.066524835215455269
0.415000000000000258,4.023676627632838176
0.416000000000000258,3.979780944070385740
0.417000000000000259,3.934882690978619202
0.418000000000000260,3.889026482379179583
0.419000000000000261,3.842256606120655782
0.420000000000000262,3.794616991736631029
0.421000000000000263,3.746151179881583637
0.422000000000000264,3.696902293318979904
0.423000000000000265,3.646913009434461284
0.424000000000000266,3.596225534246040301
0.425000000000000266,3.544881577882167623
0.426000000000000267,3.492922331497642752
0.427000000000000268,3.440388445596462397
0.428000000000000269,3.387320009730177439
0.429000000000000270,3.333756533539629974
0.430000000000000271,3.279736929107371246
0.431000000000000272,3.225299494587879678
0.432000000000000273,3.170481899082131516
0.433000000000000274,3.115321168723002909
0.434000000000000274,3.059853673937627416
0.435000000000000275,3.004115117852978134
0.436000000000000276,2.948140525810663881
0.437000000000000277,2.891964235957047435
0.438000000000000278,2.835619890874929272
0.439000000000000279,2.779140430223073555
0.440000000000000280,2.722558084350058305
0.441000000000000281,2.665904368849267403
0.442000000000000282,2.609210080021897138
0.443000000000000282,2.552505291215420691
0.444000000000000283,2.495819350005075155
0.445000000000000284,2.439180876186483715
0.446000000000000285,2.382617760547826702
0.447000000000000286,2.326157164390495691
0.448000000000000287,2.269825519767580069
0.449000000000000288,2.213648530410079474
0.450000000000000289,2.157651173311164072
0.451000000000000290,2.101857700939451679
0.452000000000000290,2.046291644052713909
0.453000000000000291,1.990975815084048417
0.454000000000000292,1.935932312073119110
0.455000000000000293,1.881182523115604965
0.456000000000000294,1.826747131304699012
0.457000000000000295,1.772646120139000248
0.458000000000000296,1.718898779371778929
0.459000000000000297,1.665523711277285601
0.460000000000000298,1.612538837310212525
0.461000000000000298,1.559961405135338985
0.462000000000000299,1.507807996004613571
0.463000000000000300,1.456094532459947688
0.464000000000000301,1.404836286340299001
0.465000000000000302,1.354047887072507006
0.466000000000000303,1.303743330225660468
0.467000000000000304,1.253935986309712369
0.468000000000000305,1.204638609799415727
0.469000000000000306,1.155863348365353760
0.470000000000000306,1.107621752294473128
0.471000000000000307,1.059924784083012161
0.472000000000000308,1.012782828185393447
0.473000000000000309,0.966205700903155829
0.474000000000000310,0.920202660398682815
0.475000000000000311,0.874782416818770003
0.476000000000000312,0.829953142514102238
0.477000000000000313,0.785722482340625694
0.478000000000000314,0.742097564029944645
0.479000000000000314,0.699085008615937586
0.480000000000000315,0.656690940905553022
0.481000000000000316,0.614920999982120131
0.482000000000000317,0.573780349730081629
0.483000000000000318,0.533273689370456827
0.484000000000000319,0.493405263996874788
0.485000000000000320,0.454178875102448476
0.486000000000000321,0.415597891088184124
0.487000000000000322,0.377665257744120964
0.488000000000000322,0.340383508694726278
0.489000000000000323,0.303754775800619048
0.490000000000000324,0.267780799508920697
0.491000000000000325,0.232462939145104797
0.492000000000000326,0.197802183139468735
0.493000000000000327,0.163799159181785031
0.494000000000000328,0.130454144298045083
0.495000000000000329,0.097767074843503693
0.496000000000000330,0.065737556406690656
0.497000000000000330,0.034364873619202999
0.498000000000000331,0.003647999866615903
0.499000000000000332,-0.026414393103978150
0.500000000000000333,-0.055823925683998278
0.501000000000000334,-0.084582501014779848
0.502000000000000335,-0.112692295713970256
0.503000000000000336,-0.140155750720222377
0.504000000000000337,-0.166975562259280286
0.505000000000000338,-0.193154672934202909
0.506000000000000338,-0.218696262942335184
0.507000000000000339,-0.243603741421371728
0.508000000000000340,-0.267880737926566581
0.509000000000000341,-0.291531094041035110
0.510000000000000342,-0.314558855120794789
0.511000000000000343,-0.336968262176068400
0.512000000000000344,-0.358763743890105513
0.513000000000000345,-0.379949908776643253
0.514000000000000346,-0.400531537476983668
0.515000000000000346,-0.420513575197375644
0.516000000000000347,-0.439901124287366607
0.517000000000000348,-0.458699436959560392
0.518000000000000349,-0.476913908151070765
0.519000000000000350,-0.494550068526841524
0.520000000000000351,-0.511613577624860705
0.521000000000000352,-0.528110217143182847
0.522000000000000353,-0.544045884368480670
0.523000000000000353,-0.559426585745884442
0.524000000000000354,-0.574258430589567603
0.525000000000000355,-0.588547624933580371
0.526000000000000356,-0.602300465522257911
0.527000000000000357,-0.615523333939456352
0.528000000000000358,-0.628222690875833267
0.529000000000000359,-0.640405070533145659
0.530000000000000360,-0.652077075164687381
0.531000000000000361,-0.663245369750723679
0.532000000000000361,-0.673916676807817638
0.533000000000000362,-0.684097771330802851
0.534000000000000363,-0.693795475866187838
0.535000000000000364,-0.703016655715635319
0.536000000000000365,-0.711768214268138411
0.537000000000000366,-0.720057088459489902
0.538000000000000367,-0.727890244357537242
0.539000000000000368,-0.735274672871762403
0.540000000000000369,-0.742217385585565159
0.541000000000000369,-0.748725410709734418
0.542000000000000370,-0.754805789155411411
0.543000000000000371,-0.760465570724959017
0.544000000000000372,-0.765711810419020256
0.545000000000000373,-0.770551564858071858
0.546000000000000374,-0.774991888816768837
0.547000000000000375,-0.779039831869296040
0.548000000000000376,-0.782702435144026487
0.549000000000000377,-0.785986728185656292
0.550000000000000377,-0.788899725923083994
0.551000000000000378,-0.791448425741183570
0.552000000000000379,-0.793639804654741043
0.553000000000000380,-0.795480816582677885
0.554000000000000381,-0.796978389720785829
0.555000000000000382,-0.798139424011186205
0.556000000000000383,-0.798970788706618529
0.557000000000000384,-0.799479320027850604
0.558000000000000385,-0.799671818912309429
0.559000000000000385,-0.799555048852189865
0.560000000000000386,-0.799135733820208527
0.561000000000000387,-0.798420556281227323
0.562000000000000388,-0.797416155287941741
0.563000000000000389,-0.796129124658897180
0.564000000000000390,-0.794566011237011316
0.565000000000000391,-0.792733313226904324
0.566000000000000392,-0.790637478609263367
0.567000000000000393,-0.788284903630522726
0.568000000000000393,-0.785681931366139286
0.569000000000000394,-0.782834850355771272
0.570000000000000395,-0.779749893308692044
0.571000000000000396,-0.776433235877714401
0.572000000000000397,-0.772890995500054467
0.573000000000000398,-0.769129230303446265
0.574000000000000399,-0.765153938075906037
0.575000000000000400,-0.760971055297555710
0.576000000000000401,-0.756586456232926197
0.577000000000000401,-0.752005952082194451
0.578000000000000402,-0.747235290189781631
0.579000000000000403,-0.742280153308842783
0.580000000000000404,-0.737146158920119809
0.581000000000000405,-0.731838858603685360
0.582000000000000406,-0.726363737462147774
0.583000000000000407,-0.720726213593830156
0.584000000000000408,-0.714931637614596105
0.585000000000000409,-0.708985292226843811
0.586000000000000409,-0.702892391834352481
0.587000000000000410,-0.696658082201647155
0.588000000000000411,-0.690287440156495569
0.589000000000000412,-0.683785473334319827
0.590000000000000413,-0.677157119963162968
0.591000000000000414,-0.670407248688010049
0.592000000000000415,-0.663540658433220631
0.593000000000000416,-0.656562078301822893
0.594000000000000417,-0.649476167510521063
0.595000000000000417,-0.642287515359251771
0.596000000000000418,-0.635000641234081398
0.597000000000000419,-0.627619994642419798
0.598000000000000420,-0.620149955279343246
0.599000000000000421,-0.612594833124035731
0.600000000000000422,-0.604958868565228070
0.601000000000000423,-0.597246232554631606
0.602000000000000424,-0.589461026787332698
0.603000000000000425,-0.581607283908186612
0.604000000000000425,-0.573688967743170575
0.605000000000000426,-0.565709973554827883
0.606000000000000427,-0.557674128320810425
0.607000000000000428,-0.549585191034623444
0.608000000000000429,-0.541446853027705899
0.609000000000000430,-0.533262738311926165
0.610000000000000431,-0.525036403941713137
0.611000000000000432,-0.516771340394907908
0.612000000000000433,-0.508470971971598074
0.613000000000000433,-0.500138657210099202
0.614000000000000434,-0.491777689319328470
0.615000000000000435,-0.483391296626788758
0.616000000000000436,-0.474982643041474251
0.617000000000000437,-0.466554828530941990
