#PEG_HSE
#Upscaled from ../surface/PEG/HSE.dat to radius: 34.89955667698373 bead probs: 1.0
#surf-centre-dist[nm],U[kJ/mol]
4.440892098500626e-16,33.145453851846554
0.002000000000000446,32.90324204754741
0.004000000000000448,32.65870238351415
0.006000000000000449,32.41900661867252
0.008000000000000451,32.18597390119942
0.010000000000000453,31.956945817018653
0.012000000000000455,31.728892349064168
0.014000000000000457,31.501154694091944
0.01600000000000046,31.274974575902753
0.01800000000000046,31.058461719576577
0.020000000000000462,30.84988662583872
0.022000000000000464,30.648818745122686
0.024000000000000465,30.451548330943343
0.026000000000000467,30.250210307738115
0.02800000000000047,30.055753064595557
0.03000000000000047,29.861971368252362
0.03200000000000047,29.66757160311603
0.034000000000000474,29.492741128063766
0.036000000000000476,29.307311163550352
0.03800000000000048,29.129225411653845
0.04000000000000048,28.952999207131924
0.04200000000000048,28.777646237729172
0.04400000000000048,28.601978314167543
0.046000000000000485,28.429509277876594
0.04800000000000049,28.249870342447608
0.05000000000000049,28.086623072563995
0.05200000000000049,27.922275859123587
0.05400000000000049,27.756691105142327
0.056000000000000494,27.593166779519557
0.058000000000000496,27.428846006850506
0.0600000000000005,27.26738240367145
0.0620000000000005,27.100152689285473
0.0640000000000005,26.93196569615305
0.0660000000000005,26.767150759710386
0.0680000000000005,26.599283190131633
0.0700000000000005,26.43766450643022
0.07200000000000051,26.281526427127957
0.07400000000000051,26.127966116974328
0.07600000000000051,25.978498667626774
0.07800000000000051,25.82945106796657
0.08000000000000052,25.675456591884938
0.08200000000000052,25.52149296079127
0.08400000000000052,25.36388854887869
0.08600000000000052,25.20827647292329
0.08800000000000052,25.052567741588405
0.09000000000000052,24.909522738724526
0.09200000000000053,24.766809172635597
0.09400000000000053,24.6253961612871
0.09600000000000053,24.483161917749104
0.09800000000000053,24.3482361136792
0.10000000000000053,24.214956757463536
0.10200000000000053,24.084434581710383
0.10400000000000054,23.94448385426965
0.10600000000000054,23.807486511612197
0.10800000000000054,23.668931714469853
0.11000000000000054,23.5299653757052
0.11200000000000054,23.387809645169984
0.11400000000000055,23.246280153170716
0.11600000000000055,23.098473970867538
0.11800000000000055,22.946413096291614
0.12000000000000055,22.790023636754
0.12200000000000055,22.625516627590486
0.12400000000000055,22.451069552134534
0.12600000000000056,22.26995574552886
0.12800000000000056,22.076350431635213
0.13000000000000056,21.878538850302288
0.13200000000000056,21.672635940362227
0.13400000000000056,21.45322109117409
0.13600000000000056,21.22340015468923
0.13800000000000057,20.97959090138745
0.14000000000000057,20.727104495300583
0.14200000000000057,20.46949039314399
0.14400000000000057,20.20712123072418
0.14600000000000057,19.933419613136152
0.14800000000000058,19.648553487890755
0.15000000000000058,19.352106132409546
0.15200000000000058,19.04641529745024
0.15400000000000058,18.724905089224624
0.15600000000000058,18.391853784488337
0.15800000000000058,18.050737491092313
0.1600000000000006,17.70200559422948
0.1620000000000006,17.34589226889703
0.1640000000000006,16.98219221463443
0.1660000000000006,16.61661772110298
0.1680000000000006,16.25278857615525
0.1700000000000006,15.8948287008469
0.1720000000000006,15.548122614232808
0.1740000000000006,15.210132819245006
0.1760000000000006,14.873279466502478
0.1780000000000006,14.558147811527968
0.1800000000000006,14.256830319169541
0.1820000000000006,13.97448451682691
0.1840000000000006,13.694868850078656
0.1860000000000006,13.427861852094706
0.1880000000000006,13.170076136118228
0.1900000000000006,12.930017066521415
0.19200000000000061,12.70105700027255
0.19400000000000062,12.483021268157867
0.19600000000000062,12.27374223824035
0.19800000000000062,12.072448176318394
0.20000000000000062,11.877793124248424
0.20200000000000062,11.697269698207208
0.20400000000000063,11.524364818849836
0.20600000000000063,11.358825333567491
0.20800000000000063,11.18679313052538
0.21000000000000063,11.022611816413313
0.21200000000000063,10.85939965437981
0.21400000000000063,10.704806982760802
0.21600000000000064,10.561168689294908
0.21800000000000064,10.413969298621133
0.22000000000000064,10.26834857632976
0.22200000000000064,10.136505417204141
0.22400000000000064,10.004669710775746
0.22600000000000064,9.876837896860838
0.22800000000000065,9.745560738147965
0.23000000000000065,9.619566917046772
0.23200000000000065,9.498695880229192
0.23400000000000065,9.375347214861144
0.23600000000000065,9.257653364780872
0.23800000000000066,9.143616134320009
0.24000000000000066,9.027729919848092
0.24200000000000066,8.917494241707635
0.24400000000000066,8.809916325494214
0.24600000000000066,8.699944550829418
0.24800000000000066,8.588982968431758
0.25000000000000067,8.47676453007639
0.25200000000000067,8.365402592255645
0.25400000000000067,8.252623023842734
0.25600000000000067,8.14494715987313
0.2580000000000007,8.030071729104296
0.2600000000000007,7.915202623041878
0.2620000000000007,7.800785177549937
0.2640000000000007,7.684459127268839
0.2660000000000007,7.561619252714279
0.2680000000000007,7.436750812224959
0.2700000000000007,7.313409030585452
0.2720000000000007,7.1869117008990315
0.2740000000000007,7.052400932305853
0.2760000000000007,6.907626867408878
0.2780000000000007,6.754471318979816
0.2800000000000007,6.595477975007379
0.2820000000000007,6.436904391936762
0.2840000000000007,6.267452377243967
0.2860000000000007,6.087965220298559
0.2880000000000007,5.900071813286893
0.2900000000000007,5.706473173897844
0.2920000000000007,5.5042203296298355
0.2940000000000007,5.290277875757729
0.2960000000000007,5.07304659891202
0.2980000000000007,4.846797612540902
0.3000000000000007,4.620285570045514
0.3020000000000007,4.385663007343666
0.3040000000000007,4.150088681583775
0.3060000000000007,3.9024184191610534
0.3080000000000007,3.6562686810720324
0.3100000000000007,3.411710089393849
0.3120000000000007,3.1769783190025693
0.3140000000000007,2.932149937788473
0.3160000000000007,2.6872922026768657
0.3180000000000007,2.4416463481159507
0.32000000000000073,2.1971342370480005
0.32200000000000073,1.9551096911492731
0.32400000000000073,1.714732396900341
0.32600000000000073,1.4761686511765155
0.32800000000000074,1.2407002082231176
0.33000000000000074,1.007693121848138
0.33200000000000074,0.7781729992638757
0.33400000000000074,0.5527747524573903
0.33600000000000074,0.3289496257927088
0.33800000000000074,0.10334569275416833
0.34000000000000075,-0.11556758193707162
0.34200000000000075,-0.32950181721805216
0.34400000000000075,-0.5387425119800142
0.34600000000000075,-0.7464101268227643
0.34800000000000075,-0.9512512408513423
0.35000000000000075,-1.1505499570029722
0.35200000000000076,-1.3445651492714163
0.35400000000000076,-1.5315572014041048
0.35600000000000076,-1.7139272905027303
0.35800000000000076,-1.8921177380503562
0.36000000000000076,-2.0681489621033933
0.36200000000000077,-2.2373302319281367
0.36400000000000077,-2.4038708391444032
0.36600000000000077,-2.5697132817319304
0.36800000000000077,-2.7269923769622886
0.3700000000000008,-2.881664158509537
0.3720000000000008,-3.029269185264812
0.3740000000000008,-3.1725061308513385
0.3760000000000008,-3.316254061898059
0.3780000000000008,-3.4581420369076894
0.3800000000000008,-3.592569892129056
0.3820000000000008,-3.72141957202065
0.3840000000000008,-3.845948626202244
0.3860000000000008,-3.966128143275563
0.3880000000000008,-4.082938892597717
0.3900000000000008,-4.194536362473808
0.3920000000000008,-4.3028626300533155
0.3940000000000008,-4.406358398106012
0.3960000000000008,-4.50811008690478
0.3980000000000008,-4.611244048735507
0.4000000000000008,-4.707862927520759
0.4020000000000008,-4.801728210197163
0.4040000000000008,-4.893704325088805
0.4060000000000008,-4.9793792835087896
0.4080000000000008,-5.059008363748521
0.4100000000000008,-5.131719991777047
0.4120000000000008,-5.2029059702102325
0.4140000000000008,-5.2710833947375875
0.4160000000000008,-5.3370350810844585
0.4180000000000008,-5.39662272594933
0.4200000000000008,-5.4551651412230004
0.4220000000000008,-5.5096563221976735
0.4240000000000008,-5.5618645522722385
0.4260000000000008,-5.609701591394713
0.4280000000000008,-5.655375618595121
0.4300000000000008,-5.701527479661321
0.43200000000000083,-5.739921137053628
0.43400000000000083,-5.774475013526545
0.43600000000000083,-5.807386928993804
0.43800000000000083,-5.838609082821289
0.44000000000000083,-5.867883993817125
0.44200000000000084,-5.89088989731489
0.44400000000000084,-5.912595242907571
0.44600000000000084,-5.932514664433807
0.44800000000000084,-5.948061555455817
0.45000000000000084,-5.962415933402182
0.45200000000000085,-5.973417573916232
0.45400000000000085,-5.982615181842374
0.45600000000000085,-5.994290816185331
0.45800000000000085,-6.0046422618001705
0.46000000000000085,-6.01406276290279
0.46200000000000085,-6.022008375072048
0.46400000000000086,-6.026400686096143
0.46600000000000086,-6.022963390844905
0.46800000000000086,-6.020751218955248
0.47000000000000086,-6.017909189594288
0.47200000000000086,-6.017358236514905
0.47400000000000087,-6.012265028844557
0.47600000000000087,-6.002428965366389
0.47800000000000087,-5.988110500710537
0.48000000000000087,-5.9747401583685615
0.48200000000000087,-5.9571527028240165
0.4840000000000009,-5.939079312175794
0.4860000000000009,-5.917848422616385
0.4880000000000009,-5.89908812152537
0.4900000000000009,-5.8789115221662165
0.4920000000000009,-5.854039361030867
0.4940000000000009,-5.826493908777899
0.4960000000000009,-5.798118464159911
0.4980000000000009,-5.770158184874289
0.5000000000000009,-5.746142902622189
0.5020000000000009,-5.720154691440702
0.5040000000000009,-5.693141228691525
0.5060000000000009,-5.6639844556914
0.5080000000000009,-5.6308663049611285
0.5100000000000009,-5.602999391486673
0.5120000000000009,-5.573547821323097
0.5140000000000009,-5.539978133724039
0.5160000000000009,-5.506073285009776
0.5180000000000009,-5.4757891525226645
0.5200000000000009,-5.4455016372323835
0.5220000000000009,-5.415337977644923
0.5240000000000009,-5.380969812342695
0.5260000000000009,-5.347473254716544
0.5280000000000009,-5.312709482547451
0.5300000000000009,-5.273125503039455
0.5320000000000009,-5.2362719652107454
0.5340000000000009,-5.198610729076967
0.5360000000000009,-5.160730346339747
0.5380000000000009,-5.125033426279279
0.5400000000000009,-5.086779072468552
0.5420000000000009,-5.051652449681103
0.5440000000000009,-5.016305823225936
0.5460000000000009,-4.9821782670446995
0.5480000000000009,-4.950178081795137
0.5500000000000009,-4.913239027297593
0.5520000000000009,-4.878155725878699
0.5540000000000009,-4.844890420989255
0.5560000000000009,-4.8103713009358415
0.5580000000000009,-4.773426934187345
0.5600000000000009,-4.735768134401086
0.5620000000000009,-4.69655299882842
0.564000000000001,-4.656896417765636
0.566000000000001,-4.615878076160728
0.568000000000001,-4.579181183724915
0.570000000000001,-4.540915960528401
0.572000000000001,-4.502514354042903
0.574000000000001,-4.4634138564947134
0.576000000000001,-4.4222075230810365
0.578000000000001,-4.378573343713922
0.580000000000001,-4.337209911976813
0.582000000000001,-4.29738996203507
0.584000000000001,-4.253735972732342
0.586000000000001,-4.2121767245217425
0.588000000000001,-4.170467303988108
0.590000000000001,-4.1286263211332646
0.592000000000001,-4.084371232557751
0.594000000000001,-4.042898825779708
0.596000000000001,-3.9998523121415492
0.598000000000001,-3.9551979215891993
0.600000000000001,-3.912598620188605
0.602000000000001,-3.8717762055158484
0.604000000000001,-3.8292367610446894
0.606000000000001,-3.7847247647313065
0.608000000000001,-3.74233691296215
0.610000000000001,-3.702610524044809
0.612000000000001,-3.6662818905937336
0.614000000000001,-3.628633284981719
0.616000000000001,-3.5894686928803257
0.618000000000001,-3.548376022129763
0.620000000000001,-3.510550499915304
0.622000000000001,-3.473549202055053
0.624000000000001,-3.434704238146734
0.626000000000001,-3.3962903478662887
0.628000000000001,-3.35992703993751
0.630000000000001,-3.3254960474628517
0.632000000000001,-3.289038092983997
0.634000000000001,-3.2513001357101694
0.636000000000001,-3.215402217161728
0.638000000000001,-3.1798498987449366
0.640000000000001,-3.1481102316736393
0.642000000000001,-3.117374491646893
0.644000000000001,-3.0864544108702923
0.646000000000001,-3.0535077131479764
0.648000000000001,-3.018548808847548
0.650000000000001,-2.990195449905588
0.652000000000001,-2.9623232002106095
0.654000000000001,-2.933865372531376
0.656000000000001,-2.906627017081402
0.658000000000001,-2.8804586402834995
0.660000000000001,-2.8571769115057726
0.662000000000001,-2.8333038797452645
0.664000000000001,-2.8099407287383267
0.666000000000001,-2.7867126161289812
0.668000000000001,-2.7623058011307307
0.670000000000001,-2.7393029021229727
0.672000000000001,-2.7209160312668774
0.674000000000001,-2.7040698517009663
0.676000000000001,-2.6853508618568105
0.678000000000001,-2.668315497141924
0.680000000000001,-2.652251336216571
0.682000000000001,-2.640207152917364
0.684000000000001,-2.627928424356702
0.686000000000001,-2.61424513909422
0.688000000000001,-2.598943631864403
0.6900000000000011,-2.582164594971246
0.6920000000000011,-2.5687733336912317
0.6940000000000011,-2.55663225018758
0.6960000000000011,-2.5427310557801994
0.6980000000000011,-2.530407651937806
0.7000000000000011,-2.5201625173349442
0.7020000000000011,-2.5086509042881717
0.7040000000000011,-2.4964791635540813
0.7060000000000011,-2.4854149282544618
0.7080000000000011,-2.474872065380819
0.7100000000000011,-2.468005063642586
0.7120000000000011,-2.4635159890997014
0.7140000000000011,-2.458750498716747
0.7160000000000011,-2.4509257175123462
0.7180000000000011,-2.4416512004520134
0.7200000000000011,-2.435023514810174
0.7220000000000011,-2.4313399969626257
0.7240000000000011,-2.427718433241757
0.7260000000000011,-2.4224598005609734
0.7280000000000011,-2.4180495721488766
0.7300000000000011,-2.414480994497538
0.7320000000000011,-2.415424206210647
0.7340000000000011,-2.4173662153843614
0.7360000000000011,-2.4193853720844114
0.7380000000000011,-2.4232013081944945
0.7400000000000011,-2.4265459854542097
0.7420000000000011,-2.4291761520936825
0.7440000000000011,-2.4286303555161366
0.7460000000000011,-2.4291197325571745
0.7480000000000011,-2.430905827267449
0.7500000000000011,-2.4335660822446545
0.7520000000000011,-2.433002938409878
0.7540000000000011,-2.4350653613110254
0.7560000000000011,-2.4366548375242574
0.7580000000000011,-2.4409701989143335
0.7600000000000011,-2.4428058645273345
0.7620000000000011,-2.445815931185362
0.7640000000000011,-2.449340187797941
0.7660000000000011,-2.453654179845373
0.7680000000000011,-2.4538497439497893
0.7700000000000011,-2.4557855650661735
0.7720000000000011,-2.458586374065223
0.7740000000000011,-2.4638370815308357
0.7760000000000011,-2.4644415260310715
0.7780000000000011,-2.4668836311407665
0.7800000000000011,-2.468760642154606
0.7820000000000011,-2.4692443623419247
0.7840000000000011,-2.467447556597702
0.7860000000000011,-2.468115719958953
0.7880000000000011,-2.4668365515190827
0.7900000000000011,-2.469598972274257
0.7920000000000011,-2.4726434732065723
0.7940000000000011,-2.474907608951255
0.7960000000000012,-2.477640209712435
0.7980000000000012,-2.480277966253343
0.8000000000000012,-2.4792673162204033
0.8020000000000012,-2.4779239209001696
0.8040000000000012,-2.477511661006291
0.8060000000000012,-2.4746989709888427
0.8080000000000012,-2.471660146626376
0.8100000000000012,-2.4664300846893807
0.8120000000000012,-2.4594223357416007
0.8140000000000012,-2.453014950074044
0.8160000000000012,-2.447491255636138
0.8180000000000012,-2.4397380681863385
0.8200000000000012,-2.430405401103764
0.8220000000000012,-2.4200582371571198
0.8240000000000012,-2.4123029855068903
0.8260000000000012,-2.402375488201719
0.8280000000000012,-2.3904878817714597
0.8300000000000012,-2.379412263908175
0.8320000000000012,-2.366117308434948
0.8340000000000012,-2.3549734065814234
0.8360000000000012,-2.345781370338134
0.8380000000000012,-2.3370961847623812
0.8400000000000012,-2.327212961414124
0.8420000000000012,-2.3162304411722734
0.8440000000000012,-2.304935613479985
0.8460000000000012,-2.296707947187084
0.8480000000000012,-2.2840266761711567
0.8500000000000012,-2.272564015456903
0.8520000000000012,-2.2602860330100722
0.8540000000000012,-2.248992529625906
0.8560000000000012,-2.2382570556610295
0.8580000000000012,-2.227141750656253
0.8600000000000012,-2.2132081632940253
0.8620000000000012,-2.200605420365515
0.8640000000000012,-2.1845164017704315
0.8660000000000012,-2.1684227033811903
0.8680000000000012,-2.1540790310095432
0.8700000000000012,-2.1382554770241495
0.8720000000000012,-2.12491513532836
0.8740000000000012,-2.1099323461837156
0.8760000000000012,-2.0948763043105694
0.8780000000000012,-2.081195512437393
0.8800000000000012,-2.067727966303264
0.8820000000000012,-2.0560603088636205
0.8840000000000012,-2.0426907308419917
0.8860000000000012,-2.0288212692775813
0.8880000000000012,-2.0159711308616037
0.8900000000000012,-2.0045449582901216
0.8920000000000012,-1.9906717365158817
0.8940000000000012,-1.9761175281772072
0.8960000000000012,-1.9594047957925902
0.8980000000000012,-1.9432071380197535
0.9000000000000012,-1.926317177731089
0.9020000000000012,-1.9115732088555335
0.9040000000000012,-1.8967191979331055
0.9060000000000012,-1.881256395932342
0.9080000000000013,-1.8665219771996928
0.9100000000000013,-1.8520355734050968
0.9120000000000013,-1.8337155972991592
0.9140000000000013,-1.8171003080499568
0.9160000000000013,-1.8007633762203943
0.9180000000000013,-1.7846079592259994
0.9200000000000013,-1.7667806682944867
0.9220000000000013,-1.7487421134172199
0.9240000000000013,-1.7301814083724818
0.9260000000000013,-1.7092245541228397
0.9280000000000013,-1.6895997373938916
0.9300000000000013,-1.6719391745803402
0.9320000000000013,-1.6524531577517505
0.9340000000000013,-1.633701818287709
0.9360000000000013,-1.6151015388061287
0.9380000000000013,-1.5972508537384946
0.9400000000000013,-1.579183873214312
0.9420000000000013,-1.5617816607647719
0.9440000000000013,-1.544914449901449
0.9460000000000013,-1.5288451838529613
0.9480000000000013,-1.5129674729312996
0.9500000000000013,-1.4968286461269746
0.9520000000000013,-1.479176127891124
0.9540000000000013,-1.461674757889901
0.9560000000000013,-1.446386493836286
0.9580000000000013,-1.4305879018148118
0.9600000000000013,-1.4153216763676548
0.9620000000000013,-1.3994959186386209
0.9640000000000013,-1.3845331170234838
0.9660000000000013,-1.3674799503498813
0.9680000000000013,-1.348996056019461
0.9700000000000013,-1.3288772458861708
0.9720000000000013,-1.3087993700155411
0.9740000000000013,-1.289088235018403
0.9760000000000013,-1.2712586662681207
0.9780000000000013,-1.2547712305633958
0.9800000000000013,-1.2367336105366689
0.9820000000000013,-1.2182035960200435
0.9840000000000013,-1.2016160981052597
0.9860000000000013,-1.184960927257899
0.9880000000000013,-1.1682793004034582
0.9900000000000013,-1.1534837569205458
0.9920000000000013,-1.1372120024970906
0.9940000000000013,-1.1224103946191137
0.9960000000000013,-1.1088189837865432
0.9980000000000013,-1.0941742120787783
1.0000000000000013,-1.079599101031139
1.0020000000000013,-1.062895255317935
1.0040000000000013,-1.0484582959661792
1.0060000000000013,-1.0356244730409336
1.0080000000000013,-1.0236980697995683
1.0100000000000013,-1.0116818689487241
1.0120000000000013,-0.9987772050173493
1.0140000000000013,-0.9854492105944304
1.0160000000000013,-0.9742129086321546
1.0180000000000013,-0.9647330569350682
1.0200000000000014,-0.9537330721155464
1.0220000000000014,-0.9418462193472714
1.0240000000000014,-0.9269588523199246
1.0260000000000014,-0.9130722239924065
1.0280000000000014,-0.8988014600436504
1.0300000000000014,-0.8866615862967345
1.0320000000000014,-0.8740546272590228
