# Kaolinite-001_ETA-JS
# h[nm],U(h)[kJ/mol]
0.149999999999999994,104.012715699525671198
0.150999999999999995,102.369884240222020821
0.151999999999999996,100.915171523041564683
0.152999999999999997,99.451861915580039408
0.153999999999999998,97.929616282256944260
0.154999999999999999,96.359644611207613707
0.156000000000000000,94.771245249700228896
0.157000000000000001,93.191958298760397383
0.158000000000000002,91.640490370680041110
0.159000000000000002,90.125984301858437675
0.160000000000000003,88.649978543912169471
0.161000000000000004,87.209099457751591444
0.162000000000000005,85.797539108236961169
0.163000000000000006,84.408945754961649754
0.164000000000000007,83.037660812290951640
0.165000000000000008,81.679382406230416791
0.166000000000000009,80.331390265939404571
0.167000000000000010,78.992472096742488930
0.168000000000000010,77.662673449403968107
0.169000000000000011,76.342966276464977682
0.170000000000000012,75.034903920546099698
0.171000000000000013,73.740306146267514009
0.172000000000000014,72.460998513869029125
0.173000000000000015,71.198616060321867849
0.174000000000000016,69.954471387508078806
0.175000000000000017,68.729481063984920297
0.176000000000000018,67.524140882747587966
0.177000000000000018,66.338539205080721217
0.178000000000000019,65.172397702498187755
0.179000000000000020,64.025129761362535419
0.180000000000000021,62.895908242138048649
0.181000000000000022,61.783735902708869503
0.182000000000000023,60.687513409507289452
0.183000000000000024,59.606101349629852848
0.184000000000000025,58.538373953650747694
0.185000000000000026,57.483263313048404086
0.186000000000000026,56.439793724991417889
0.187000000000000027,55.407106434523299754
0.188000000000000028,54.384475493554589320
0.189000000000000029,53.371315745782794693
0.190000000000000030,52.367184106075356453
0.191000000000000031,51.371775360120899734
0.192000000000000032,50.384913690819502108
0.193000000000000033,49.406541064147390330
0.194000000000000034,48.436703497718823996
0.195000000000000034,47.475536105059120473
0.196000000000000035,46.523247669512350910
0.197000000000000036,45.580105362630114030
0.198000000000000037,44.646420089216633187
0.199000000000000038,43.722532819253032699
0.200000000000000039,42.808802158315060638
0.201000000000000040,41.905593314138386063
0.202000000000000041,41.013268537974440164
0.203000000000000042,40.132179054889554948
0.204000000000000042,39.262658446250725319
0.205000000000000043,38.405017409057528255
0.206000000000000044,37.559539789077838634
0.207000000000000045,36.726479766419053874
0.208000000000000046,35.906060061717809617
0.209000000000000047,35.098471027134124256
0.210000000000000048,34.303870487469339423
0.211000000000000049,33.522384201807824411
0.212000000000000050,32.754106824062759529
0.213000000000000050,31.999103250791723241
0.214000000000000051,31.257410255879371164
0.215000000000000052,30.529038323543556288
0.216000000000000053,29.813973603105278443
0.217000000000000054,29.112179920684457812
0.218000000000000055,28.423600794148860871
0.219000000000000056,27.748161408043888088
0.220000000000000057,27.085770514723833458
0.221000000000000058,26.436322236414167008
0.222000000000000058,25.799697750418907560
0.223000000000000059,25.175766846155596568
0.224000000000000060,24.564389348180707628
0.225000000000000061,23.965416403915003940
0.226000000000000062,23.378691638457951285
0.227000000000000063,22.804052181770810392
0.228000000000000064,22.241329575691430875
0.229000000000000065,21.690350569803378278
0.230000000000000066,21.150937816203210673
0.231000000000000066,20.622910473769589856
0.232000000000000067,20.106084732715821417
0.233000000000000068,19.600274270069682814
0.234000000000000069,19.105290646338595195
0.235000000000000070,18.620943653038736443
0.236000000000000071,18.147041620047104971
0.237000000000000072,17.683391690917307670
0.238000000000000073,17.229800073423390927
0.239000000000000073,16.786072271692738411
0.240000000000000074,16.352013305383660935
0.241000000000000075,15.927427920480990764
0.242000000000000076,15.512120795437159160
0.243000000000000077,15.105896745592138686
0.244000000000000078,14.708560928072071050
0.245000000000000079,14.319919048699253139
0.246000000000000080,13.939777571850498816
0.247000000000000081,13.567943933676357204
0.248000000000000081,13.204226758642040096
0.249000000000000082,12.848436078969266205
0.250000000000000111,12.500383556243409799
0.251000000000000112,12.159882704200072112
0.252000000000000113,11.826749111512512513
0.253000000000000114,11.500800663264991286
0.254000000000000115,11.181857759707494182
0.255000000000000115,10.869743530843360091
0.256000000000000116,10.564284045394641609
0.257000000000000117,10.265308512717233214
0.258000000000000118,9.972649476293520721
0.259000000000000119,9.686142997509126218
0.260000000000000120,9.405628828518414863
0.261000000000000121,9.130950573117196711
0.262000000000000122,8.861955834664778209
0.263000000000000123,8.598496350230636409
0.264000000000000123,8.340428110277194662
0.265000000000000124,8.087611463329841044
0.266000000000000125,7.839911205223449642
0.267000000000000126,7.597196652651303062
0.268000000000000127,7.359341700873690328
0.269000000000000128,7.126224865570509159
0.270000000000000129,6.897729308941174864
0.271000000000000130,6.673742850267110782
0.272000000000000131,6.454157961255349463
0.273000000000000131,6.238871746576085897
0.274000000000000132,6.027785910092076094
0.275000000000000133,5.820806707353240128
0.276000000000000134,5.617844884995889743
0.277000000000000135,5.418815607742996754
0.278000000000000136,5.223638373749036390
0.279000000000000137,5.032236919071811698
0.280000000000000138,4.844539112083990240
0.281000000000000139,4.660476838658759391
0.282000000000000139,4.479985878978815173
0.283000000000000140,4.303005776824997852
0.284000000000000141,4.129479702201752644
0.285000000000000142,3.959354308151195934
0.286000000000000143,3.792579582596673049
0.287000000000000144,3.629108696041164706
0.288000000000000145,3.468897845925084766
0.289000000000000146,3.311906098424588940
0.290000000000000147,3.158095228443216218
0.291000000000000147,3.007429558519802981
0.292000000000000148,2.859875797342152470
0.293000000000000149,2.715402878521436136
0.294000000000000150,2.573981800245461748
0.295000000000000151,2.435585466391288367
0.296000000000000152,2.300188529639078716
0.297000000000000153,2.167767237089988974
0.298000000000000154,2.038299278851424923
0.299000000000000155,1.911763640013976140
0.300000000000000155,1.788140456405147516
0.301000000000000156,1.667410874466855208
0.302000000000000157,1.549556915565750703
0.303000000000000158,1.434561345008959599
0.304000000000000159,1.322407546001882039
0.305000000000000160,1.213079398750515070
0.306000000000000161,1.106561164877348791
0.307000000000000162,1.002837377288245735
0.308000000000000163,0.901892735597440542
0.309000000000000163,0.803712007188963184
0.310000000000000164,0.708279933965616282
0.311000000000000165,0.615581144811094827
0.312000000000000166,0.525600073766725684
0.313000000000000167,0.438320883902037994
0.314000000000000168,0.353727396837570707
0.315000000000000169,0.271803027859139013
0.316000000000000170,0.192530726545077746
0.317000000000000171,0.115892922812068269
0.318000000000000171,0.041871478270458548
0.319000000000000172,-0.029552357233240546
0.320000000000000173,-0.098397984020549570
0.321000000000000174,-0.164685486076255605
0.322000000000000175,-0.228435659788176315
0.323000000000000176,-0.289670038092689819
0.324000000000000177,-0.348410910194014545
0.325000000000000178,-0.404681337030628197
0.326000000000000179,-0.458505162666977939
0.327000000000000179,-0.509907021791761061
0.328000000000000180,-0.558912343506836384
0.329000000000000181,-0.605547351592505056
0.330000000000000182,-0.649839061435485865
0.331000000000000183,-0.691815273806385411
0.332000000000000184,-0.731504565672454587
0.333000000000000185,-0.768936278230431536
0.334000000000000186,-0.804140502342275632
0.335000000000000187,-0.837148061554237044
0.336000000000000187,-0.867990492876865138
0.337000000000000188,-0.896700025500046571
0.338000000000000189,-0.923309557613709364
0.339000000000000190,-0.947852631500577969
0.340000000000000191,-0.970363407062909467
0.341000000000000192,-0.990876633940765972
0.342000000000000193,-1.009427622374174494
0.343000000000000194,-1.026052212956780396
0.344000000000000195,-1.040786745422951132
0.345000000000000195,-1.053668026605473873
0.346000000000000196,-1.064733297694964387
0.347000000000000197,-1.074020200926974811
0.348000000000000198,-1.081566745817084119
0.349000000000000199,-1.087411275058548510
0.350000000000000200,-1.091592430191720586
0.351000000000000201,-1.094149117148649486
0.352000000000000202,-1.095120471770846482
0.353000000000000203,-1.094545825392728933
0.354000000000000203,-1.092464670577801167
0.355000000000000204,-1.088916627089254519
0.356000000000000205,-1.083941408171548382
0.357000000000000206,-1.077578787214397593
0.358000000000000207,-1.069868564865366301
0.359000000000000208,-1.060850536652724996
0.360000000000000209,-1.050564461175214737
0.361000000000000210,-1.039050028910817547
0.362000000000000210,-1.026346831692220851
0.363000000000000211,-1.012494332892221127
0.364000000000000212,-0.997531838358299616
0.365000000000000213,-0.981498468131380752
0.366000000000000214,-0.964433128980108245
0.367000000000000215,-0.946374487778108175
0.368000000000000216,-0.927360945748322174
0.369000000000000217,-0.907430613594875091
0.370000000000000218,-0.886621287539971270
0.371000000000000218,-0.864970426279935034
0.372000000000000219,-0.842515128871846208
0.373000000000000220,-0.819292113559259128
0.374000000000000221,-0.795337697542968902
0.375000000000000222,-0.770687777700157062
0.376000000000000223,-0.745377812253156358
0.377000000000000224,-0.719442803386594276
0.378000000000000225,-0.692917280809804526
0.379000000000000226,-0.665835286259335080
0.380000000000000226,-0.638230358934766207
0.381000000000000227,-0.610135521859057728
0.382000000000000228,-0.581583269153461258
0.383000000000000229,-0.552605554215343187
0.384000000000000230,-0.523233778785941572
0.385000000000000231,-0.493498782894118915
0.386000000000000232,-0.463430835660696316
0.387000000000000233,-0.433059626947296106
0.388000000000000234,-0.402414259832416465
0.389000000000000234,-0.371523243896909050
0.390000000000000235,-0.340414489300085166
0.391000000000000236,-0.309115301627196637
0.392000000000000237,-0.277652377488339597
0.393000000000000238,-0.246051800848502283
0.394000000000000239,-0.214339040067879349
0.395000000000000240,-0.182538945631422062
0.396000000000000241,-0.150675748546204080
0.397000000000000242,-0.118773059384943064
0.398000000000000242,-0.086853867954035907
0.399000000000000243,-0.054940543564138952
0.400000000000000244,-0.023054835881404001
0.401000000000000245,0.008782123662432629
0.402000000000000246,0.040549819923120525
0.403000000000000247,0.072228351581791819
0.404000000000000248,0.103798428189349229
0.405000000000000249,0.135241366738828417
0.406000000000000250,0.166539087787033191
0.407000000000000250,0.197674111146435239
0.408000000000000251,0.228629551168209988
0.409000000000000252,0.259389111636822434
0.410000000000000253,0.289937080296439109
0.411000000000000254,0.320258323028973613
0.412000000000000255,0.350338277703320045
0.413000000000000256,0.380162947714867250
0.414000000000000257,0.409718895234142289
0.415000000000000258,0.438993234182827041
0.416000000000000258,0.467973622955220658
0.417000000000000259,0.496648256902584073
0.418000000000000260,0.525005860597512197
0.419000000000000261,0.553035679894999133
0.420000000000000262,0.580727473806385452
0.421000000000000263,0.608071506201972589
0.422000000000000264,0.635058537357607866
0.423000000000000265,0.661679815360152856
0.424000000000000266,0.687927067386108093
0.425000000000000266,0.713792490867499962
0.426000000000000267,0.739268744558381874
0.427000000000000268,0.764348939515053893
0.428000000000000269,0.789026630002572782
0.429000000000000270,0.813295804339598916
0.430000000000000271,0.837150875693392527
0.431000000000000272,0.860586672836060940
0.432000000000000273,0.883598430872935436
0.433000000000000274,0.906181781953391718
0.434000000000000274,0.928332745974086881
0.435000000000000275,0.950047721284091984
0.436000000000000276,0.971323475401022263
0.437000000000000277,0.992157135746894681
0.438000000000000278,1.012546180411945773
0.439000000000000279,1.032488428954340787
0.440000000000000280,1.051982033243288317
0.441000000000000281,1.071025468352702514
0.442000000000000282,1.089617523512127262
0.443000000000000282,1.107757293121446551
0.444000000000000283,1.125444167835297993
0.445000000000000284,1.142677825723008578
0.446000000000000285,1.159458223509443497
0.447000000000000286,1.175785587901707618
0.448000000000000287,1.191660407006607469
0.449000000000000288,1.207083421843168747
0.450000000000000289,1.222055617954446394
0.451000000000000290,1.236578217122433321
0.452000000000000290,1.250652669189635358
0.453000000000000291,1.264280643990652209
0.454000000000000292,1.277464023396752246
0.455000000000000293,1.290204893476276871
0.456000000000000294,1.302505536773380657
0.457000000000000295,1.314368424707429428
0.458000000000000296,1.325796210095124383
0.459000000000000297,1.336791719797231659
0.460000000000000298,1.347357947491539587
0.461000000000000298,1.357498046573506256
0.462000000000000299,1.367215323185834164
0.463000000000000300,1.376513229378065306
0.464000000000000301,1.385395356397040478
0.465000000000000302,1.393865428108947535
0.466000000000000303,1.401927294553541481
0.467000000000000304,1.409584925630877228
0.468000000000000305,1.416842404920815479
0.469000000000000306,1.423703923635421420
0.470000000000000306,1.430173774704158518
0.471000000000000307,1.436256346991784838
0.472000000000000308,1.441956119648588608
0.473000000000000309,1.447277656592598660
0.474000000000000310,1.452225601123218413
0.475000000000000311,1.456804670665689638
0.476000000000000312,1.461019651645600881
0.477000000000000313,1.464875394492690663
0.478000000000000314,1.468376808772993147
0.479000000000000314,1.471528858448314159
0.480000000000000315,1.474336557262026837
0.481000000000000316,1.476804964249970542
0.482000000000000317,1.478939179375297952
0.483000000000000318,1.480744339285944733
0.484000000000000319,1.482225613193418168
0.485000000000000320,1.483388198871481434
0.486000000000000321,1.484237318773308001
0.487000000000000322,1.484778216265591810
0.488000000000000322,1.485016151978118870
0.489000000000000323,1.484956400267150034
0.490000000000000324,1.484604245791076638
0.491000000000000325,1.483964980196646577
0.492000000000000326,1.483043898914127245
0.493000000000000327,1.481846298059664946
0.494000000000000328,1.480377471443128812
0.495000000000000329,1.478642707679708401
0.496000000000000330,1.476647287403470621
0.497000000000000330,1.474396480581102509
0.498000000000000331,1.471895543924076177
0.499000000000000332,1.469149718397387172
0.500000000000000333,1.466164226823068129
0.501000000000000334,1.462944271576697819
0.502000000000000335,1.459495032375019541
0.503000000000000336,1.455821664152898709
0.504000000000000337,1.451929295027764910
0.505000000000000338,1.447823024349741416
0.506000000000000338,1.443507920835611191
0.507000000000000339,1.438989020784847916
0.508000000000000340,1.434271326375876843
0.509000000000000341,1.429359804040769122
0.510000000000000342,1.424259382916601036
0.511000000000000343,1.418974953371680892
0.512000000000000344,1.413511365604892989
0.513000000000000345,1.407873428316399611
0.514000000000000346,1.402065907447952009
0.515000000000000346,1.396093524991117496
0.516000000000000347,1.389960957861702040
0.517000000000000348,1.383672836838644837
0.518000000000000349,1.377233745565784373
0.519000000000000350,1.370648219614784225
0.520000000000000351,1.363920745607604568
0.521000000000000352,1.357055760396908894
0.522000000000000353,1.350057650302816104
0.523000000000000353,1.342930750404413009
0.524000000000000354,1.335679343884484727
0.525000000000000355,1.328307661425931485
0.526000000000000356,1.320819880658381962
0.527000000000000357,1.313220125653477011
0.528000000000000358,1.305512466467422916
0.529000000000000359,1.297700918729312702
0.530000000000000360,1.289789443273864578
0.531000000000000361,1.281781945817130897
0.532000000000000361,1.273682276673854030
0.533000000000000362,1.265494230515092022
0.534000000000000363,1.257221546164832393
0.535000000000000364,1.248867906434261155
0.536000000000000365,1.240436937992447586
0.537000000000000366,1.231932211272180000
0.538000000000000367,1.223357240409749691
0.539000000000000368,1.214715483217453151
0.540000000000000369,1.206010341187680135
0.541000000000000369,1.197245159527400515
0.542000000000000370,1.188423227221955925
0.543000000000000371,1.179547777127034180
0.544000000000000372,1.170621986087749145
0.545000000000000373,1.161648975083787505
0.546000000000000374,1.152631809399572216
0.547000000000000375,1.143573498818456713
0.548000000000000376,1.134476997839933832
0.549000000000000377,1.125345205918935942
0.550000000000000377,1.116180967726255746
0.551000000000000378,1.106987073429184232
0.552000000000000379,1.097766258991480059
0.553000000000000380,1.088521206491771753
0.554000000000000381,1.079254544459575582
0.555000000000000382,1.069968848228064040
0.556000000000000383,1.060666640302814212
0.557000000000000384,1.051350390745705354
0.558000000000000385,1.042022517573249596
0.559000000000000385,1.032685387168556179
0.560000000000000386,1.023341314706244898
0.561000000000000387,1.013992564589581757
0.562000000000000388,1.004641350899154073
0.563000000000000389,0.995289837852404324
0.564000000000000390,0.985940140273407151
0.565000000000000391,0.976594324072214470
0.566000000000000392,0.967254406733194072
0.567000000000000393,0.957922357811738734
0.568000000000000393,0.948600099438792532
0.569000000000000394,0.939289506832604815
0.570000000000000395,0.929992408817210903
0.571000000000000396,0.920710588347071868
0.572000000000000397,0.911445783037374779
0.573000000000000398,0.902199685699529796
0.574000000000000399,0.892973944881330306
0.575000000000000400,0.883770165411368658
0.576000000000000401,0.874589908947229544
0.577000000000000401,0.865434694527021042
0.578000000000000402,0.856305999123842532
0.579000000000000403,0.847205258202802236
0.580000000000000404,0.838133866280131534
0.581000000000000405,0.829093177484096500
0.582000000000000406,0.820084506117283119
0.583000000000000407,0.811109127219931003
0.584000000000000408,0.802168277133988639
0.585000000000000409,0.793263154067537335
0.586000000000000409,0.784394918659288343
0.587000000000000410,0.775564694542843824
0.588000000000000411,0.766773568910447900
0.589000000000000412,0.758022593075917128
0.590000000000000413,0.749312783036516050
0.591000000000000414,0.740645120033504689
0.592000000000000415,0.732020551111106976
0.593000000000000416,0.723439989673678063
0.594000000000000417,0.714904316040830823
0.595000000000000417,0.706414378000312149
0.596000000000000418,0.697970991358422443
0.597000000000000419,0.689574940487772792
0.598000000000000420,0.681226978872203737
0.599000000000000421,0.672927829648670039
0.600000000000000422,0.664678186145926775
0.601000000000000423,0.656478712419866106
0.602000000000000424,0.648330043785326326
0.603000000000000425,0.640232787344223730
0.604000000000000425,0.632187522509907507
0.605000000000000426,0.624194801527562015
0.606000000000000427,0.616255149990526774
0.607000000000000428,0.608369067352485415
0.608000000000000429,0.600537027435283921
0.609000000000000430,0.592759478932438078
0.610000000000000431,0.585036845908064596
0.611000000000000432,0.577369528291261647
0.612000000000000433,0.569757902365819469
0.613000000000000433,0.562202321255125481
0.614000000000000434,0.554703115402284674
0.615000000000000435,0.547260593045309163
0.616000000000000436,0.539875040687344376
0.617000000000000437,0.532546723561855728
0.618000000000000438,0.525275886092750888
0.619000000000000439,0.518062752349350730
