# Kaolinite-001_CS-173-AC
# h[nm],U(h)[kJ/mol]
0.149999999999999994,106.984920556733868580
0.150999999999999995,105.379639213406861131
0.151999999999999996,103.730037507396417595
0.152999999999999997,102.079946330402520971
0.153999999999999998,100.445504018611444508
0.154999999999999999,98.830464466640648880
0.156000000000000000,97.234040203344548559
0.157000000000000001,95.654538981706508594
0.158000000000000002,94.090757554077185887
0.159000000000000002,92.542277492518707049
0.160000000000000003,91.009300873199677540
0.161000000000000004,89.492357969609130919
0.162000000000000005,87.992041301075673232
0.163000000000000006,86.508822086341567115
0.164000000000000007,85.042954941620052978
0.165000000000000008,83.594454472343358020
0.166000000000000009,82.163120685240443208
0.167000000000000010,80.748591251182645578
0.168000000000000010,79.350403097730264790
0.169000000000000011,77.968051114404445912
0.170000000000000012,76.601036648581455779
0.171000000000000013,75.248902416678447480
0.172000000000000014,73.911253323728558939
0.173000000000000015,72.587764555709227920
0.174000000000000016,71.278179357080745149
0.175000000000000017,69.982299329673281818
0.176000000000000018,68.699970075623014054
0.177000000000000018,67.431064715587623937
0.178000000000000019,66.175467369504715975
0.179000000000000020,64.933058183596600088
0.180000000000000021,63.703700988513766390
0.181000000000000022,62.487234220377061433
0.182000000000000023,61.283465351882469463
0.183000000000000024,60.092168774107143747
0.184000000000000025,58.913086841514520131
0.185000000000000026,57.745933637221206425
0.186000000000000026,56.590400923729660576
0.187000000000000027,55.446165705286126979
0.188000000000000028,54.312898830718609133
0.189000000000000029,53.190274099500619798
0.190000000000000030,52.077977389389296548
0.191000000000000031,50.975715393144909626
0.192000000000000032,49.883223627822474100
0.193000000000000033,48.800273457593227988
0.194000000000000034,47.726677945965548133
0.195000000000000034,46.662296422726655010
0.196000000000000035,45.607037712999044743
0.197000000000000036,44.560862029387415362
0.198000000000000037,43.523781572810456453
0.199000000000000038,42.495859923303051175
0.200000000000000039,41.477210329230125296
0.201000000000000040,40.467993022628924393
0.202000000000000041,39.468411700606814918
0.203000000000000042,38.478709318773454129
0.204000000000000042,37.499163343513728819
0.205000000000000043,36.530080606438055213
0.206000000000000044,35.571791897453451270
0.207000000000000045,34.624646423398687034
0.208000000000000046,33.689006247807277816
0.209000000000000047,32.765240814748928244
0.210000000000000048,31.853721646405421808
0.211000000000000049,30.954817290529025087
0.212000000000000050,30.068888580587934456
0.213000000000000050,29.196284258534781486
0.214000000000000051,28.337336997967945251
0.215000000000000052,27.492359854168853417
0.216000000000000053,26.661643157205610066
0.217000000000000054,25.845451855066652769
0.218000000000000055,25.044023305659599998
0.219000000000000056,24.257565509480723875
0.220000000000000057,23.486255768801733268
0.221000000000000058,22.730239754293378951
0.222000000000000058,21.989630956041199994
0.223000000000000059,21.264510492846216749
0.224000000000000060,20.554927251457591808
0.225000000000000061,19.860898325878615367
0.226000000000000062,19.182409726037448650
0.227000000000000063,18.519417324838720162
0.228000000000000064,17.871848012833204677
0.229000000000000065,17.239601030382310398
0.230000000000000066,16.622549448185203858
0.231000000000000066,16.020541768308621755
0.232000000000000067,15.433403619357179082
0.233000000000000068,14.860939521086930171
0.234000000000000069,14.302934695551314803
0.235000000000000070,13.759156903731422972
0.236000000000000071,13.229358288506043451
0.237000000000000072,12.713277206726242952
0.238000000000000073,12.210640035049676655
0.239000000000000073,11.721162936037229585
0.240000000000000074,11.244553572798356100
0.241000000000000075,10.780512762180551434
0.242000000000000076,10.328736058117179653
0.243000000000000077,9.888915258270037256
0.244000000000000078,9.460739828521756323
0.245000000000000079,9.043898241184866293
0.246000000000000080,8.638079223997840117
0.247000000000000081,8.242972918072236865
0.248000000000000081,7.858271943942772175
0.249000000000000082,7.483672375754768957
0.250000000000000111,7.118874624404718077
0.251000000000000112,6.763584231134975866
0.252000000000000113,6.417512573675779208
0.253000000000000114,6.080377487535441716
0.254000000000000115,5.751903805463923547
0.255000000000000115,5.431823818466183340
0.256000000000000116,5.119877662022312315
0.257000000000000117,4.815813631388808247
0.258000000000000118,4.519388430015579772
0.259000000000000119,4.230367355220209902
0.260000000000000120,3.948524425321633835
0.261000000000000121,3.673642452454656482
0.262000000000000122,3.405513065268340966
0.263000000000000123,3.143936685661764763
0.264000000000000123,2.888722463632276138
0.265000000000000124,2.639688174210144123
0.266000000000000125,2.396660080331466158
0.267000000000000126,2.159472765363255498
0.268000000000000127,1.927968938842462787
0.269000000000000128,1.701999218828913474
0.270000000000000129,1.481421894101655479
0.271000000000000130,1.266102669252288537
0.272000000000000131,1.055914395549773399
0.273000000000000131,0.850736790269900900
0.274000000000000132,0.650456147001791329
0.275000000000000133,0.454965039263909521
0.276000000000000134,0.264162019585001406
0.277000000000000135,0.077951316032359760
0.278000000000000136,-0.103757471999542439
0.279000000000000137,-0.281049677090150773
0.280000000000000138,-0.454005864691332028
0.281000000000000139,-0.622702130282349664
0.282000000000000139,-0.787210391584567959
0.283000000000000140,-0.947598674776659267
0.284000000000000141,-1.103931393781065751
0.285000000000000142,-1.256269621815424120
0.286000000000000143,-1.404671354518022941
0.287000000000000144,-1.549191764064305588
0.288000000000000145,-1.689883443792702833
0.289000000000000146,-1.826796642951084904
0.290000000000000147,-1.959979491262556106
0.291000000000000147,-2.089478213088599823
0.292000000000000148,-2.215337331041461244
0.293000000000000149,-2.337599858964239719
0.294000000000000150,-2.456307484258372753
0.295000000000000151,-2.571500739593278517
0.296000000000000152,-2.683219164082470520
0.297000000000000153,-2.791501454054899245
0.298000000000000154,-2.896385603589672897
0.299000000000000155,-2.997909035017030543
0.300000000000000155,-3.096108719618861027
0.301000000000000156,-3.191021288788123300
0.302000000000000157,-3.282683135929278073
0.303000000000000158,-3.371130509400280140
0.304000000000000159,-3.456399596812635533
0.305000000000000160,-3.538526601018150419
0.306000000000000161,-3.617547808120995079
0.307000000000000162,-3.693499647860709612
0.308000000000000163,-3.766418746716452493
0.309000000000000163,-3.836341974085581974
0.310000000000000164,-3.903306481890324253
0.311000000000000165,-3.967349737965062850
0.312000000000000166,-4.028509553574456170
0.313000000000000167,-4.086824105408332741
0.314000000000000168,-4.142331952394178174
0.315000000000000169,-4.195072047661619230
0.316000000000000170,-4.245083745986242718
0.317000000000000171,-4.292406807031652782
0.318000000000000171,-4.337081394700108561
0.319000000000000172,-4.379148072892723675
0.320000000000000173,-4.418647797970169933
0.321000000000000174,-4.455621908194667746
0.322000000000000175,-4.490112110423551073
0.323000000000000176,-4.522160464313779826
0.324000000000000177,-4.551809364285964499
0.325000000000000178,-4.579101519485259786
0.326000000000000179,-4.604079931965748607
0.327000000000000179,-4.626787873313564781
0.328000000000000180,-4.647268859913204153
0.329000000000000181,-4.665566627050814041
0.330000000000000182,-4.681725102037104236
0.331000000000000183,-4.695788376522586738
0.332000000000000184,-4.707800678167050279
0.333000000000000185,-4.717806341815479421
0.334000000000000186,-4.725849780322639582
0.335000000000000187,-4.731975455159095567
0.336000000000000187,-4.736227846922264284
0.337000000000000188,-4.738651425866959421
0.338000000000000189,-4.739290622561585842
0.339000000000000190,-4.738189798767626471
0.340000000000000191,-4.735393218632037993
0.341000000000000192,-4.730945020274829993
0.342000000000000193,-4.724889187846406990
0.343000000000000194,-4.717269524122611024
0.344000000000000195,-4.708129623698341426
0.345000000000000195,-4.697512846834798417
0.346000000000000196,-4.685462294008816642
0.347000000000000197,-4.672020781207454121
0.348000000000000198,-4.657230816005435869
0.349000000000000199,-4.641134574457876028
0.350000000000000200,-4.623773878836105133
0.351000000000000201,-4.605190176229643662
0.352000000000000202,-4.585424518033309305
0.353000000000000203,-4.564517540334373180
0.354000000000000203,-4.542509445211034169
0.355000000000000204,-4.519439982949846168
0.356000000000000205,-4.495348435186704350
0.357000000000000206,-4.470273598972992701
0.358000000000000207,-4.444253771765401595
0.359000000000000208,-4.417326737335896425
0.360000000000000209,-4.389529752595509038
0.361000000000000210,-4.360899535323677689
0.362000000000000210,-4.331472252792901045
0.363000000000000211,-4.301283511276556837
0.364000000000000212,-4.270368346426276496
0.365000000000000213,-4.238761214503647956
0.366000000000000214,-4.206495984449810877
0.367000000000000215,-4.173605930775272199
0.368000000000000216,-4.140123727251355135
0.369000000000000217,-4.106081441383578223
0.370000000000000218,-4.071510529646769072
0.371000000000000218,-4.036441833460708395
0.372000000000000219,-4.000905575884861953
0.373000000000000220,-3.964931359010060330
0.374000000000000221,-3.928548162024769308
0.375000000000000222,-3.891784339933102466
0.376000000000000223,-3.854667622901845725
0.377000000000000224,-3.817225116213298186
0.378000000000000225,-3.779483300800886347
0.379000000000000226,-3.741468034344416882
0.380000000000000226,-3.703204552901996127
0.381000000000000227,-3.664717473055562724
0.382000000000000228,-3.626030794547420388
0.383000000000000229,-3.587167903385155565
0.384000000000000230,-3.548151575392574752
0.385000000000000231,-3.509003980184867366
0.386000000000000232,-3.469746685546081899
0.387000000000000233,-3.430400662187795824
0.388000000000000234,-3.390986288867880116
0.389000000000000234,-3.351523357848980478
0.390000000000000235,-3.312031080676486994
0.391000000000000236,-3.272528094256444753
0.392000000000000237,-3.233032467214110195
0.393000000000000238,-3.193561706514565834
0.394000000000000239,-3.154132764327019167
0.395000000000000240,-3.114762045115183842
0.396000000000000241,-3.075465412936464471
0.397000000000000242,-3.036258198933183383
0.398000000000000242,-2.997155208999756404
0.399000000000000243,-2.958170731610032966
0.400000000000000244,-2.919318545789636676
0.401000000000000245,-2.880611929218751310
0.402000000000000246,-2.842063666451080106
0.403000000000000247,-2.803686057235426521
0.404000000000000248,-2.765490924926760741
0.405000000000000249,-2.727489624974174465
0.406000000000000250,-2.689693053473535489
0.407000000000000250,-2.652111655773320198
0.408000000000000251,-2.614755435122360527
0.409000000000000252,-2.577633961348956948
0.410000000000000253,-2.540756379561052380
0.411000000000000254,-2.504131418857806768
0.412000000000000255,-2.467767401043224229
0.413000000000000256,-2.431672249333066027
0.414000000000000257,-2.395853497046503300
0.415000000000000258,-2.360318296274677152
0.416000000000000258,-2.325073426518440289
0.417000000000000259,-2.290125303288191638
0.418000000000000260,-2.255479986658975200
0.419000000000000261,-2.221143189774425153
0.420000000000000262,-2.187120287293535359
0.421000000000000263,-2.153416323774579588
0.422000000000000264,-2.120036021990797437
0.423000000000000265,-2.086983791172859704
0.424000000000000266,-2.054263735173527117
0.425000000000000266,-2.021879660549982027
0.426000000000000267,-1.989835084559925082
0.427000000000000268,-1.958133243067588625
0.428000000000000269,-1.926777098356215800
0.429000000000000270,-1.895769346843836134
0.430000000000000271,-1.865112426699311543
0.431000000000000272,-1.834808525356064646
0.432000000000000273,-1.804859586920964265
0.433000000000000274,-1.775267319476221628
0.434000000000000274,-1.746033202272251117
0.435000000000000275,-1.717158492809772508
0.436000000000000276,-1.688644233809592166
0.437000000000000277,-1.660491260068621244
0.438000000000000278,-1.632700205201058408
0.439000000000000279,-1.605271508263671265
0.440000000000000280,-1.578205420264355618
0.441000000000000281,-1.551502010553306388
0.442000000000000282,-1.525161173096359901
0.443000000000000282,-1.499182632630004397
0.444000000000000283,-1.473565950698014548
0.445000000000000284,-1.448310531569501070
0.446000000000000285,-1.423415628038415592
0.447000000000000286,-1.398880347104815680
0.448000000000000287,-1.374703655537952818
0.449000000000000288,-1.350884385321772019
0.450000000000000289,-1.327421238983147456
0.451000000000000290,-1.304312794803537567
0.452000000000000290,-1.281557511914689140
0.453000000000000291,-1.259153735279129771
0.454000000000000292,-1.237099700556326010
0.455000000000000293,-1.215393538855361166
0.456000000000000294,-1.194033281375148858
0.457000000000000295,-1.173016863933205478
0.458000000000000296,-1.152342131384066715
0.459000000000000297,-1.132006841928534069
0.460000000000000298,-1.112008671314915986
0.461000000000000298,-1.092345216933551466
0.462000000000000299,-1.073014001805897788
0.463000000000000300,-1.054012478469482872
0.464000000000000301,-1.035338032760155347
0.465000000000000302,-1.016987987492992129
0.466000000000000303,-0.998959606043284376
0.467000000000000304,-0.981250095829091284
0.468000000000000305,-0.963856611696832344
0.469000000000000306,-0.946776259211384086
0.470000000000000306,-0.930006097852278613
0.471000000000000307,-0.913543144117421768
0.472000000000000308,-0.897384374535996843
0.473000000000000309,-0.881526728592017528
0.474000000000000310,-0.865967111560142833
0.475000000000000311,-0.850702397255292730
0.476000000000000312,-0.835729430697699671
0.477000000000000313,-0.821045030694870448
0.478000000000000314,-0.806645992342117424
0.479000000000000314,-0.792529089443225088
0.480000000000000315,-0.778691076852765507
0.481000000000000316,-0.765128692741719352
0.482000000000000317,-0.751838660787872870
0.483000000000000318,-0.738817692292620065
0.484000000000000319,-0.726062488225661218
0.485000000000000320,-0.713569741199187813
0.486000000000000321,-0.701336137373025692
0.487000000000000322,-0.689358358292306073
0.488000000000000322,-0.677633082659093278
0.489000000000000323,-0.666156988039559250
0.490000000000000324,-0.654926752508089516
0.491000000000000325,-0.643939056229832163
0.492000000000000326,-0.633190582983101269
0.493000000000000327,-0.622678021623102373
0.494000000000000328,-0.612398067488358344
0.495000000000000329,-0.602347423751242506
0.496000000000000330,-0.592522802713992602
0.497000000000000330,-0.582920927051590043
0.498000000000000331,-0.573538531002766749
0.499000000000000332,-0.564372361510577569
0.500000000000000333,-0.555419179313742517
0.501000000000000334,-0.546675759990068344
0.502000000000000335,-0.538138894953238967
0.503000000000000336,-0.529805392404186670
0.504000000000000337,-0.521672078238271886
0.505000000000000338,-0.513735796909482567
0.506000000000000338,-0.505993412252832675
0.507000000000000339,-0.498441808266107345
0.508000000000000340,-0.491077889852100380
0.509000000000000341,-0.483898583522498371
0.510000000000000342,-0.476900838064440780
0.511000000000000343,-0.470081625170909345
0.512000000000000344,-0.463437940035939966
0.513000000000000345,-0.456966801915743126
0.514000000000000346,-0.450665254656742065
0.515000000000000346,-0.444530367191487141
0.516000000000000347,-0.438559234003463416
0.517000000000000348,-0.432748975561766946
0.518000000000000349,-0.427096738726501557
0.519000000000000350,-0.421599697125913386
0.520000000000000351,-0.416255051506092044
0.521000000000000352,-0.411060030054154868
0.522000000000000353,-0.406011888695746670
0.523000000000000353,-0.401107911367704850
0.524000000000000354,-0.396345410266729037
0.525000000000000355,-0.391721726074824805
0.526000000000000356,-0.387234228162314009
0.527000000000000357,-0.382880314769219798
0.528000000000000358,-0.378657413165688739
0.529000000000000359,-0.374562979792279316
0.530000000000000360,-0.370594500380735048
0.531000000000000361,-0.366749490056020200
0.532000000000000361,-0.363025493420223333
0.533000000000000362,-0.359420084619055780
0.534000000000000363,-0.355930867391535788
0.535000000000000364,-0.352555475103521532
0.536000000000000365,-0.349291570765683235
0.537000000000000366,-0.346136847036541684
0.538000000000000367,-0.343089026211097603
0.539000000000000368,-0.340145860195709304
0.540000000000000369,-0.337305130469651160
0.541000000000000369,-0.334564648034013257
0.542000000000000370,-0.331922253348368446
0.543000000000000371,-0.329375816255753961
0.544000000000000372,-0.326923235896479758
0.545000000000000373,-0.324562440611202430
0.546000000000000374,-0.322291387833763321
0.547000000000000375,-0.320108063974221313
0.548000000000000376,-0.318010484292561235
0.549000000000000377,-0.315996692763450937
0.550000000000000377,-0.314064761932506986
0.551000000000000378,-0.312212792764457125
0.552000000000000379,-0.310438914483588180
0.553000000000000380,-0.308741284406876815
0.554000000000000381,-0.307118087770139492
0.555000000000000382,-0.305567537547614010
0.556000000000000383,-0.304087874265247859
0.557000000000000384,-0.302677365808112775
0.558000000000000385,-0.301334307222192344
0.559000000000000385,-0.300057020510924644
0.560000000000000386,-0.298843854426760924
0.561000000000000387,-0.297693184258065346
0.562000000000000388,-0.296603411611621404
0.563000000000000389,-0.295572964191052556
0.564000000000000390,-0.294600295571389725
0.565000000000000391,-0.293683884970077025
0.566000000000000392,-0.292822237014645936
0.567000000000000393,-0.292013881507326434
0.568000000000000393,-0.291257373186794399
0.569000000000000394,-0.290551291487321506
0.570000000000000395,-0.289894240295517747
0.571000000000000396,-0.289284847704885606
0.572000000000000397,-0.288721765768421346
0.573000000000000398,-0.288203670249392474
0.574000000000000399,-0.287729260370567230
0.575000000000000400,-0.287297258561998448
0.576000000000000401,-0.286906410207594553
0.577000000000000401,-0.286555483390638188
0.578000000000000402,-0.286243268638395942
0.579000000000000403,-0.285968578665973416
0.580000000000000404,-0.285730248119629771
0.581000000000000405,-0.285527133319604665
0.582000000000000406,-0.285358112002675246
0.583000000000000407,-0.285222083064536225
0.584000000000000408,-0.285117966302152581
0.585000000000000409,-0.285044702156187824
0.586000000000000409,-0.285001251453663063
0.587000000000000410,-0.284986595150924060
0.588000000000000411,-0.284999734077043931
0.589000000000000412,-0.285039688677778735
0.590000000000000413,-0.285105498760141851
0.591000000000000414,-0.285196223237728308
0.592000000000000415,-0.285310939876869452
0.593000000000000416,-0.285448745043693441
0.594000000000000417,-0.285608753452187503
0.595000000000000417,-0.285790097913361130
0.596000000000000418,-0.285991929085527175
0.597000000000000419,-0.286213415225857581
0.598000000000000420,-0.286453741943198115
0.599000000000000421,-0.286712111952275861
0.600000000000000422,-0.286987744829320102
0.601000000000000423,-0.287279876769169440
0.602000000000000424,-0.287587760343926302
0.603000000000000425,-0.287910664263211991
0.604000000000000425,-0.288247873136054711
0.605000000000000426,-0.288598687234467743
0.606000000000000427,-0.288962422258806639
0.607000000000000428,-0.289338409104825778
0.608000000000000429,-0.289725993632661882
0.609000000000000430,-0.290124536437555591
0.610000000000000431,-0.290533412622569931
0.611000000000000432,-0.290952011573168634
0.612000000000000433,-0.291379736733750894
0.613000000000000433,-0.291816005386209554
