# Kaolinite-001_CS-23329-AC
# h[nm],U(h)[kJ/mol]
0.149999999999999994,131.938873874318773005
0.150999999999999995,130.244948164203435681
0.151999999999999996,128.261305077410071362
0.152999999999999997,126.258308199475749234
0.153999999999999998,124.326305835295030988
0.154999999999999999,122.474560540040670276
0.156000000000000000,120.683255999999460073
0.157000000000000001,118.928398724777593998
0.158000000000000002,117.191798470582824621
0.159000000000000002,115.463410664650382387
0.160000000000000003,113.740233131767951136
0.161000000000000004,112.024042809500741669
0.162000000000000005,110.319115725549565354
0.163000000000000006,108.630415661196522592
0.164000000000000007,106.962379609311298623
0.165000000000000008,105.318251883105560296
0.166000000000000009,103.699847277153452296
0.167000000000000010,102.107609368116271753
0.168000000000000010,100.540843913356681583
0.169000000000000011,98.998032437968532804
0.170000000000000012,97.477158159393042069
0.171000000000000013,95.976000709222077489
0.172000000000000014,94.492375760590761047
0.173000000000000015,93.024310294077054095
0.174000000000000016,91.570154270563435261
0.175000000000000017,90.128635706171237985
0.176000000000000018,88.698869426820550643
0.177000000000000018,87.280330928873837593
0.178000000000000019,85.872806480311055566
0.179000000000000020,84.476329418237313007
0.180000000000000021,83.091110953144664109
0.181000000000000022,81.717471979630857959
0.182000000000000023,80.355780620664148728
0.183000000000000024,79.006398624378732620
0.184000000000000025,77.669638357279737306
0.185000000000000026,76.345731022547795419
0.186000000000000026,75.034805875460918401
0.187000000000000027,73.736879590443933807
0.188000000000000028,72.451854526385460531
0.189000000000000029,71.179524404544324057
0.190000000000000030,69.919585821836591322
0.191000000000000031,68.671654038624566851
0.192000000000000032,67.435281574741424038
0.193000000000000033,66.209978294890987627
0.194000000000000034,64.995231843614405420
0.195000000000000034,63.790527483776735096
0.196000000000000035,62.595366587959517801
0.197000000000000036,61.409283219640471430
0.198000000000000037,60.231858413939320940
0.199000000000000038,59.062731921768701682
0.200000000000000039,57.901611314179966428
0.201000000000000040,56.748278454764033540
0.202000000000000041,55.602593437539496790
0.203000000000000042,54.464496157018608358
0.204000000000000042,53.334005727817100251
0.205000000000000043,52.211218005326301750
0.206000000000000044,51.096301478807262697
0.207000000000000045,49.989491816037421756
0.208000000000000046,48.891085336513377513
0.209000000000000047,47.801431680221028842
0.210000000000000048,46.720925922985713896
0.211000000000000049,45.650000369063725714
0.212000000000000050,44.589116228367899453
0.213000000000000050,43.538755360766771219
0.214000000000000051,42.499412244272704697
0.215000000000000052,41.471586298472693954
0.216000000000000053,40.455774669909068564
0.217000000000000054,39.452465562783082476
0.218000000000000055,38.462132176694254326
0.219000000000000056,37.485227293386472525
0.220000000000000057,36.522178536789233760
0.221000000000000058,35.573384315088176777
0.222000000000000058,34.639210440120209000
0.223000000000000059,33.719987408018766928
0.224000000000000060,32.816008315631094661
0.225000000000000061,31.927527379670614494
0.226000000000000062,31.054759019708477297
0.227000000000000063,30.197877461790902487
0.228000000000000064,29.357016816533182180
0.229000000000000065,28.532271583818715754
0.230000000000000066,27.723697535567985994
0.231000000000000066,26.931312928277765906
0.232000000000000067,26.155099998024184060
0.233000000000000068,25.395006692236385959
0.234000000000000069,24.650948594657041468
0.235000000000000070,23.922811002399651414
0.236000000000000071,23.210451116789890591
0.237000000000000072,22.513700312647962676
0.238000000000000073,21.832366453757362734
0.239000000000000073,21.166236225403274318
0.240000000000000074,20.515077457992955345
0.241000000000000075,19.878641418848271627
0.242000000000000076,19.256665052244233749
0.243000000000000077,18.648873150627164108
0.244000000000000078,18.054980442659786632
0.245000000000000079,17.474693586287628477
0.246000000000000080,16.907713057392630418
0.247000000000000081,16.353734926783907611
0.248000000000000081,15.812452520273216905
0.249000000000000082,15.283557958390437292
0.250000000000000111,14.766743573915414700
0.251000000000000112,14.261703206843515446
0.252000000000000113,13.768133377666378792
0.253000000000000114,13.285734340949932886
0.254000000000000115,12.814211022131965834
0.255000000000000115,12.353273841256825705
0.256000000000000116,11.902639428021728918
0.257000000000000117,11.462031233040523404
0.258000000000000118,11.031180040647100782
0.259000000000000119,10.609824388871418321
0.260000000000000120,10.197710902437858493
0.261000000000000121,9.794594544768909117
0.262000000000000122,9.400238795034464800
0.263000000000000123,9.014415756280353520
0.264000000000000123,8.636906200605061201
0.265000000000000124,8.267499557241150043
0.266000000000000125,7.905993849243495575
0.267000000000000126,7.552195584298365461
0.268000000000000127,7.205919604950489443
0.269000000000000128,6.866988903307095882
0.270000000000000129,6.535234405021919990
0.271000000000000130,6.210494727093829326
0.272000000000000131,5.892615913738715072
0.273000000000000131,5.581451154311903196
0.274000000000000132,5.276860486976330478
0.275000000000000133,4.978710491530409676
0.276000000000000134,4.686873974532490550
0.277000000000000135,4.401229649587835802
0.278000000000000136,4.121661815399791706
0.279000000000000137,3.848060033932314106
0.280000000000000138,3.580318810786592199
0.281000000000000139,3.318337279660321659
0.282000000000000139,3.062018892536634063
0.283000000000000140,2.811271117039420453
0.284000000000000141,2.566005142194565991
0.285000000000000142,2.326135593651478928
0.286000000000000143,2.091580259246894613
0.287000000000000144,1.862259825633377330
0.288000000000000145,1.638097626546601848
0.289000000000000146,1.419019403150746594
0.290000000000000147,1.204953076776384302
0.291000000000000147,0.995828534253274000
0.292000000000000148,0.791577425937696311
0.293000000000000149,0.592132976442994674
0.294000000000000150,0.397429807999505058
0.295000000000000151,0.207403776297777037
0.296000000000000152,0.021991818604850711
0.297000000000000153,-0.158868186112036985
0.298000000000000154,-0.335237545368302581
0.299000000000000155,-0.507176870006023184
0.300000000000000155,-0.674746180088130587
0.301000000000000156,-0.838005000259788302
0.302000000000000157,-0.997012445016813631
0.303000000000000158,-1.151827294337985474
0.304000000000000159,-1.302508060151231550
0.305000000000000160,-1.449113044111741688
0.306000000000000161,-1.591700387175025266
0.307000000000000162,-1.730328111449004336
0.308000000000000163,-1.865054154807300746
0.309000000000000163,-1.995936398741374518
0.310000000000000164,-2.123032689922232485
0.311000000000000165,-2.246400855933249563
0.312000000000000166,-2.366098715624912252
0.313000000000000167,-2.482184084529828194
0.314000000000000168,-2.594714775762647641
0.315000000000000169,-2.703748596814798510
0.316000000000000170,-2.809343342638441321
0.317000000000000171,-2.911556785397488412
0.318000000000000171,-3.010446661246905187
0.319000000000000172,-3.106070654484406557
0.320000000000000173,-3.198486379401115354
0.321000000000000174,-3.287751360140334533
0.322000000000000175,-3.373923008856260175
0.323000000000000176,-3.457058602446975382
0.324000000000000177,-3.537215258119106753
0.325000000000000178,-3.614449908024417901
0.326000000000000179,-3.688819273192589066
0.327000000000000179,-3.760379836967810085
0.328000000000000180,-3.829187818141542632
0.329000000000000181,-3.895299143958645516
0.330000000000000182,-3.958769423159103074
0.331000000000000183,-4.019653919204094095
0.332000000000000184,-4.078007523821044700
0.333000000000000185,-4.133884730989789702
0.334000000000000186,-4.187339611479486301
0.335000000000000187,-4.238425788034197339
0.336000000000000187,-4.287196411294070586
0.337000000000000188,-4.333704136528133688
0.338000000000000189,-4.378001101245345694
0.339000000000000190,-4.420138903740726377
0.340000000000000191,-4.460168582624717715
0.341000000000000192,-4.498140597375894778
0.342000000000000193,-4.534104809949182524
0.343000000000000194,-4.568110467464927993
0.344000000000000195,-4.600206185997035568
0.345000000000000195,-4.630439935472966617
0.346000000000000196,-4.658859025692012601
0.347000000000000197,-4.685510093463548742
0.348000000000000198,-4.710439090862089451
0.349000000000000199,-4.733691274591501852
0.350000000000000200,-4.755311196447072675
0.351000000000000201,-4.775342694860306381
0.352000000000000202,-4.793828887508312597
0.353000000000000203,-4.810812164966777438
0.354000000000000203,-4.826334185383002406
0.355000000000000204,-4.840435870143143582
0.356000000000000205,-4.853157400506074914
0.357000000000000206,-4.864538215174642133
0.358000000000000207,-4.874617008773292959
0.359000000000000208,-4.883431731200460924
0.360000000000000209,-4.891019587822759362
0.361000000000000210,-4.897417040477316519
0.362000000000000210,-4.902659809248252287
0.363000000000000211,-4.906782874982610565
0.364000000000000212,-4.909820482511107365
0.365000000000000213,-4.911806144538798158
0.366000000000000214,-4.912772646170894930
0.367000000000000215,-4.912752050039106422
0.368000000000000216,-4.911775701994289811
0.369000000000000217,-4.909874237331337099
0.370000000000000218,-4.907077587513008154
0.371000000000000218,-4.903414987359678179
0.372000000000000219,-4.898914982672845753
0.373000000000000220,-4.893605438260840046
0.374000000000000221,-4.887513546335851444
0.375000000000000222,-4.880665835252248286
0.376000000000000223,-4.873088178557138050
0.377000000000000224,-4.864805804324689120
0.378000000000000225,-4.855843304746902511
0.379000000000000226,-4.846224645954245958
0.380000000000000226,-4.835973178040746667
0.381000000000000227,-4.825111645268687077
0.382000000000000228,-4.813662196429504547
0.383000000000000229,-4.801646395338044826
0.384000000000000230,-4.789085231438416024
0.385000000000000231,-4.775999130500855117
0.386000000000000232,-4.762407965389551023
0.387000000000000233,-4.748331066882752083
0.388000000000000234,-4.733787234527049748
0.389000000000000234,-4.718794747508988863
0.390000000000000235,-4.703371375527722442
0.391000000000000236,-4.687534389653626121
0.392000000000000237,-4.671300573158402969
0.393000000000000238,-4.654686232303285820
0.394000000000000239,-4.637707207072518045
0.395000000000000240,-4.620378881840387031
0.396000000000000241,-4.602716195960652179
0.397000000000000242,-4.584733654267999725
0.398000000000000242,-4.566445337482051947
0.399000000000000243,-4.547864912504951285
0.400000000000000244,-4.529005642604367665
0.401000000000000245,-4.509880397474448799
0.402000000000000246,-4.490501663167749236
0.403000000000000247,-4.470881551891918271
0.404000000000000248,-4.451031811665467686
0.405000000000000249,-4.430963835827478547
0.406000000000000250,-4.410688672396682719
0.407000000000000250,-4.390217033275848557
0.408000000000000251,-4.369559303297918085
0.409000000000000252,-4.348725549110779909
0.410000000000000253,-4.327725527898033775
0.411000000000000254,-4.306568695933529867
0.412000000000000255,-4.285264216967782147
0.413000000000000256,-4.263820970444970548
0.414000000000000257,-4.242247559549213953
0.415000000000000258,-4.220552319079597936
0.416000000000000258,-4.198743323153341755
0.417000000000000259,-4.176828392737105489
0.418000000000000260,-4.154815103006514576
0.419000000000000261,-4.132710790534328105
0.420000000000000262,-4.110522560307961371
0.421000000000000263,-4.088257292577215374
0.422000000000000264,-4.065921649533290605
0.423000000000000265,-4.043522081820448477
0.424000000000000266,-4.021064834881822314
0.425000000000000266,-3.998555955140925100
0.426000000000000267,-3.976001296020796438
0.427000000000000268,-3.953406523802677874
0.428000000000000269,-3.930777123326272715
0.429000000000000270,-3.908118403533896501
0.430000000000000271,-3.885435502860691059
0.431000000000000272,-3.862733394473436555
0.432000000000000273,-3.840016891360340967
0.433000000000000274,-3.817290651274463098
0.434000000000000274,-3.794559181533325276
0.435000000000000275,-3.771826843677453578
0.436000000000000276,-3.749097857990576266
0.437000000000000277,-3.726376307884219585
0.438000000000000278,-3.703666144149541761
0.439000000000000279,-3.680971189079281114
0.440000000000000280,-3.658295140462585859
0.441000000000000281,-3.635641575455650809
0.442000000000000282,-3.613013954331082633
0.443000000000000282,-3.590415624108743486
0.444000000000000283,-3.567849822071117671
0.445000000000000284,-3.545319679165940929
0.446000000000000285,-3.522828223298964279
0.447000000000000286,-3.500378382519832687
0.448000000000000287,-3.477972988103668062
0.449000000000000288,-3.455614777531399007
0.450000000000000289,-3.433306397371418850
0.451000000000000290,-3.411050406065407437
0.452000000000000290,-3.388849276621056283
0.453000000000000291,-3.366705399214263927
0.454000000000000292,-3.344621083703569919
0.455000000000000293,-3.322598562059312144
0.456000000000000294,-3.300639990710151128
0.457000000000000295,-3.278747452809452678
0.458000000000000296,-3.256922960423973556
0.459000000000000297,-3.235168456647330881
0.460000000000000298,-3.213485817640581388
0.461000000000000298,-3.191876854602313518
0.462000000000000299,-3.170343315670478557
0.463000000000000300,-3.148886887758209241
0.464000000000000301,-3.127509198325864936
0.465000000000000302,-3.106211817091406147
0.466000000000000303,-3.084996257681152265
0.467000000000000304,-3.063863979223069745
0.468000000000000305,-3.042816387884459406
0.469000000000000306,-3.021854838356063944
0.470000000000000306,-3.000980635284510534
0.471000000000000307,-2.980195034654790742
0.472000000000000308,-2.959499245124763256
0.473000000000000309,-2.938894429313271495
0.474000000000000310,-2.918381705043638252
0.475000000000000311,-2.897962146544162287
0.476000000000000312,-2.877636785607269765
0.477000000000000313,-2.857406612708778937
0.478000000000000314,-2.837272578088842145
0.479000000000000314,-2.817235592796066168
0.480000000000000315,-2.797296529696096989
0.481000000000000316,-2.777456224446212651
0.482000000000000317,-2.757715476437072155
0.483000000000000318,-2.738075049703051711
0.484000000000000319,-2.718535673802308317
0.485000000000000320,-2.699098044667846086
0.486000000000000321,-2.679762825430682227
0.487000000000000322,-2.660530647216295286
0.488000000000000322,-2.641402109915333529
0.489000000000000323,-2.622377782929787848
0.490000000000000324,-2.603458205895479161
0.491000000000000325,-2.584643889381926130
0.492000000000000326,-2.565935315570459618
0.493000000000000327,-2.547332938911576861
0.494000000000000328,-2.528837186762291189
0.495000000000000329,-2.510448460004412574
0.496000000000000330,-2.492167133644465515
0.497000000000000330,-2.473993557396128029
0.498000000000000331,-2.455928056245783697
0.499000000000000332,-2.437970931002069186
0.500000000000000333,-2.420122458829973233
0.501000000000000334,-2.402382893770168337
0.502000000000000335,-2.384752467244249718
0.503000000000000336,-2.367231388546440662
0.504000000000000337,-2.349819845322363321
0.505000000000000338,-2.332518004035396775
0.506000000000000338,-2.315326010421212111
0.507000000000000339,-2.298243989930925046
0.508000000000000340,-2.281272048163368371
0.509000000000000341,-2.264410271287019327
0.510000000000000342,-2.247658726451887468
0.511000000000000343,-2.231017462191929646
0.512000000000000344,-2.214486508818278132
0.513000000000000345,-2.198065878803732165
0.514000000000000346,-2.181755567158903730
0.515000000000000346,-2.165555551800269818
0.516000000000000347,-2.149465793910546818
0.517000000000000348,-2.133486238291721460
0.518000000000000349,-2.117616813710926582
0.519000000000000350,-2.101857433239589845
0.520000000000000351,-2.086207994586010361
0.521000000000000352,-2.070668380421724741
0.522000000000000353,-2.055238458701817983
0.523000000000000353,-2.039918082979455871
0.524000000000000354,-2.024707092714893797
0.525000000000000355,-2.009605313579099661
0.526000000000000356,-1.994612557752226234
0.527000000000000357,-1.979728624217168331
0.528000000000000358,-1.964953299048262547
0.529000000000000359,-1.950286355695455054
0.530000000000000360,-1.935727555263938582
0.531000000000000361,-1.921276646789546350
0.532000000000000361,-1.906933367509936250
0.533000000000000362,-1.892697443131783785
0.534000000000000363,-1.878568588094046587
0.535000000000000364,-1.864546505827462397
0.536000000000000365,-1.850630889010362878
0.537000000000000366,-1.836821419820946488
0.538000000000000367,-1.823117770186028164
0.539000000000000368,-1.809519602026502083
0.540000000000000369,-1.796026567499425131
0.541000000000000369,-1.782638309236977303
0.542000000000000370,-1.769354460582234223
0.543000000000000371,-1.756174645821907632
0.544000000000000372,-1.743098480416103602
0.545000000000000373,-1.730125571225148873
0.546000000000000374,-1.717255516733541487
0.547000000000000375,-1.704487907271087677
0.548000000000000376,-1.691822325231307378
0.549000000000000377,-1.679258345287088616
0.550000000000000377,-1.666795534603698670
0.551000000000000378,-1.654433453049146463
0.552000000000000379,-1.642171653401984344
0.553000000000000380,-1.630009681556535472
0.554000000000000381,-1.617947076725590350
0.555000000000000382,-1.605983371640672841
0.556000000000000383,-1.594118092749754467
0.557000000000000384,-1.582350760412638557
0.558000000000000385,-1.570680889093840182
0.559000000000000385,-1.559107987553159713
0.560000000000000386,-1.547631559033841864
0.561000000000000387,-1.536251101448420808
0.562000000000000388,-1.524966107562211182
0.563000000000000389,-1.513776065174532004
0.564000000000000390,-1.502680457297598027
0.565000000000000391,-1.491678762333161767
0.566000000000000392,-1.480770454246873813
0.567000000000000393,-1.469955002740418681
0.568000000000000393,-1.459231873421385606
0.569000000000000394,-1.448600527970921537
0.570000000000000395,-1.438060424309195673
0.571000000000000396,-1.427611016758601359
0.572000000000000397,-1.417251756204839674
0.573000000000000398,-1.406982090255736839
0.574000000000000399,-1.396801463397963960
0.575000000000000400,-1.386709317151517906
0.576000000000000401,-1.376705090222077654
0.577000000000000401,-1.366788218651228126
0.578000000000000402,-1.356958135964499323
0.579000000000000403,-1.347214273317277389
0.580000000000000404,-1.337556059638625339
0.581000000000000405,-1.327982921772929092
0.582000000000000406,-1.318494284619476486
0.583000000000000407,-1.309089571269893781
0.584000000000000408,-1.299768203143513379
0.585000000000000409,-1.290529600120633003
0.586000000000000409,-1.281373180673694545
0.587000000000000410,-1.272298361996401450
0.588000000000000411,-1.263304560130745324
0.589000000000000412,-1.254391190092007502
0.590000000000000413,-1.245557665991675167
0.591000000000000414,-1.236803401158330207
0.592000000000000415,-1.228127808256526565
0.593000000000000416,-1.219530299403605467
0.594000000000000417,-1.211010286284503357
0.595000000000000417,-1.202567180264607849
0.596000000000000418,-1.194200392500520014
0.597000000000000419,-1.185909334048933950
0.598000000000000420,-1.177693415973455782
0.599000000000000421,-1.169552049449518405
0.600000000000000422,-1.161484645867304710
0.601000000000000423,-1.153490616932739687
0.602000000000000424,-1.145569374766550519
0.603000000000000425,-1.137720332001412871
0.604000000000000425,-1.129942901877168504
0.605000000000000426,-1.122236498334151289
0.606000000000000427,-1.114600536104674244
0.607000000000000428,-1.107034430802528835
0.608000000000000429,-1.099537599010792510
0.609000000000000430,-1.092109458367609198
0.610000000000000431,-1.084749427650289366
0.611000000000000432,-1.077456926857500275
0.612000000000000433,-1.070231377289665220
0.613000000000000433,-1.063072201627607738
