# Kaolinite-001_METHANAL-AC
# h[nm],U(h)[kJ/mol]
0.149999999999999994,69.456572658602240722
0.150999999999999995,68.500054232589789649
0.151999999999999996,67.418466253942341382
0.152999999999999997,66.274857365492465533
0.153999999999999998,65.112344041680273676
0.154999999999999999,63.956589116495763392
0.156000000000000000,62.820184184459129995
0.157000000000000001,61.707076751693833216
0.158000000000000002,60.616241761547179578
0.159000000000000002,59.544370611130105431
0.160000000000000003,58.487634583940327104
0.161000000000000004,57.442697096939312473
0.162000000000000005,56.407176458164748567
0.163000000000000006,55.379743684177618945
0.164000000000000007,54.360004758039792705
0.165000000000000008,53.348277936856234760
0.166000000000000009,52.345341496767083811
0.167000000000000010,51.352198548626553531
0.168000000000000010,50.369883845280710943
0.169000000000000011,49.399322226492969889
0.170000000000000012,48.441238409108770213
0.171000000000000013,47.496112014909691368
0.172000000000000014,46.564168910325030026
0.173000000000000015,45.645399158522593552
0.174000000000000016,44.739592401520468457
0.175000000000000017,43.846382732609285426
0.176000000000000018,42.965296685455946601
0.177000000000000018,42.095799586084773125
0.178000000000000019,41.237337020006322064
0.179000000000000020,40.389369466953866095
0.180000000000000021,39.551399210910275883
0.181000000000000022,38.722989439600198125
0.182000000000000023,37.903776023485924895
0.183000000000000024,37.093472839634024751
0.184000000000000025,36.291871715791458541
0.185000000000000026,35.498838150276050385
0.186000000000000026,34.714303947101100789
0.187000000000000027,33.938257822380663242
0.188000000000000028,33.170734912056659027
0.189000000000000029,32.411805962108182655
0.190000000000000030,31.661566825857768492
0.191000000000000031,30.920128739943351093
0.192000000000000032,30.187609708678348142
0.193000000000000033,29.464127200722820987
0.194000000000000034,28.749792254826481042
0.195000000000000034,28.044705003734911486
0.196000000000000035,27.348951556772437499
0.197000000000000036,26.662602130848693349
0.198000000000000037,25.985710284851194274
0.199000000000000038,25.318313091444810681
0.200000000000000039,24.660432070955931039
0.201000000000000040,24.012074712050996084
0.202000000000000041,23.373236411233939691
0.203000000000000042,22.743902675879731135
0.204000000000000042,22.124051451911078914
0.205000000000000043,21.513655455877973566
0.206000000000000044,20.912684410914973654
0.207000000000000045,20.321107105867731946
0.208000000000000046,19.738893216044353096
0.209000000000000047,19.166014841999537310
0.210000000000000048,18.602447739105958391
0.211000000000000049,18.048172225158921833
0.212000000000000050,17.503173765761442127
0.213000000000000050,16.967443247714712129
0.214000000000000051,16.440976959128256851
0.215000000000000052,15.923776301562719837
0.216000000000000053,15.415847264362422919
0.217000000000000054,14.917199694587822023
0.218000000000000055,14.427846397800900391
0.219000000000000056,13.947802105578009702
0.220000000000000057,13.477082345208163616
0.221000000000000058,13.015702245768485668
0.222000000000000058,12.563675312815911767
0.223000000000000059,12.121012201461660140
0.224000000000000060,11.687719514740690485
0.225000000000000061,11.263798651083778424
0.226000000000000062,10.849244721455182372
0.227000000000000063,10.444045553430784778
0.228000000000000064,10.048180796240941959
0.229000000000000065,9.661621137653490621
0.230000000000000066,9.284327640580551488
0.231000000000000066,8.916251204495598159
0.232000000000000067,8.557332154176695127
0.233000000000000068,8.207499955965484872
0.234000000000000069,7.866673059662710799
0.235000000000000070,7.534758862372989086
0.236000000000000071,7.211653789063535491
0.237000000000000072,6.897243483305977918
0.238000000000000073,6.591403100618282274
0.239000000000000073,6.293997696001286002
0.240000000000000074,6.004882696654492591
0.241000000000000075,5.723904450444125658
0.242000000000000076,5.450900840462341357
0.243000000000000077,5.185701955942504604
0.244000000000000078,4.928130809863115580
0.245000000000000079,4.678004093763137305
0.246000000000000080,4.435132960587648832
0.247000000000000081,4.199323826766248935
0.248000000000000081,3.970379185183489312
0.249000000000000082,3.748098421214532294
0.250000000000000111,3.532278624556813185
0.251000000000000112,3.322715390177999772
0.252000000000000113,3.119203602309068568
0.253000000000000114,2.921538196031371548
0.254000000000000115,2.729514891626194206
0.255000000000000115,2.542930897469660501
0.256000000000000116,2.361585577856296858
0.257000000000000117,2.185281082716506340
0.258000000000000118,2.013822936752128978
0.259000000000000119,1.847020586045551749
0.260000000000000120,1.684687900699406438
0.261000000000000121,1.526643632533446704
0.262000000000000122,1.372711827300583831
0.263000000000000123,1.222722191285306348
0.264000000000000123,1.076510412513399073
0.265000000000000124,0.933918437132954637
0.266000000000000125,0.794794701822758132
0.267000000000000126,0.658994323346735800
0.268000000000000127,0.526379246602439954
0.269000000000000128,0.396818352709838895
0.270000000000000129,0.270187528854382353
0.271000000000000130,0.146369701737574076
0.272000000000000131,0.025254836600868070
0.273000000000000131,-0.093260096124104436
0.274000000000000132,-0.209271184421818912
0.275000000000000133,-0.322867666396114528
0.276000000000000134,-0.434132047887999306
0.277000000000000135,-0.543140243820483315
0.278000000000000136,-0.649961741094333911
0.279000000000000137,-0.754659780884189169
0.280000000000000138,-0.857291558222738281
0.281000000000000139,-0.957908436810594233
0.282000000000000139,-1.056556177048659784
0.283000000000000140,-1.153275175357650451
0.284000000000000141,-1.248100712924075539
0.285000000000000142,-1.341063212092586054
0.286000000000000143,-1.432188498709673130
0.287000000000000144,-1.521498068812332294
0.288000000000000145,-1.609009358146862301
0.289000000000000146,-1.694736013095547333
0.290000000000000147,-1.778688161683313451
0.291000000000000147,-1.860872683430110142
0.292000000000000148,-1.941293476908718674
0.293000000000000149,-2.019951723959910073
0.294000000000000150,-2.096846149608022181
0.295000000000000151,-2.171973276808958353
0.296000000000000152,-2.245327675249118471
0.297000000000000153,-2.316902203497697155
0.298000000000000154,-2.386688243895627615
0.299000000000000155,-2.454675929642107679
0.300000000000000155,-2.520854363613959759
0.301000000000000156,-2.585211828523737321
0.302000000000000157,-2.647735988089801928
0.303000000000000158,-2.708414078954826110
0.304000000000000159,-2.767233093149127132
0.305000000000000160,-2.824179950951045015
0.306000000000000161,-2.879241664049029481
0.307000000000000162,-2.932405488958688800
0.308000000000000163,-2.983659070693010840
0.309000000000000163,-3.032990576725555609
0.310000000000000164,-3.080388821324429038
0.311000000000000165,-3.125843380369512925
0.312000000000000166,-3.169344696796991379
0.313000000000000167,-3.210884176843494142
0.314000000000000168,-3.250454277287604832
0.315000000000000169,-3.288048583908953937
0.316000000000000170,-3.323661881405037377
0.317000000000000171,-3.357290215022978863
0.318000000000000171,-3.388930944178290439
0.319000000000000172,-3.418582788345241763
0.320000000000000173,-3.446245865513598794
0.321000000000000174,-3.471921723514855618
0.322000000000000175,-3.495613364527459854
0.323000000000000176,-3.517325263075083086
0.324000000000000177,-3.537063377835041766
0.325000000000000178,-3.554835157575247706
0.326000000000000179,-3.570649541538448268
0.327000000000000179,-3.584516954590931448
0.328000000000000180,-3.596449297450732274
0.329000000000000181,-3.606459932306969929
0.330000000000000182,-3.614563664137300236
0.331000000000000183,-3.620776718025588536
0.332000000000000184,-3.625116712775577898
0.333000000000000185,-3.627602631109871023
0.334000000000000186,-3.628254786736190507
0.335000000000000187,-3.627094788555095928
0.336000000000000187,-3.624145502275216479
0.337000000000000188,-3.619431009693296453
0.338000000000000189,-3.612976565887693337
0.339000000000000190,-3.604808554564693512
0.340000000000000191,-3.594954441787641120
0.341000000000000192,-3.583442728309685243
0.342000000000000193,-3.570302900721046946
0.343000000000000194,-3.555565381612521669
0.344000000000000195,-3.539261478946909456
0.345000000000000195,-3.521423334821000228
0.346000000000000196,-3.502083873790785340
0.347000000000000197,-3.481276750923519181
0.348000000000000198,-3.459036299730827047
0.349000000000000199,-3.435397480127922787
0.350000000000000200,-3.410395826555205900
0.351000000000000201,-3.384067396389508708
0.352000000000000202,-3.356448718763920258
0.353000000000000203,-3.327576743906662582
0.354000000000000203,-3.297488793101444937
0.355000000000000204,-3.266222509363752469
0.356000000000000205,-3.233815808920073920
0.357000000000000206,-3.200306833569626974
0.358000000000000207,-3.165733904000937571
0.359000000000000208,-3.130135474129059237
0.360000000000000209,-3.093550086512415032
0.361000000000000210,-3.056016328902082968
0.362000000000000210,-3.017572791970271950
0.363000000000000211,-2.978258028259021195
0.364000000000000212,-2.938110512384670248
0.365000000000000213,-2.897168602528365167
0.366000000000000214,-2.855470503238021873
0.367000000000000215,-2.813054229562335085
0.368000000000000216,-2.769957572533132684
0.369000000000000217,-2.726218066007999763
0.370000000000000218,-2.681872954881335147
0.371000000000000218,-2.636959164668087219
0.372000000000000219,-2.591513272461104300
0.373000000000000220,-2.545571479259657544
0.374000000000000221,-2.499169583663742422
0.375000000000000222,-2.452342956925781969
0.376000000000000223,-2.405126519348946612
0.377000000000000224,-2.357554718018660900
0.378000000000000225,-2.309661505851753116
0.379000000000000226,-2.261480321945575689
0.380000000000000226,-2.213044073207639961
0.381000000000000227,-2.164385117244386869
0.382000000000000228,-2.115535246486436982
0.383000000000000229,-2.066525673526018458
0.384000000000000230,-2.017387017641096847
0.385000000000000231,-1.968149292479731471
0.386000000000000232,-1.918841894876956555
0.387000000000000233,-1.869493594775877510
0.388000000000000234,-1.820132526223719349
0.389000000000000234,-1.770786179413141870
0.390000000000000235,-1.721481393738412580
0.391000000000000236,-1.672244351835810550
0.392000000000000237,-1.623100574577117872
0.393000000000000238,-1.574074916985016115
0.394000000000000239,-1.525191565038867214
0.395000000000000240,-1.476474033339445935
0.396000000000000241,-1.427945163601109568
0.397000000000000242,-1.379627123939930478
0.398000000000000242,-1.331541408926583570
0.399000000000000243,-1.283708840372835835
0.400000000000000244,-1.236149568820728240
0.401000000000000245,-1.188883075704055825
0.402000000000000246,-1.141928176151764784
0.403000000000000247,-1.095303022403517623
0.404000000000000248,-1.049025107808030155
0.405000000000000249,-1.003111271375215274
0.406000000000000250,-0.957577702853670942
0.407000000000000250,-0.912439948305612925
0.408000000000000251,-0.867712916151804237
0.409000000000000252,-0.823410883659729365
0.410000000000000253,-0.779547503848698975
0.411000000000000254,-0.736135812786311239
0.412000000000000255,-0.693188237251211148
0.413000000000000256,-0.650716602737792194
0.414000000000000257,-0.608732141779045666
0.415000000000000258,-0.567245502564525550
0.416000000000000258,-0.526266757830912368
0.417000000000000259,-0.485805414003445957
0.418000000000000260,-0.445870420567079484
0.419000000000000261,-0.406470179646873930
0.420000000000000262,-0.367612555777882044
0.421000000000000263,-0.329304885845337680
0.422000000000000264,-0.291553989176705497
0.423000000000000265,-0.254366177767702706
0.424000000000000266,-0.217747266625230390
0.425000000000000266,-0.181702584210542362
0.426000000000000267,-0.146236982966857582
0.427000000000000268,-0.111354849916087684
0.428000000000000269,-0.077060117310036175
0.429000000000000270,-0.043356273322069240
0.430000000000000271,-0.010246372765736967
0.431000000000000272,0.022266952172435149
0.432000000000000273,0.054181481198300928
0.433000000000000274,0.085495395185268205
0.434000000000000274,0.116207265470495757
0.435000000000000275,0.146316043182655869
0.436000000000000276,0.175821048611375319
0.437000000000000277,0.204721960627921445
0.438000000000000278,0.233018806166151032
0.439000000000000279,0.260711949772291340
0.440000000000000280,0.287802083231646244
0.441000000000000281,0.314290215279826479
0.442000000000000282,0.340177661405625220
0.443000000000000282,0.365466033752336661
0.444000000000000283,0.390157231123702597
0.445000000000000284,0.414253429100418014
0.446000000000000285,0.437757070272704663
0.447000000000000286,0.460670854593899115
0.448000000000000287,0.482997729859925784
0.449000000000000288,0.504740882318857831
0.450000000000000289,0.525903727414654076
0.451000000000000290,0.546489900668667650
0.452000000000000290,0.566503248702274198
0.453000000000000291,0.585947820403646014
0.454000000000000292,0.604827858241345107
0.455000000000000293,0.623147789727210522
0.456000000000000294,0.640912219030630004
0.457000000000000295,0.658125918746109817
0.458000000000000296,0.674793821815739325
0.459000000000000297,0.690921013607943557
0.460000000000000298,0.706512724153643412
0.461000000000000298,0.721574320540753655
0.462000000000000299,0.736111299467705593
0.463000000000000300,0.750129279956514461
0.464000000000000301,0.763633996225667078
0.465000000000000302,0.776631290722944678
0.466000000000000303,0.789127107318151721
0.467000000000000304,0.801127484655508981
0.468000000000000305,0.812638549665285259
0.469000000000000306,0.823666511234207754
0.470000000000000306,0.834217654033894140
0.471000000000000307,0.844298332506559945
0.472000000000000308,0.853914965007003479
0.473000000000000309,0.863074028099864221
0.474000000000000310,0.871782051010933756
0.475000000000000311,0.880045610231293685
0.476000000000000312,0.887871324272836659
0.477000000000000313,0.895265848573795986
0.478000000000000314,0.902235870552656083
0.479000000000000314,0.908788104808833652
0.480000000000000315,0.914929288468454893
0.481000000000000316,0.920666176673398673
0.482000000000000317,0.926005538211831514
0.483000000000000318,0.930954151288280185
0.484000000000000319,0.935518799431356074
0.485000000000000320,0.939706267537067541
0.486000000000000321,0.943523338045751947
0.487000000000000322,0.946976787250489282
0.488000000000000322,0.950073381734944045
0.489000000000000323,0.952819874938427125
0.490000000000000324,0.955223003846069951
0.491000000000000325,0.957289485801869233
0.492000000000000326,0.959026015442429602
0.493000000000000327,0.960439261749146289
0.494000000000000328,0.961535865216586294
0.495000000000000329,0.962322435134847609
0.496000000000000330,0.962805546983590665
0.497000000000000330,0.962991739935514346
0.498000000000000331,0.962887514466996386
0.499000000000000332,0.962499330073629644
0.500000000000000333,0.961833603088393163
0.501000000000000334,0.960896704600215257
0.502000000000000335,0.959694958470653448
0.503000000000000336,0.958234639446467584
0.504000000000000337,0.956521971365859258
0.505000000000000338,0.954563125456143857
0.506000000000000338,0.952364218720664013
0.507000000000000339,0.949931312412765072
0.508000000000000340,0.947270410594644785
0.509000000000000341,0.944387458778943367
0.510000000000000342,0.941288342650936860
0.511000000000000343,0.937978886869225148
0.512000000000000344,0.934464853942833407
0.513000000000000345,0.930751943182657526
0.514000000000000346,0.926845789725213920
0.515000000000000346,0.922751963626690874
0.516000000000000347,0.918475969025310035
0.517000000000000348,0.914023243370012395
0.518000000000000349,0.909399156713583068
0.519000000000000350,0.904609011068273516
0.520000000000000351,0.899658039822039846
0.521000000000000352,0.894551407213582395
0.522000000000000353,0.889294207864332109
0.523000000000000353,0.883891466365614553
0.524000000000000354,0.878348136919227529
0.525000000000000355,0.872669103029693027
0.526000000000000356,0.866859177246508628
0.527000000000000357,0.860923100954692044
0.528000000000000358,0.854865544212023876
0.529000000000000359,0.848691105631348419
0.530000000000000360,0.842404312306374026
0.531000000000000361,0.836009619779417790
0.532000000000000361,0.829511412049597441
0.533000000000000362,0.822914001619953650
0.534000000000000363,0.816221629582092989
0.535000000000000364,0.809438465736894819
0.536000000000000365,0.802568608749907542
0.537000000000000366,0.795616086340066198
0.538000000000000367,0.788584855500412352
0.539000000000000368,0.781478802749491885
0.540000000000000369,0.774301744412188020
0.541000000000000369,0.767057426928726138
0.542000000000000370,0.759749527190646368
0.543000000000000371,0.752381652902569087
0.544000000000000372,0.744957342968576852
0.545000000000000373,0.737480067902112069
0.546000000000000374,0.729953230258273855
0.547000000000000375,0.722380165087459281
0.548000000000000376,0.714764140409282822
0.549000000000000377,0.707108357705790391
0.550000000000000377,0.699415952432956400
0.551000000000000378,0.691689994549500198
0.552000000000000379,0.683933489062113376
0.553000000000000380,0.676149376586141049
0.554000000000000381,0.668340533920882884
0.555000000000000382,0.660509774638612712
0.556000000000000383,0.652659849686505922
0.557000000000000384,0.644793448000646974
0.558000000000000385,0.636913197131345532
0.559000000000000385,0.629021663878971182
0.560000000000000386,0.621121354939602410
0.561000000000000387,0.613214717559727340
0.562000000000000388,0.605304140199335428
0.563000000000000389,0.597391953202697001
0.564000000000000390,0.589480429476198942
0.565000000000000391,0.581571785172584566
0.566000000000000392,0.573668180380998316
0.567000000000000393,0.565771719822229624
0.568000000000000393,0.557884453548599168
0.569000000000000394,0.550008377647905222
0.570000000000000395,0.542145434950938254
0.571000000000000396,0.534297515742000906
0.572000000000000397,0.526466458471956500
0.573000000000000398,0.518654050473337791
0.574000000000000399,0.510862028677017133
0.575000000000000400,0.503092080330029057
0.576000000000000401,0.495345843714084133
0.577000000000000401,0.487624908864379036
0.578000000000000402,0.479930818288284988
0.579000000000000403,0.472265067683563800
0.580000000000000404,0.464629106655699231
0.581000000000000405,0.457024339434027038
0.582000000000000406,0.449452125586305040
0.583000000000000407,0.441913780731394312
0.584000000000000408,0.434410577249760621
0.585000000000000409,0.426943744991477192
0.586000000000000409,0.419514471981438652
0.587000000000000410,0.412123905121538292
0.588000000000000411,0.404773150889523925
0.589000000000000412,0.397463276034286661
0.590000000000000413,0.390195308267354546
0.591000000000000414,0.382970236950356924
0.592000000000000415,0.375789013778244141
0.593000000000000416,0.368652553458057475
0.594000000000000417,0.361561734383055278
0.595000000000000417,0.354517399302017089
0.596000000000000418,0.347520355983532148
0.597000000000000419,0.340571377875133696
0.598000000000000420,0.333671204757094997
0.599000000000000421,0.326820543390765050
0.600000000000000422,0.320020068161280813
0.601000000000000423,0.313270421714551772
0.602000000000000424,0.306572215588374497
0.603000000000000425,0.299926030837559920
0.604000000000000425,0.293332418652996252
0.605000000000000426,0.286791900974518454
0.606000000000000427,0.280304971097491751
0.607000000000000428,0.273872094273066469
0.608000000000000429,0.267493708301943856
0.609000000000000430,0.261170224121693884
0.610000000000000431,0.254902026387441416
0.611000000000000432,0.248689474045945547
0.612000000000000433,0.242532900902995785
0.613000000000000433,0.236432616184040822
0.614000000000000434,0.230388905088070584
0.615000000000000435,0.224402029334666769
0.616000000000000436,0.218472227704201188
0.617000000000000437,0.212599716571164665
0.618000000000000438,0.206784690430598328
