# Kaolinite-001_TANNIC-ARM-ANION-AC
# h[nm],U(h)[kJ/mol]
0.149999999999999994,139.534057535499158575
0.150999999999999995,136.419818976990740111
0.151999999999999996,134.622964288450020831
0.152999999999999997,133.206400566572426669
0.153999999999999998,131.770370776630016962
0.154999999999999999,130.193352794812255979
0.156000000000000000,128.481998458381298178
0.157000000000000001,126.688912483779901663
0.158000000000000002,124.871363412602065068
0.159000000000000002,123.073677286209999693
0.160000000000000003,121.322513817775188727
0.161000000000000004,119.628468872180718563
0.162000000000000005,117.990190475047967311
0.163000000000000006,116.398929154336613578
0.164000000000000007,114.842506606720618834
0.165000000000000008,113.308312189388175284
0.166000000000000009,111.785282473905937195
0.167000000000000010,110.264990890238522070
0.168000000000000010,108.742042190434716531
0.169000000000000011,107.213975309444805362
0.170000000000000012,105.680856771103364622
0.171000000000000013,104.144712533096026164
0.172000000000000014,102.608909235968738471
0.173000000000000015,101.077561676880577579
0.174000000000000016,99.555014499695602126
0.175000000000000017,98.045423355221799966
0.176000000000000018,96.552443926690969533
0.177000000000000018,95.079025524119884949
0.178000000000000019,93.627298517177493409
0.179000000000000020,92.198540768990739025
0.180000000000000021,90.793206598047916600
0.181000000000000022,89.411001897958058748
0.182000000000000023,88.050990286140844887
0.183000000000000024,86.711717064153020829
0.184000000000000025,85.391340003133691994
0.185000000000000026,84.087758266188075140
0.186000000000000026,82.798732975004483592
0.187000000000000027,81.521994913966011609
0.188000000000000028,80.255336583218223723
0.189000000000000029,78.996687239698800909
0.190000000000000030,77.744170703856681826
0.191000000000000031,76.496146577822713652
0.192000000000000032,75.251236146113996028
0.193000000000000033,74.008334645526474560
0.194000000000000034,72.766611831221979401
0.195000000000000034,71.525502864817639193
0.196000000000000035,70.284691538827502200
0.197000000000000036,69.044087758090284979
0.198000000000000037,67.803801047113296363
0.199000000000000038,66.564111663013335374
0.200000000000000039,65.325440683683993370
0.201000000000000040,64.088320223272575049
0.202000000000000041,62.853364712242296264
0.203000000000000042,61.621243974785237185
0.204000000000000042,60.392658647409440675
0.205000000000000043,59.168318312542567128
0.206000000000000044,57.948922571826678052
0.207000000000000045,56.735145156076576711
0.208000000000000046,55.527621062367686022
0.209000000000000047,54.326936622451306391
0.210000000000000048,53.133622339245690114
0.211000000000000049,51.948148277783239735
0.212000000000000050,50.770921761803130323
0.213000000000000050,49.602287105199039274
0.214000000000000051,48.442527096804354869
0.215000000000000052,47.291865955650607134
0.216000000000000053,46.150473480107663704
0.217000000000000054,45.018470126595545366
0.218000000000000055,43.895932770398289335
0.219000000000000056,42.782900921230826441
0.220000000000000057,41.679383188497759249
0.221000000000000058,40.585363814697707596
0.222000000000000058,39.500809119368149425
0.223000000000000059,38.425673719698409059
0.224000000000000060,37.359906416933455375
0.225000000000000061,36.303455659558963475
0.226000000000000062,35.256274514694766253
0.227000000000000063,34.218325097924655154
0.228000000000000064,33.189582428825545435
0.229000000000000065,32.170037694655718497
0.230000000000000066,31.159700918012521953
0.231000000000000066,30.158603035796772929
0.232000000000000067,29.166797406591278730
0.233000000000000068,28.184360771657924971
0.234000000000000069,27.211393701292156067
0.235000000000000070,26.248020563362814528
0.236000000000000071,25.294389054639097481
0.237000000000000072,24.350669338093034355
0.238000000000000073,23.417052830902143512
0.239000000000000073,22.493750688489953404
0.240000000000000074,21.580992029754234807
0.241000000000000075,20.679021947770834799
0.242000000000000076,19.788099348829213397
0.243000000000000077,18.908494660761416384
0.244000000000000078,18.040487449265139475
0.245000000000000079,17.184363978377358961
0.246000000000000080,16.340414748508742093
0.247000000000000081,15.508932042564925524
0.248000000000000081,14.690207507724181824
0.249000000000000082,13.884529797460682943
0.250000000000000111,13.092182295444903417
0.251000000000000112,12.313440940055295769
0.252000000000000113,11.548572165428488745
0.253000000000000114,10.797830972287812301
0.254000000000000115,10.061459139235877203
0.255000000000000115,9.339683582798333106
0.256000000000000116,8.632714872267980510
0.257000000000000117,7.940745903331892563
0.258000000000000118,7.263950732572268976
0.259000000000000119,6.602483573213850931
0.260000000000000120,5.956477950947552280
0.261000000000000121,5.326046017287633383
0.262000000000000122,4.711278016712094896
0.263000000000000123,4.112241902788805525
0.264000000000000123,3.528983097593157758
0.265000000000000124,2.961524387971143923
0.266000000000000125,2.409865951583893828
0.267000000000000126,1.873985505177933053
0.268000000000000127,1.353838567148904826
0.269000000000000128,0.849358826198360339
0.270000000000000129,0.360458607710752776
0.271000000000000130,-0.112970570606162030
0.272000000000000131,-0.571057362278546754
0.273000000000000131,-1.013949883217524883
0.274000000000000132,-1.441814938732205675
0.275000000000000133,-1.854837194491786079
0.276000000000000134,-2.253218299295901339
0.277000000000000135,-2.637175967243949870
0.278000000000000136,-3.006943026594655954
0.279000000000000137,-3.362766442279016221
0.280000000000000138,-3.704906318680627919
0.281000000000000139,-4.033634888933066875
0.282000000000000139,-4.349235496606421947
0.283000000000000140,-4.652001575271650147
0.284000000000000141,-4.942235631043195632
0.285000000000000142,-5.220248232812704003
0.286000000000000143,-5.486357014501196616
0.287000000000000144,-5.740885693277088642
0.288000000000000145,-5.984163107315560559
0.289000000000000146,-6.216522276311139628
0.290000000000000147,-6.438299487604737692
0.291000000000000147,-6.649833410446404969
0.292000000000000148,-6.851464240590503962
0.293000000000000149,-7.043532877108288126
0.294000000000000150,-7.226380133008014184
0.295000000000000151,-7.400345980972315552
0.296000000000000152,-7.565768835258824154
0.297000000000000153,-7.722984870562330961
0.298000000000000154,-7.872327378405243437
0.299000000000000155,-8.014126161407769899
0.300000000000000155,-8.148706965589742168
0.301000000000000156,-8.276390950672123381
0.302000000000000157,-8.397494198177977154
0.303000000000000158,-8.512327256978514001
0.304000000000000159,-8.621194725791003322
0.305000000000000160,-8.724394872009339608
0.306000000000000161,-8.822219286136176564
0.307000000000000162,-8.914952570985803959
0.308000000000000163,-9.002872064739483093
0.309000000000000163,-9.086247596858797237
0.310000000000000164,-9.165341275797592502
0.311000000000000165,-9.240407307397640935
0.312000000000000166,-9.311691842808050623
0.313000000000000167,-9.379432854731586389
0.314000000000000168,-9.443860040772795728
0.315000000000000169,-9.505194752642401212
0.316000000000000170,-9.563649949959046381
0.317000000000000171,-9.619430177382339409
0.318000000000000171,-9.672731563810398114
0.319000000000000172,-9.723741842379999056
0.320000000000000173,-9.772640390016576362
0.321000000000000174,-9.819598285295622730
0.322000000000000175,-9.864778383395348627
0.323000000000000176,-9.908335406941791490
0.324000000000000177,-9.950416051572888776
0.325000000000000178,-9.991159105075274383
0.326000000000000179,-10.030695578978200189
0.327000000000000179,-10.069148851520711929
0.328000000000000180,-10.106634820942369757
0.329000000000000181,-10.143262068083354066
0.330000000000000182,-10.179132027316025955
0.331000000000000183,-10.214339164867993759
0.332000000000000184,-10.248971163634426063
0.333000000000000185,-10.283109113616433206
0.334000000000000186,-10.316827707160975081
0.335000000000000187,-10.350195438216891475
0.336000000000000187,-10.383274804860610274
0.337000000000000188,-10.416122514383323150
0.338000000000000189,-10.448789690270469777
0.339000000000000190,-10.481322080441412226
0.340000000000000191,-10.513760266154772438
0.341000000000000192,-10.546139871021306789
0.342000000000000193,-10.578491769601793493
0.343000000000000194,-10.610842295102520083
0.344000000000000195,-10.643213445714286181
0.345000000000000195,-10.675623089174683500
0.346000000000000196,-10.708085165164337837
0.347000000000000197,-10.740609885179459582
0.348000000000000198,-10.773203929552432001
0.349000000000000199,-10.805870641320929337
0.350000000000000200,-10.838610216673721709
0.351000000000000201,-10.871419891727633456
0.352000000000000202,-10.904294125415505690
0.353000000000000203,-10.937224778289197147
0.354000000000000203,-10.970201287064776707
0.355000000000000204,-11.003210834758771597
0.356000000000000205,-11.036238516285420630
0.357000000000000206,-11.069267499404764621
0.358000000000000207,-11.102279180929482294
0.359000000000000208,-11.135253338116779531
0.360000000000000209,-11.168168275187918326
0.361000000000000210,-11.201000964933337301
0.362000000000000210,-11.233727185376604751
0.363000000000000211,-11.266321651483520938
0.364000000000000212,-11.298758141916009023
0.365000000000000213,-11.331009620841911101
0.366000000000000214,-11.363048354823281016
0.367000000000000215,-11.394846024815615593
0.368000000000000216,-11.426373833320379703
0.369000000000000217,-11.457602606741296825
0.370000000000000218,-11.488502893003477823
0.371000000000000218,-11.519045054501166447
0.372000000000000219,-11.549199356446797182
0.373000000000000220,-11.578936050700111338
0.374000000000000221,-11.608225455161038653
0.375000000000000222,-11.637038028815148039
0.376000000000000223,-11.665344442524801849
0.377000000000000224,-11.693115645662496505
0.378000000000000225,-11.720322928686378816
0.379000000000000226,-11.746937981760629199
0.380000000000000226,-11.772932949525756641
0.381000000000000227,-11.798280482125605317
0.382000000000000228,-11.822953782599672223
0.383000000000000229,-11.846926650750310372
0.384000000000000230,-11.870173523595138221
0.385000000000000231,-11.892669512515926300
0.386000000000000232,-11.914390437214787966
0.387000000000000233,-11.935312856589138875
0.388000000000000234,-11.955414096635916366
0.389000000000000234,-11.974672275495693796
0.390000000000000235,-11.993066325745886047
0.391000000000000236,-12.010576014051830285
0.392000000000000237,-12.027181958283003738
0.393000000000000238,-12.042865642200659693
0.394000000000000239,-12.057609427821324388
0.395000000000000240,-12.071396565559401992
0.396000000000000241,-12.084211202250099149
0.397000000000000242,-12.096038387152251659
0.398000000000000242,-12.106864076028601929
0.399000000000000243,-12.116675133399041897
0.400000000000000244,-12.125459333060447875
0.401000000000000245,-12.133205356964310795
0.402000000000000246,-12.139902792541265697
0.403000000000000247,-12.145542128559503325
0.404000000000000248,-12.150114749601508279
0.405000000000000249,-12.153612929241473850
0.406000000000000250,-12.156029822003187491
0.407000000000000250,-12.157359454176054570
0.408000000000000251,-12.157596713564284840
0.409000000000000252,-12.156737338242221469
0.410000000000000253,-12.154777904386056875
0.411000000000000254,-12.151715813250163478
0.412000000000000255,-12.147549277353629549
0.413000000000000256,-12.142277305940533338
0.414000000000000257,-12.135899689774838350
0.415000000000000258,-12.128416985328929201
0.416000000000000258,-12.119830498422114573
0.417000000000000259,-12.110142267363530166
0.418000000000000260,-12.099355045651487117
0.419000000000000261,-12.087472284279273893
0.420000000000000262,-12.074498113695122825
0.421000000000000263,-12.060437325462320501
0.422000000000000264,-12.045295353662849536
0.423000000000000265,-12.029078256086545906
0.424000000000000266,-12.011792695245485874
0.425000000000000266,-11.993445919251282561
0.426000000000000267,-11.974045742591560071
0.427000000000000268,-11.953600526839583296
0.428000000000000269,-11.932119161329536539
0.429000000000000270,-11.909611043828231658
0.430000000000000271,-11.886086061232107980
0.431000000000000272,-11.861554570317135671
0.432000000000000273,-11.836027378567342438
0.433000000000000274,-11.809515725106351169
0.434000000000000274,-11.782031261754713825
0.435000000000000275,-11.753586034234556834
0.436000000000000276,-11.724192463541530884
0.437000000000000277,-11.693863327502736382
0.438000000000000278,-11.662611742538128823
0.439000000000000279,-11.630451145641606203
0.440000000000000280,-11.597395276596648372
0.441000000000000281,-11.563458160440474032
0.442000000000000282,-11.528654090189490944
0.443000000000000282,-11.492997609837512840
0.444000000000000283,-11.456503497637688938
0.445000000000000284,-11.419186749677585624
0.446000000000000285,-11.381062563756273676
0.447000000000000286,-11.342146323571389743
0.448000000000000287,-11.302453583222847655
0.449000000000000288,-11.262000052039764952
0.450000000000000289,-11.220801579735670828
0.451000000000000290,-11.178874141896816496
0.452000000000000290,-11.136233825807519082
0.453000000000000291,-11.092896816615695599
0.454000000000000292,-11.048879383841320845
0.455000000000000293,-11.004197868229731228
0.456000000000000294,-10.958868668951213365
0.457000000000000295,-10.912908231147833149
0.458000000000000296,-10.866333033827705989
0.459000000000000297,-10.819159578106763320
0.460000000000000298,-10.771404375797205333
0.461000000000000298,-10.723083938341856580
0.462000000000000299,-10.674214766092742224
0.463000000000000300,-10.624813337932163648
0.464000000000000301,-10.574896101234131152
0.465000000000000302,-10.524479462163546017
0.466000000000000303,-10.473579776310259604
0.467000000000000304,-10.422213339654978981
0.468000000000000305,-10.370396379863523251
0.469000000000000306,-10.318145047905712630
0.470000000000000306,-10.265475409995223899
0.471000000000000307,-10.212403439845891384
0.472000000000000308,-10.158945011240566814
0.473000000000000309,-10.105115890907713450
0.474000000000000310,-10.050931731701247429
0.475000000000000311,-9.996408066078672050
0.476000000000000312,-9.941560299872746143
0.477000000000000313,-9.886403706351382326
0.478000000000000314,-9.830953420560719636
0.479000000000000314,-9.775224433946132052
0.480000000000000315,-9.719231589245618252
0.481000000000000316,-9.662989575650428264
0.482000000000000317,-9.606512924227100569
0.483000000000000318,-9.549816003595628544
0.484000000000000319,-9.492913015858034598
0.485000000000000320,-9.435817992771747598
0.486000000000000321,-9.378544792162207600
0.487000000000000322,-9.321107094568972684
0.488000000000000322,-9.263518400119615137
0.489000000000000323,-9.205792025625971320
0.490000000000000324,-9.147941101896856608
0.491000000000000325,-9.089978571261724483
0.492000000000000326,-9.031917185299612072
0.493000000000000327,-8.973769502767911632
0.494000000000000328,-8.915547887725193021
0.495000000000000329,-8.857264507842828039
0.496000000000000330,-8.798931332899707414
0.497000000000000330,-8.740560133454867042
0.498000000000000331,-8.682162479692340895
0.499000000000000332,-8.623749740433350297
0.500000000000000333,-8.565333082310198520
0.501000000000000334,-8.506923469096822288
0.502000000000000335,-8.448531661190973097
0.503000000000000336,-8.390168215242804095
0.504000000000000337,-8.331843483925013061
0.505000000000000338,-8.273567615839525047
0.506000000000000338,-8.215350555555986034
0.507000000000000339,-8.157202043777200373
0.508000000000000340,-8.099131617626879276
0.509000000000000341,-8.041148611055216833
0.510000000000000342,-7.983262155357515155
0.511000000000000343,-7.925481179801704634
0.512000000000000344,-7.867814412360185194
0.513000000000000345,-7.810270380541878055
0.514000000000000346,-7.752857412320255825
0.515000000000000346,-7.695583637153200485
0.516000000000000347,-7.638456987090731509
0.517000000000000348,-7.581485197966763678
0.518000000000000349,-7.524675810670821363
0.519000000000000350,-7.468036172496269387
0.520000000000000351,-7.411573438561076088
0.521000000000000352,-7.355294573297838312
0.522000000000000353,-7.299206352009326437
0.523000000000000353,-7.243315362486238307
0.524000000000000354,-7.187628006683949522
0.525000000000000355,-7.132150502454781993
0.526000000000000356,-7.076888885332818901
0.527000000000000357,-7.021849010368228505
0.528000000000000358,-6.967036554007835392
0.529000000000000359,-6.912457016019430966
0.530000000000000360,-6.858115721456620406
0.531000000000000361,-6.804017822661707626
0.532000000000000361,-6.750168301303835605
0.533000000000000362,-6.696571970449807232
0.534000000000000363,-6.643233476665113990
0.535000000000000364,-6.590157302142681139
0.536000000000000365,-6.537347766856965059
0.537000000000000366,-6.484809030741205405
0.538000000000000367,-6.432545095885428665
0.539000000000000368,-6.380559808753297979
0.540000000000000369,-6.328856862415463524
0.541000000000000369,-6.277439798797686876
0.542000000000000370,-6.226312010941535746
0.543000000000000371,-6.175476745275942037
0.544000000000000372,-6.124937103897766022
0.545000000000000373,-6.074696046859632048
0.546000000000000374,-6.024756394463286036
0.547000000000000375,-5.975120829556950675
0.548000000000000376,-5.925791899835060050
0.549000000000000377,-5.876772020138897545
0.550000000000000377,-5.828063474756641327
0.551000000000000378,-5.779668419721467387
0.552000000000000379,-5.731588885106424947
0.553000000000000380,-5.683826777314687106
0.554000000000000381,-5.636383881364014137
0.555000000000000382,-5.589261863164333377
0.556000000000000383,-5.542462271787096384
0.557000000000000384,-5.495986541725597974
0.558000000000000385,-5.449835995145002165
0.559000000000000385,-5.404011844121231256
0.560000000000000386,-5.358515192867725929
0.561000000000000387,-5.313347039949215755
0.562000000000000388,-5.268508280481556838
0.563000000000000389,-5.223999708317003332
0.564000000000000390,-5.179822018213942059
0.565000000000000391,-5.135975807990522668
0.566000000000000392,-5.092461580661393761
0.567000000000000393,-5.049279746556971205
0.568000000000000393,-5.006430625424551195
0.569000000000000394,-4.963914448510690747
0.570000000000000395,-4.921731360624442608
0.571000000000000396,-4.879881422180682549
0.572000000000000397,-4.838364611223334499
0.573000000000000398,-4.797180825427785678
0.574000000000000399,-4.756329884082292736
0.575000000000000400,-4.715811530047796296
0.576000000000000401,-4.675625431695932477
0.577000000000000401,-4.635771184824855951
0.578000000000000402,-4.596248314552518366
0.579000000000000403,-4.557056277187184534
0.580000000000000404,-4.518194462074954565
0.581000000000000405,-4.479662193423941119
0.582000000000000406,-4.441458732105054708
0.583000000000000407,-4.403583277429039988
0.584000000000000408,-4.366034968899762170
0.585000000000000409,-4.328812887943487731
0.586000000000000409,-4.291916059614062640
0.587000000000000410,-4.255343454273938342
0.588000000000000411,-4.219093989250854548
0.589000000000000412,-4.183166530470258770
0.590000000000000413,-4.147559894063235220
0.591000000000000414,-4.112272847950062982
0.592000000000000415,-4.077304113399347507
0.593000000000000416,-4.042652366562629496
0.594000000000000417,-4.008316239984591078
0.595000000000000417,-3.974294324088951669
0.596000000000000418,-3.940585168639782587
0.597000000000000419,-3.907187284178760045
0.598000000000000420,-3.874099143437958137
0.599000000000000421,-3.841319182728621051
0.600000000000000422,-3.808845803305771049
0.601000000000000423,-3.776677372708876934
0.602000000000000424,-3.744812226078644279
0.603000000000000425,-3.713248667450065987
0.604000000000000425,-3.681984971021834863
0.605000000000000426,-3.651019382402285629
0.606000000000000427,-3.620350119832070224
0.607000000000000428,-3.589975375383479328
0.608000000000000429,-3.559893316137000774
0.609000000000000430,-3.530102085334785755
