# Kaolinite-001_BSAI4
# h[nm],U(h)[kJ/mol]
0.149999999999999994,125.324938081025948122
0.150999999999999995,124.219401328725467692
0.151999999999999996,122.255959411755384281
0.152999999999999997,120.139805636781645148
0.153999999999999998,118.120249991953571111
0.154999999999999999,116.238821189768898989
0.156000000000000000,114.459982037570654256
0.157000000000000001,112.734061537554069332
0.158000000000000002,111.022864728401970069
0.159000000000000002,109.306149298992139052
0.160000000000000003,107.579428919551631338
0.161000000000000004,105.848802769888919784
0.162000000000000005,104.125662717790604006
0.163000000000000006,102.422492160524285509
0.164000000000000007,100.750082564130735818
0.165000000000000008,99.116056390948713783
0.166000000000000009,97.524408002074892465
0.167000000000000010,95.975738537139619666
0.168000000000000010,94.467894749259244236
0.169000000000000011,92.996783371505870264
0.170000000000000012,91.557198763620164073
0.171000000000000013,90.143560854289773943
0.172000000000000014,88.750508106140998166
0.173000000000000015,87.373325558074981245
0.174000000000000016,86.008212065341496100
0.175000000000000017,84.652405616687957490
0.176000000000000018,83.304193207433911539
0.177000000000000018,81.962834189057289791
0.178000000000000019,80.628425001564167474
0.179000000000000020,79.301730079764951142
0.180000000000000021,77.983999529754584046
0.181000000000000022,76.676789625708977383
0.182000000000000023,75.381797767052859172
0.183000000000000024,74.100719561212628150
0.184000000000000025,72.835132315821283555
0.185000000000000026,71.586406494248748800
0.186000000000000026,70.355644599772148240
0.187000000000000027,69.143645454226074776
0.188000000000000028,67.950890850710038649
0.189000000000000029,66.777551001055940105
0.190000000000000030,65.623504980779586049
0.191000000000000031,64.488372415943999272
0.192000000000000032,63.371552885312155468
0.193000000000000033,62.272269865345649009
0.194000000000000034,61.189616473884527181
0.195000000000000034,60.122600730043018302
0.196000000000000035,59.070188511882591342
0.197000000000000036,58.031342837074859631
0.198000000000000037,57.005058499470067090
0.199000000000000038,55.990391456526239722
0.200000000000000039,54.986482673886371231
0.201000000000000040,53.992576392566014931
0.202000000000000041,53.008032992454594989
0.203000000000000042,52.032336786245579674
0.204000000000000042,51.065099194825378959
0.205000000000000043,50.106057833631233223
0.206000000000000044,49.155072084893404849
0.207000000000000045,48.212115748390388603
0.208000000000000046,47.277267358531808839
0.209000000000000047,46.350698733047785538
0.210000000000000048,45.432662282656067987
0.211000000000000049,44.523477565641812248
0.212000000000000050,43.623517519635171880
0.213000000000000050,42.733194747811907632
0.214000000000000051,41.852948180574820469
0.215000000000000052,40.983230378353326273
0.216000000000000053,40.124495687921729825
0.217000000000000054,39.277189414657428301
0.218000000000000055,38.441738127195847596
0.219000000000000056,37.618541169479044584
0.220000000000000057,36.807963418497607222
0.221000000000000058,36.010329294180216664
0.222000000000000058,35.225918000814232300
0.223000000000000059,34.454959956917015518
0.224000000000000060,33.697634352350220865
0.225000000000000061,32.954067757361364954
0.226000000000000062,32.224333697786128994
0.227000000000000063,31.508453103471691037
0.228000000000000064,30.806395532698708450
0.229000000000000065,30.118081073600610154
0.230000000000000066,29.443382823939270310
0.231000000000000066,28.782129852736574094
0.232000000000000067,28.134110550863077549
0.233000000000000068,27.499076282438835506
0.234000000000000069,26.876745254542061758
0.235000000000000070,26.266806529000852777
0.236000000000000071,25.668924106750939274
0.237000000000000072,25.082741022188550062
0.238000000000000073,24.507883391976719167
0.239000000000000073,23.943964369739529019
0.240000000000000074,23.390587964889508754
0.241000000000000075,22.847352690393378793
0.242000000000000076,22.313855010516331134
0.243000000000000077,21.789692565443367300
0.244000000000000078,21.274467155120586170
0.245000000000000079,20.767787469662813749
0.246000000000000080,20.269271558225263163
0.247000000000000081,19.778549032329877377
0.248000000000000081,19.295263003276748037
0.249000000000000082,18.819071756468606083
0.250000000000000111,18.349650168245922544
0.251000000000000112,17.886690873193646922
0.252000000000000113,17.429905191858864555
0.253000000000000114,16.979023830440635123
0.254000000000000115,16.533797365300461735
0.255000000000000115,16.093996526127202884
0.256000000000000116,15.659412292297648861
0.257000000000000117,15.229855817432682130
0.258000000000000118,14.805158197386262486
0.259000000000000119,14.385170096944893459
0.260000000000000120,13.969761250384717499
0.261000000000000121,13.558819850756057335
0.262000000000000122,13.152251842361156520
0.263000000000000123,12.749980130383324450
0.264000000000000123,12.351943721030890444
0.265000000000000124,11.958096804897463628
0.266000000000000125,11.568407795524164428
0.267000000000000126,11.182858334396494016
0.268000000000000127,10.801442272828612801
0.269000000000000128,10.424164640395016335
0.270000000000000129,10.051040608771412366
0.271000000000000130,9.682094459053010027
0.272000000000000131,9.317358559837206400
0.273000000000000131,8.956872362593596648
0.274000000000000132,8.600681420104598018
0.275000000000000133,8.248836433047291194
0.276000000000000134,7.901392329105981105
0.277000000000000135,7.558407378358538153
0.278000000000000136,7.219942348067606375
0.279000000000000137,6.886059699434651016
0.280000000000000138,6.556822828339503140
0.281000000000000139,6.232295351590634525
0.282000000000000139,5.912540439753725785
0.283000000000000140,5.597620197205405823
0.284000000000000141,5.287595089676615956
0.285000000000000142,4.982523419203284121
0.286000000000000143,4.682460846091014872
0.287000000000000144,4.387459957223152074
0.288000000000000145,4.097569879796054693
0.289000000000000146,3.812835939351840064
0.290000000000000147,3.533299360792648169
0.291000000000000147,3.258997010903244451
0.292000000000000148,2.989961180775510208
0.293000000000000149,2.726219406420510083
0.294000000000000150,2.467794325766385466
0.295000000000000151,2.214703570174592961
0.296000000000000152,1.966959688558796326
0.297000000000000153,1.724570102160527085
0.298000000000000154,1.487537088019952325
0.299000000000000155,1.255857789179023909
0.300000000000000155,1.029524249665199509
0.301000000000000156,0.808523472326262427
0.302000000000000157,0.592837497618335485
0.303000000000000158,0.382443501490067839
0.304000000000000159,0.177313910553539067
0.305000000000000160,-0.022583467213190822
0.306000000000000161,-0.217285297927542531
0.307000000000000162,-0.406832565059665086
0.308000000000000163,-0.591270402049619226
0.309000000000000163,-0.770647915778535308
0.310000000000000164,-0.945018002315568317
0.311000000000000165,-1.114437156288599740
0.312000000000000166,-1.278965275152362580
0.313000000000000167,-1.438665459552796566
0.314000000000000168,-1.593603810911777385
0.315000000000000169,-1.743849227282636249
0.316000000000000170,-1.889473198453730518
0.317000000000000171,-2.030549601205691168
0.318000000000000171,-2.167154495557908511
0.319000000000000172,-2.299365922771729576
0.320000000000000173,-2.427263705811357752
0.321000000000000174,-2.550929252899713617
0.322000000000000175,-2.670445364744785444
0.323000000000000176,-2.785896045952783506
0.324000000000000177,-2.897366321087949448
0.325000000000000178,-3.004942055784491028
0.326000000000000179,-3.108709783265295012
0.327000000000000179,-3.208756536572769935
0.328000000000000180,-3.305169686771473270
0.329000000000000181,-3.398036787338755804
0.330000000000000182,-3.487445424918665715
0.331000000000000183,-3.573483076576533968
0.332000000000000184,-3.656236973655616396
0.333000000000000185,-3.735793972304326527
0.334000000000000186,-3.812240430711664629
0.335000000000000187,-3.885662093060135991
0.336000000000000187,-3.956143980179331443
0.337000000000000188,-4.023770286859175371
0.338000000000000189,-4.088624285760387167
0.339000000000000190,-4.150788237839556416
0.340000000000000191,-4.210343309188362859
0.341000000000000192,-4.267369494170561772
0.342000000000000193,-4.321945544725820376
0.343000000000000194,-4.374148905697095913
0.344000000000000195,-4.424055656026629535
0.345000000000000195,-4.471740455656743940
0.346000000000000196,-4.517276497962625648
0.347000000000000197,-4.560735467537883281
0.348000000000000198,-4.602187503147693093
0.349000000000000199,-4.641701165659796402
0.350000000000000200,-4.679343410760222532
0.351000000000000201,-4.715179566257879706
0.352000000000000202,-4.749273313780675743
0.353000000000000203,-4.781686674664998193
0.354000000000000203,-4.812479999840432399
0.355000000000000204,-4.841711963512084438
0.356000000000000205,-4.869439560444465798
0.357000000000000206,-4.895718106652760859
0.358000000000000207,-4.920601243309517869
0.359000000000000208,-4.944140943678020150
0.360000000000000209,-4.966387522886853034
0.361000000000000210,-4.987389650363748927
0.362000000000000210,-5.007194364751110349
0.363000000000000211,-5.025847091129659994
0.364000000000000212,-5.043391660381598918
0.365000000000000213,-5.059870330529080640
0.366000000000000214,-5.075323809889150439
0.367000000000000215,-5.089791281891074881
0.368000000000000216,-5.103310431407615866
0.369000000000000217,-5.115917472456727566
0.370000000000000218,-5.127647177135884249
0.371000000000000218,-5.138532905656407301
0.372000000000000219,-5.148606637350814808
0.373000000000000220,-5.157899002531538990
0.374000000000000221,-5.166439315084799588
0.375000000000000222,-5.174255605688704129
0.376000000000000223,-5.181374655550276209
0.377000000000000224,-5.187822030560957032
0.378000000000000225,-5.193622115775616166
0.379000000000000226,-5.198798150125034212
0.380000000000000226,-5.203372261276957289
0.381000000000000227,-5.207365500565467542
0.382000000000000228,-5.210797877913496023
0.383000000000000229,-5.213688396677674142
0.384000000000000230,-5.216055088349370372
0.385000000000000231,-5.217915047050223798
0.386000000000000232,-5.219284463764510384
0.387000000000000233,-5.220178660255118785
0.388000000000000234,-5.220612122613537132
0.389000000000000234,-5.220598534398456003
0.390000000000000235,-5.220150809320975860
0.391000000000000236,-5.219281123438220149
0.392000000000000237,-5.218000946820358088
0.393000000000000238,-5.216321074659546753
0.394000000000000239,-5.214251657792176253
0.395000000000000240,-5.211802232609052510
0.396000000000000241,-5.208981750330886840
0.397000000000000242,-5.205798605629121667
0.398000000000000242,-5.202260664574957616
0.399000000000000243,-5.198375291901601969
0.400000000000000244,-5.194149377567359060
0.401000000000000245,-5.189589362609313028
0.402000000000000246,-5.184701264279294897
0.403000000000000247,-5.179490700456108598
0.404000000000000248,-5.173962913329555491
0.405000000000000249,-5.168122792353780248
0.406000000000000250,-5.161974896468840335
0.407000000000000250,-5.155523475591290428
0.408000000000000251,-5.148772491375625648
0.409000000000000252,-5.141725637250086578
0.410000000000000253,-5.134386357731381523
0.411000000000000254,-5.126757867024084980
0.412000000000000255,-5.118843166911558384
0.413000000000000256,-5.110645063946251732
0.414000000000000257,-5.102166185948007637
0.415000000000000258,-5.093408997820040085
0.416000000000000258,-5.084375816692765504
0.417000000000000259,-5.075068826406562650
0.418000000000000260,-5.065490091345009382
0.419000000000000261,-5.055641569630755505
0.420000000000000262,-5.045525125696679325
0.421000000000000263,-5.035142542245440112
0.422000000000000264,-5.024495531610794430
0.423000000000000265,-5.013585746534518606
0.424000000000000266,-5.002414790373069131
0.425000000000000266,-4.990984226748104824
0.426000000000000267,-4.979295588655516802
0.427000000000000268,-4.967350387047522631
0.428000000000000269,-4.955150118902557743
0.429000000000000270,-4.942696274797862444
0.430000000000000271,-4.929990345999468282
0.431000000000000272,-4.917033831084624218
0.432000000000000273,-4.903828242111361035
0.433000000000000274,-4.890375110350051457
0.434000000000000274,-4.876675991591674197
0.435000000000000275,-4.862732471047356952
0.436000000000000276,-4.848546167853783118
0.437000000000000277,-4.834118739198679293
0.438000000000000278,-4.819451884080703685
0.439000000000000279,-4.804547346717701117
0.440000000000000280,-4.789406919617102076
0.441000000000000281,-4.774032446322157064
0.442000000000000282,-4.758425823847391989
0.443000000000000282,-4.742589004816361253
0.444000000000000283,-4.726523999314783175
0.445000000000000284,-4.710232876471569519
0.446000000000000285,-4.693717765780246687
0.447000000000000286,-4.676980858172985478
0.448000000000000287,-4.660024406858925161
0.449000000000000288,-4.642850727938652611
0.450000000000000289,-4.625462200805909418
0.451000000000000290,-4.607861268347763328
0.452000000000000290,-4.590050436953904800
0.453000000000000291,-4.572032276345524338
0.454000000000000292,-4.553809419234024602
0.455000000000000293,-4.535384560819363031
0.456000000000000294,-4.516760458137705214
0.457000000000000295,-4.497939929267645631
0.458000000000000296,-4.478925852404035624
0.459000000000000297,-4.459721164808163607
0.460000000000000298,-4.440328861642710123
0.461000000000000298,-4.420751994699680054
0.462000000000000299,-4.400993671029203469
0.463000000000000300,-4.381057051476743958
0.464000000000000301,-4.360945349136184035
0.465000000000000302,-4.340661827725753596
0.466000000000000303,-4.320209799893625302
0.467000000000000304,-4.299592625459807138
0.468000000000000305,-4.278813709600482795
0.469000000000000306,-4.257876500980950496
0.470000000000000306,-4.236784489842945867
0.471000000000000307,-4.215541206051776513
0.472000000000000308,-4.194150217108758127
0.473000000000000309,-4.172615126133890406
0.474000000000000310,-4.150939569823703046
0.475000000000000311,-4.129127216388825516
0.476000000000000312,-4.107181763475828973
0.477000000000000313,-4.085106936077387729
0.478000000000000314,-4.062906484434849474
0.479000000000000314,-4.040584181937013852
0.480000000000000315,-4.018143823018662353
0.481000000000000316,-3.995589221062341601
0.482000000000000317,-3.972924206306525097
0.483000000000000318,-3.950152623763289572
0.484000000000000319,-3.927278331148353008
0.485000000000000320,-3.904305196826165947
0.486000000000000321,-3.881237097772648248
0.487000000000000322,-3.858077917557921843
0.488000000000000322,-3.834831544351254617
0.489000000000000323,-3.811501868950416760
0.490000000000000324,-3.788092782837262806
0.491000000000000325,-3.764608176261437400
0.492000000000000326,-3.741051936353842589
0.493000000000000327,-3.717427945271459144
0.494000000000000328,-3.693740078374897706
0.495000000000000329,-3.669992202440051532
0.496000000000000330,-3.646188173904970853
0.497000000000000330,-3.622331837153177414
0.498000000000000331,-3.598427022834189692
0.499000000000000332,-3.574477546222409874
0.500000000000000333,-3.550487205614948127
0.501000000000000334,-3.526459780769141794
0.502000000000000335,-3.502399031380430294
0.503000000000000336,-3.478308695601046274
0.504000000000000337,-3.454192488599984845
0.505000000000000338,-3.430054101164615510
0.506000000000000338,-3.405897198344239207
0.507000000000000339,-3.381725418135792527
0.508000000000000340,-3.357542370211840765
0.509000000000000341,-3.333351634691053444
0.510000000000000342,-3.309156760951026399
0.511000000000000343,-3.284961266483584552
0.512000000000000344,-3.260768635792381964
0.513000000000000345,-3.236582319332716118
0.514000000000000346,-3.212405732493410770
0.515000000000000346,-3.188242254620451188
0.516000000000000347,-3.164095228082184352
0.517000000000000348,-3.139967957375795482
0.518000000000000349,-3.115863708274609234
0.519000000000000350,-3.091785707015980655
0.520000000000000351,-3.067737139529225221
0.521000000000000352,-3.043721150703290412
0.522000000000000353,-3.019740843693559551
0.523000000000000353,-2.995799279267365112
0.524000000000000354,-2.971899475187729234
0.525000000000000355,-2.948044405634667520
0.526000000000000356,-2.924237000663594710
0.527000000000000357,-2.900480145700243817
0.528000000000000358,-2.876776681071385067
0.529000000000000359,-2.853129401570917434
0.530000000000000360,-2.829541056060491222
0.531000000000000361,-2.806014347104194506
0.532000000000000361,-2.782551930636535609
0.533000000000000362,-2.759156415663097661
0.534000000000000363,-2.735830363993196013
0.535000000000000364,-2.712576290003851032
0.536000000000000365,-2.689396660434348885
0.537000000000000366,-2.666293894210798321
0.538000000000000367,-2.643270362299824150
0.539000000000000368,-2.620328387590912023
0.540000000000000369,-2.597470244806457718
0.541000000000000369,-2.574698160439054639
0.542000000000000370,-2.552014312715114031
0.543000000000000371,-2.529420831584258345
0.544000000000000372,-2.506919798733701299
0.545000000000000373,-2.484513247626976007
0.546000000000000374,-2.462203163566233588
0.547000000000000375,-2.439991483777499859
0.548000000000000376,-2.417880097518165350
0.549000000000000377,-2.395870846206015869
0.550000000000000377,-2.373965523569133929
0.551000000000000378,-2.352165875815978691
0.552000000000000379,-2.330473601825032492
0.553000000000000380,-2.308890353353267422
0.554000000000000381,-2.287417735262829321
0.555000000000000382,-2.266057305765336594
0.556000000000000383,-2.244810576682996661
0.557000000000000384,-2.223679013726133746
0.558000000000000385,-2.202664036786280199
0.559000000000000385,-2.181767020244385513
0.560000000000000386,-2.160989293293459568
0.561000000000000387,-2.140332140275046591
0.562000000000000388,-2.119796801028972943
0.563000000000000389,-2.099384471255807405
0.564000000000000390,-2.079096302891399350
0.565000000000000391,-2.058933404493001884
0.566000000000000392,-2.038896841636394619
0.567000000000000393,-2.018987637323514495
0.568000000000000393,-1.999206772399986232
0.569000000000000394,-1.979555185982103893
0.570000000000000395,-1.960033775892766172
0.571000000000000396,-1.940643399105772549
0.572000000000000397,-1.921384872198133920
0.573000000000000398,-1.902258971809782651
0.574000000000000399,-1.883266435110341419
0.575000000000000400,-1.864407960272386422
0.576000000000000401,-1.845684206950825246
0.577000000000000401,-1.827095796767984170
0.578000000000000402,-1.808643313803877106
0.579000000000000403,-1.790327305091322874
0.580000000000000404,-1.772148281115532242
0.581000000000000405,-1.754106716317662462
0.582000000000000406,-1.736203049602086823
0.583000000000000407,-1.718437684846891411
0.584000000000000408,-1.700810991417328166
0.585000000000000409,-1.683323304681823007
0.586000000000000409,-1.665974926530182643
0.587000000000000410,-1.648766125893744272
0.588000000000000411,-1.631697139267025864
0.589000000000000412,-1.614768171230699823
0.590000000000000413,-1.597979394975453271
0.591000000000000414,-1.581330952826539349
0.592000000000000415,-1.564822956768701534
0.593000000000000416,-1.548455488971158145
0.594000000000000417,-1.532228602312422527
0.595000000000000417,-1.516142320904739993
0.596000000000000418,-1.500196640617727617
0.597000000000000419,-1.484391529601220894
0.598000000000000420,-1.468726928806840970
0.599000000000000421,-1.453202752508261586
0.600000000000000422,-1.437818888819823560
0.601000000000000423,-1.422575200213356927
0.602000000000000424,-1.407471524032989141
0.603000000000000425,-1.392507673007745694
0.604000000000000425,-1.377683435761747788
0.605000000000000426,-1.362998577321844262
0.606000000000000427,-1.348452839622535704
0.607000000000000428,-1.334045942007891172
0.608000000000000429,-1.319777581730547933
0.609000000000000430,-1.305647434447333444
0.610000000000000431,-1.291655154711672582
0.611000000000000432,-1.277800376462400855
0.612000000000000433,-1.264082713508976941
0.613000000000000433,-1.250501760012967756
