# Kaolinite-001_BSAI14
# h[nm],U(h)[kJ/mol]
0.149999999999999994,122.781007011900811676
0.150999999999999995,121.720978144003353805
0.151999999999999996,119.865060736192049262
0.152999999999999997,117.856454658977980898
0.153999999999999998,115.927660100875101534
0.154999999999999999,114.122052966555017406
0.156000000000000000,112.411272853345053591
0.157000000000000001,110.752251955258273597
0.158000000000000002,109.110855440169444819
0.159000000000000002,107.468281546120380199
0.160000000000000003,105.819541971543600312
0.161000000000000004,104.169128769359375042
0.162000000000000005,102.526445448229083013
0.163000000000000006,100.902120460957476666
0.164000000000000007,99.305524980598363527
0.165000000000000008,97.743420540268516561
0.166000000000000009,96.219497712059961714
0.167000000000000010,94.734529522132419288
0.168000000000000010,93.286888916517114012
0.169000000000000011,91.873230957117783646
0.170000000000000012,90.489196883562414087
0.171000000000000013,89.130048319956799219
0.172000000000000014,87.791181408656285612
0.173000000000000015,86.468501606021803241
0.174000000000000016,85.158661132767790036
0.175000000000000017,83.859174259116826988
0.176000000000000018,82.568432546539938244
0.177000000000000018,81.285644581510553053
0.178000000000000019,80.010724093174516725
0.179000000000000020,78.744147823826196486
0.180000000000000021,77.486801010549015700
0.181000000000000022,76.239824478065585822
0.182000000000000023,75.004473567985527893
0.183000000000000024,73.781995705614832559
0.184000000000000025,72.573530476666221034
0.185000000000000026,71.380033708781766677
0.186000000000000026,70.202225223050774616
0.187000000000000027,69.040558597139096264
0.188000000000000028,67.895210401360117203
0.189000000000000029,66.766085859709363604
0.190000000000000030,65.652837675990099342
0.191000000000000031,64.554894781172635021
0.192000000000000032,63.471497939725658455
0.193000000000000033,62.401739446239773201
0.194000000000000034,61.344604504838002867
0.195000000000000034,60.299012277151554429
0.196000000000000035,59.263854982754388345
0.197000000000000036,58.238033818839923583
0.198000000000000037,57.220490819688606621
0.199000000000000038,56.210236092298714539
0.200000000000000039,55.206370137682121424
0.201000000000000040,54.208101196162502333
0.202000000000000041,53.214757740304982292
0.203000000000000042,52.225796383278250801
0.204000000000000042,51.240805577033839313
0.205000000000000043,50.259505547883250642
0.206000000000000044,49.281744961363884272
0.207000000000000045,48.307494828261219766
0.208000000000000046,47.336840163694034800
0.209000000000000047,46.369969895382880054
0.210000000000000048,45.407165489348685128
0.211000000000000049,44.448788724649503479
0.212000000000000050,43.495269006232931019
0.213000000000000050,42.547090559010300126
0.214000000000000051,41.604779798864861107
0.215000000000000052,40.668893129131298281
0.216000000000000053,39.740005365411889215
0.217000000000000054,38.818698948394469994
0.218000000000000055,37.905554064310862827
0.219000000000000056,37.001139756284437965
0.220000000000000057,36.106006077329546144
0.221000000000000058,35.220677307299943948
0.222000000000000058,34.345646231606529852
0.223000000000000059,33.481369458928853078
0.224000000000000060,32.628263738224639212
0.225000000000000061,31.786703221851308143
0.226000000000000062,30.957017611265616353
0.227000000000000063,30.139491114253491588
0.228000000000000064,29.334362137646859736
0.229000000000000065,28.541823636688622656
0.230000000000000066,27.762024041307160616
0.231000000000000066,26.995068680260988714
0.232000000000000067,26.241021626139058753
0.233000000000000068,25.499907887298579823
0.234000000000000069,24.771715876757504304
0.235000000000000070,24.056400092627235665
0.236000000000000071,23.353883949687546107
0.237000000000000072,22.664062707007989417
0.238000000000000073,21.986806441971943116
0.239000000000000073,21.321963026542086084
0.240000000000000074,20.669361067017977263
0.241000000000000075,20.028812773802801672
0.242000000000000076,19.400116732747655135
0.243000000000000077,18.783060554429631850
0.244000000000000078,18.177423382209006775
0.245000000000000079,17.582978244071703955
0.246000000000000080,16.999494237083887072
0.247000000000000081,16.426738536753514808
0.248000000000000081,15.864478226712630970
0.249000000000000082,15.312481946905393215
0.250000000000000111,14.770521360902524322
0.251000000000000112,14.238372445074663375
0.252000000000000113,13.715816604161242154
0.253000000000000114,13.202641619289542163
0.254000000000000115,12.698642435744259771
0.255000000000000115,12.203621798788820030
0.256000000000000116,11.717390746611323848
0.257000000000000117,11.239768970035209250
0.258000000000000118,10.770585049017238788
0.259000000000000119,10.309676576172556395
0.260000000000000120,9.856890177639616724
0.261000000000000121,9.412081441544382088
0.262000000000000122,8.975114764160926129
0.263000000000000123,8.545863123611345813
0.264000000000000123,8.124207790615999514
0.265000000000000124,7.710037985411091199
0.266000000000000125,7.303250489505401788
0.267000000000000126,6.903749220464931113
0.268000000000000127,6.511444777402116912
0.269000000000000128,6.126253964316218159
0.270000000000000129,5.748099297890022719
0.271000000000000130,5.376908505802953542
0.272000000000000131,5.012614021079123461
0.273000000000000131,4.655152477454529425
0.274000000000000132,4.304464210226557341
0.275000000000000133,3.960492766543844745
0.276000000000000134,3.623184428609005803
0.277000000000000135,3.292487752803792578
0.278000000000000136,2.968353127305768169
0.279000000000000137,2.650732350351604705
0.280000000000000138,2.339578230913900825
0.281000000000000139,2.034844213196283391
0.282000000000000139,1.736484026017478755
0.283000000000000140,1.444451357846593398
0.284000000000000141,1.158699557970887639
0.285000000000000142,0.879181364021416778
0.286000000000000143,0.605848655851780604
0.287000000000000144,0.338652235559157133
0.288000000000000145,0.077541633253511572
0.289000000000000146,-0.177535061978951525
0.290000000000000147,-0.426631346612739715
0.291000000000000147,-0.669802423533990332
0.292000000000000148,-0.907105300121146763
0.293000000000000149,-1.138598864554403844
0.294000000000000150,-1.364343941421649165
0.295000000000000151,-1.584403327741363388
0.296000000000000152,-1.798841810562858301
0.297000000000000153,-2.007726167331165268
0.298000000000000154,-2.211125150220177193
0.299000000000000155,-2.409109455643202669
0.300000000000000155,-2.601751680146951351
0.301000000000000156,-2.789126263883367152
0.302000000000000157,-2.971309422835679115
0.303000000000000158,-3.148379070949684166
0.304000000000000159,-3.320414733291601639
0.305000000000000160,-3.487497451318756880
0.306000000000000161,-3.649709681310860709
0.307000000000000162,-3.807135186967712137
0.308000000000000163,-3.959858927134715767
0.309000000000000163,-4.107966939571060294
0.310000000000000164,-4.251546221627598321
0.311000000000000165,-4.390684608652311027
0.312000000000000166,-4.525470650891821656
0.313000000000000167,-4.655993489607534563
0.314000000000000168,-4.782342733075376273
0.315000000000000169,-4.904608333088921412
0.316000000000000170,-5.022880462537246515
0.317000000000000171,-5.137249394581198558
0.318000000000000171,-5.247805383905402188
0.319000000000000172,-5.354638550478404646
0.320000000000000173,-5.457838766209508918
0.321000000000000174,-5.557495544848874758
0.322000000000000175,-5.653697935437290489
0.323000000000000176,-5.746534419573166907
0.324000000000000177,-5.836092812727697421
0.325000000000000178,-5.922460169804023344
0.326000000000000179,-6.005722695103482778
0.327000000000000179,-6.085965656830465420
0.328000000000000180,-6.163273306238341576
0.329000000000000181,-6.237728801491581265
0.330000000000000182,-6.309414136293230335
0.331000000000000183,-6.378410073303670380
0.332000000000000184,-6.444796082354095290
0.333000000000000185,-6.508650283438188744
0.334000000000000186,-6.570049394446771274
0.335000000000000187,-6.629068683593212441
0.336000000000000187,-6.685781926462159852
0.337000000000000188,-6.740261367599799769
0.338000000000000189,-6.792577686551993565
0.339000000000000190,-6.842799968245112829
0.340000000000000191,-6.890995677594569102
0.341000000000000192,-6.937230638217853240
0.342000000000000193,-6.981569015121093180
0.343000000000000194,-7.024073301222212073
0.344000000000000195,-7.064804307568081754
0.345000000000000195,-7.103821157099458716
0.346000000000000196,-7.141181281813317128
0.347000000000000197,-7.176940423170437455
0.348000000000000198,-7.211152635593845339
0.349000000000000199,-7.243870292902994557
0.350000000000000200,-7.275144097528138509
0.351000000000000201,-7.305023092349678393
0.352000000000000202,-7.333554675008093326
0.353000000000000203,-7.360784614531453940
0.354000000000000203,-7.386757070129448266
0.355000000000000204,-7.411514612004843627
0.356000000000000205,-7.435098244036249859
0.357000000000000206,-7.457547428188968652
0.358000000000000207,-7.478900110513665211
0.359000000000000208,-7.499192748596587244
0.360000000000000209,-7.518460340328559255
0.361000000000000210,-7.536736453863829510
0.362000000000000210,-7.554053258644275459
0.363000000000000211,-7.570441557368354779
0.364000000000000212,-7.585930818788857444
0.365000000000000213,-7.600549211227662916
0.366000000000000214,-7.614323636700445874
0.367000000000000215,-7.627279765548547807
0.368000000000000216,-7.639442071480102570
0.369000000000000217,-7.650833866926626925
0.370000000000000218,-7.661477338626310640
0.371000000000000218,-7.671393583349233047
0.372000000000000219,-7.680602643684596664
0.373000000000000220,-7.689123543814299744
0.374000000000000221,-7.696974325201503930
0.375000000000000222,-7.704172082126996557
0.376000000000000223,-7.710732997010718570
0.377000000000000224,-7.716672375459388888
0.378000000000000225,-7.722004680985532055
0.379000000000000226,-7.726743569346832707
0.380000000000000226,-7.730901922458814468
0.381000000000000227,-7.734491881837044502
0.382000000000000228,-7.737524881529109777
0.383000000000000229,-7.740011680499629065
0.384000000000000230,-7.741962394435016215
0.385000000000000231,-7.743386526938005332
0.386000000000000232,-7.744293000084681466
0.387000000000000233,-7.744690184320096371
0.388000000000000234,-7.744585927670895487
0.389000000000000234,-7.743987584256542434
0.390000000000000235,-7.742902042082826952
0.391000000000000236,-7.741335750104179958
0.392000000000000237,-7.739294744543276927
0.393000000000000238,-7.736784674458952793
0.394000000000000239,-7.733810826555223450
0.395000000000000240,-7.730378149226399209
0.396000000000000241,-7.726491275835098982
0.397000000000000242,-7.722154547221530940
0.398000000000000242,-7.717372033444412693
0.399000000000000243,-7.712147554755060419
0.400000000000000244,-7.706484701807911009
0.401000000000000245,-7.700386855111982065
0.402000000000000246,-7.693857203728905247
0.403000000000000247,-7.686898763224595754
0.404000000000000248,-7.679514392882511586
0.405000000000000249,-7.671706812187432334
0.406000000000000250,-7.663478616589692649
0.407000000000000250,-7.654832292560664442
0.408000000000000251,-7.645770231950851148
0.409000000000000252,-7.636294745662906891
0.410000000000000253,-7.626408076652280599
0.411000000000000254,-7.616112412268902787
0.412000000000000255,-7.605409895953696875
0.413000000000000256,-7.594302638304300856
0.414000000000000257,-7.582792727524493515
0.415000000000000258,-7.570882239272504144
0.416000000000000258,-7.558573245923270179
0.417000000000000259,-7.545867825260249795
0.418000000000000260,-7.532768068612379686
0.419000000000000261,-7.519276088452015117
0.420000000000000262,-7.505394025469702690
0.421000000000000263,-7.491124055141805904
0.422000000000000264,-7.476468393806849022
0.423000000000000265,-7.461429304266635754
0.424000000000000266,-7.446009100928094426
0.425000000000000266,-7.430210154501567743
0.426000000000000267,-7.414034896271462394
0.427000000000000268,-7.397485821954825624
0.428000000000000269,-7.380565495163312839
0.429000000000000270,-7.363276550484009420
0.430000000000000271,-7.345621696194065464
0.431000000000000272,-7.327603716624286001
0.432000000000000273,-7.309225474186260563
0.433000000000000274,-7.290489911077609797
0.434000000000000274,-7.271400050679567073
0.435000000000000275,-7.251958998660876787
0.436000000000000276,-7.232169943801812551
0.437000000000000277,-7.212036158551605070
0.438000000000000278,-7.191560999332617499
0.439000000000000279,-7.170747906604016286
0.440000000000000280,-7.149600404697548761
0.441000000000000281,-7.128122101437644353
0.442000000000000282,-7.106316687557919565
0.443000000000000282,-7.084187935925534418
0.444000000000000283,-7.061739700584896973
0.445000000000000284,-7.038975915631671576
0.446000000000000285,-7.015900593927673512
0.447000000000000286,-6.992517825667301956
0.448000000000000287,-6.968831776805207490
0.449000000000000288,-6.944846687355287429
0.450000000000000289,-6.920566869570163426
0.451000000000000290,-6.895996706010405930
0.452000000000000290,-6.871140647512321564
0.453000000000000291,-6.846003211062654081
0.454000000000000292,-6.820588977588597501
0.455000000000000293,-6.794902589670819282
0.456000000000000294,-6.768948749187222447
0.457000000000000295,-6.742732214894719966
0.458000000000000296,-6.716257799955944741
0.459000000000000297,-6.689530369417811428
0.460000000000000298,-6.662554837648170469
0.461000000000000298,-6.635336165736918979
0.462000000000000299,-6.607879358867364772
0.463000000000000300,-6.580189463663520755
0.464000000000000301,-6.552271565518767105
0.465000000000000302,-6.524130785910978503
0.466000000000000303,-6.495772279709010277
0.467000000000000304,-6.467201232475251693
0.468000000000000305,-6.438422857768617114
0.469000000000000306,-6.409442394452173453
0.470000000000000306,-6.380265104009509081
0.471000000000000307,-6.350896267873329393
0.472000000000000308,-6.321341184770178145
0.473000000000000309,-6.291605168084351440
0.474000000000000310,-6.261693543244296833
0.475000000000000311,-6.231611645134429445
0.476000000000000312,-6.201364815535159281
0.477000000000000313,-6.170958400593687720
0.478000000000000314,-6.140397748328004113
0.479000000000000314,-6.109688206166415725
0.480000000000000315,-6.078835118524558823
0.481000000000000316,-6.047843824422001191
0.482000000000000317,-6.016719655140066791
0.483000000000000318,-5.985467931922648255
0.484000000000000319,-5.954093963721415861
0.485000000000000320,-5.922603044986869847
0.486000000000000321,-5.891000453506421763
0.487000000000000322,-5.859291448290656845
0.488000000000000322,-5.827481267508682450
0.489000000000000323,-5.795575126473632821
0.490000000000000324,-5.763578215678888839
0.491000000000000325,-5.731495698885834322
0.492000000000000326,-5.699332711263595641
0.493000000000000327,-5.667094357581385466
0.494000000000000328,-5.634785710453646956
0.495000000000000329,-5.602411808638488644
0.496000000000000330,-5.569977655389410032
0.497000000000000330,-5.537488216860685597
0.498000000000000331,-5.504948420566185163
0.499000000000000332,-5.472363153891905974
0.500000000000000333,-5.439737262661934025
0.501000000000000334,-5.407075549757702326
0.502000000000000335,-5.374382773790466139
0.503000000000000336,-5.341663647826591088
0.504000000000000337,-5.308922838165429425
0.505000000000000338,-5.276164963169337696
0.506000000000000338,-5.243394592145501854
0.507000000000000339,-5.210616244279046683
0.508000000000000340,-5.177834387616913503
0.509000000000000341,-5.145053438102085153
0.510000000000000342,-5.112277758657385540
0.511000000000000343,-5.079511658318443423
0.512000000000000344,-5.046759391414994411
0.513000000000000345,-5.014025156799979399
0.514000000000000346,-4.981313097125715572
0.515000000000000346,-4.948627298166337951
0.516000000000000347,-4.915971788185841795
0.517000000000000348,-4.883350537350995779
0.518000000000000349,-4.850767457188158716
0.519000000000000350,-4.818226400083475802
0.520000000000000351,-4.785731158825327292
0.521000000000000352,-4.753285466188506447
0.522000000000000353,-4.720892994559018341
0.523000000000000353,-4.688557355598812926
0.524000000000000354,-4.656282099949569542
0.525000000000000355,-4.624070716974607365
0.526000000000000356,-4.591926634538065599
0.527000000000000357,-4.559853218820584253
0.528000000000000358,-4.527853774170393919
0.529000000000000359,-4.495931542989187513
0.530000000000000360,-4.464089705651646867
0.531000000000000361,-4.432331380457943837
0.532000000000000361,-4.400659623618198957
0.533000000000000362,-4.369077429268090285
0.534000000000000363,-4.337587729514704726
0.535000000000000364,-4.306193394511798722
0.536000000000000365,-4.274897232563523275
0.537000000000000366,-4.243701990255880574
0.538000000000000367,-4.212610352614868603
0.539000000000000368,-4.181624943290726648
0.540000000000000369,-4.150748324767123520
0.541000000000000369,-4.119982998594794665
0.542000000000000370,-4.089331405648477968
0.543000000000000371,-4.058795926406594923
0.544000000000000372,-4.028378881252719701
0.545000000000000373,-3.998082530798105161
0.546000000000000374,-3.967909076224432674
0.547000000000000375,-3.937860659646060579
0.548000000000000376,-3.907939364490992773
0.549000000000000377,-3.878147215899794276
0.550000000000000377,-3.848486181141738349
0.551000000000000378,-3.818958170047411560
0.552000000000000379,-3.789565035457156394
0.553000000000000380,-3.760308573684534306
0.554000000000000381,-3.731190524994159041
0.555000000000000382,-3.702212574093299402
0.556000000000000383,-3.673376350636403664
0.557000000000000384,-3.644683429742124225
0.558000000000000385,-3.616135332521962731
0.559000000000000385,-3.587733526620109359
0.560000000000000386,-3.559479426763734189
0.561000000000000387,-3.531374395323174209
0.562000000000000388,-3.503419742881426657
0.563000000000000389,-3.475616728812375378
0.564000000000000390,-3.447966561867158219
0.565000000000000391,-3.420470400768174990
0.566000000000000392,-3.393129354810136000
0.567000000000000393,-3.365944484467715991
0.568000000000000393,-3.338916802009200602
0.569000000000000394,-3.312047272115678176
0.570000000000000395,-3.285336812505343040
0.571000000000000396,-3.258786294562300956
0.572000000000000397,-3.232396543969588976
0.573000000000000398,-3.206168341345796424
0.574000000000000399,-3.180102422884982794
0.575000000000000400,-3.154199480999376970
0.576000000000000401,-3.128460164964491419
0.577000000000000401,-3.102885081566293834
0.578000000000000402,-3.077474795749918002
0.579000000000000403,-3.052229831269674953
0.580000000000000404,-3.027150671339954524
0.581000000000000405,-3.002237759286610519
0.582000000000000406,-2.977491499198589242
0.583000000000000407,-2.952912256579355965
0.584000000000000408,-2.928500358997919939
0.585000000000000409,-2.904256096739048054
0.586000000000000409,-2.880179723452415352
0.587000000000000410,-2.856271456800428155
0.588000000000000411,-2.832531479104364092
0.589000000000000412,-2.808959937988673605
0.590000000000000413,-2.785556947023050345
0.591000000000000414,-2.762322586362148336
0.592000000000000415,-2.739256903382648822
0.593000000000000416,-2.716359913317419217
0.594000000000000417,-2.693631599886576744
0.595000000000000417,-2.671071915925333773
0.596000000000000418,-2.648680784008175415
0.597000000000000419,-2.626458097069506170
0.598000000000000420,-2.604403719020260688
0.599000000000000421,-2.582517485360556364
0.600000000000000422,-2.560799203788044931
0.601000000000000423,-2.539248654801899097
0.602000000000000424,-2.517865592302239275
0.603000000000000425,-2.496649744184870734
0.604000000000000425,-2.475600812931171291
0.605000000000000426,-2.454718476193014975
0.606000000000000427,-2.434002387372657061
0.607000000000000428,-2.413452176197275811
0.608000000000000429,-2.393067449288383663
0.609000000000000430,-2.372847790725614914
0.610000000000000431,-2.352792762605155907
0.611000000000000432,-2.332901905592458469
0.612000000000000433,-2.313174739469263663
0.613000000000000433,-2.293610763674886144
