# Kaolinite-001_METHANESULFINATE-AC
# h[nm],U(h)[kJ/mol]
0.149999999999999994,122.890737096077174328
0.150999999999999995,121.597184619339031997
0.151999999999999996,119.890418092507587744
0.152999999999999997,118.099557079710663743
0.153999999999999998,116.344319517951475973
0.154999999999999999,114.647661934904732561
0.156000000000000000,112.995710468309809471
0.157000000000000001,111.367019037612152488
0.158000000000000002,109.744773100202309024
0.159000000000000002,108.120131949978329544
0.160000000000000003,106.491464804486625439
0.161000000000000004,104.862103706360898059
0.162000000000000005,103.237949816145970772
0.163000000000000006,101.625522060148497872
0.164000000000000007,100.030625604187775934
0.165000000000000008,98.457610112528271884
0.166000000000000009,96.909099461325794778
0.167000000000000010,95.386052232197897638
0.168000000000000010,93.888023303505747208
0.169000000000000011,92.413521933803025377
0.170000000000000012,90.960390116823361950
0.171000000000000013,89.526151146902364530
0.172000000000000014,88.108299871387345092
0.173000000000000015,86.704522413214803578
0.174000000000000016,85.312844555138312330
0.175000000000000017,83.931715247935827051
0.176000000000000018,82.560035728352787032
0.177000000000000018,81.197146365137399471
0.178000000000000019,79.842783337990084647
0.179000000000000020,78.497016199034504780
0.180000000000000021,77.160175733653758812
0.181000000000000022,75.832779665303903016
0.182000000000000023,74.515461869648817128
0.183000000000000024,73.208909025376314617
0.184000000000000025,71.913807116672415987
0.185000000000000026,70.630798953292838860
0.186000000000000026,69.360452893968925991
0.187000000000000027,68.103242232066691031
0.188000000000000028,66.859534201171911150
0.189000000000000029,65.629587248696907409
0.190000000000000030,64.413555072118356293
0.191000000000000031,63.211495880698272742
0.192000000000000032,62.023385404189994574
0.193000000000000033,60.849132291743806888
0.194000000000000034,59.688594706036951720
0.195000000000000034,58.541597100933167042
0.196000000000000035,57.407946361172399463
0.197000000000000036,56.287446668786671466
0.198000000000000037,55.179912635364189555
0.199000000000000038,54.085180396804297231
0.200000000000000039,53.003116504817811006
0.201000000000000040,51.933624565811975060
0.202000000000000041,50.876649672908961008
0.203000000000000042,49.832180751572494160
0.204000000000000042,48.800250995176568836
0.205000000000000043,47.780936605780070181
0.206000000000000044,46.774354079505741311
0.207000000000000045,45.780656287484298161
0.208000000000000046,44.800027604487333122
0.209000000000000047,43.832678330201495953
0.210000000000000048,42.878838634493028792
0.211000000000000049,41.938752239679409684
0.212000000000000050,41.012670031254664593
0.213000000000000050,40.100843764993541640
0.214000000000000051,39.203520013949280099
0.215000000000000052,38.320934474443397733
0.216000000000000053,37.453306726413920558
0.217000000000000054,36.600835520974513315
0.218000000000000055,35.763694647131089255
0.219000000000000056,34.942029410571905146
0.220000000000000057,34.135953740450460714
0.221000000000000058,33.345547925200513362
0.222000000000000058,32.570856965653419479
0.223000000000000059,31.811889523031265270
0.224000000000000060,31.068617430660587786
0.225000000000000061,30.340975731373884372
0.226000000000000062,29.628863197388604078
0.227000000000000063,28.932143285817687683
0.228000000000000064,28.250645480705550483
0.229000000000000065,27.584166971427670489
0.230000000000000066,26.932474617280270479
0.231000000000000066,26.295307148954162102
0.232000000000000067,25.672377559189168750
0.233000000000000068,25.063375637098140203
0.234000000000000069,24.467970603308092592
0.235000000000000070,23.885813806072206944
0.236000000000000071,23.316541441758712239
0.237000000000000072,22.759777266528040229
0.238000000000000073,22.215135269491486980
0.239000000000000073,21.682222281133753938
0.240000000000000074,21.160640494220565699
0.241000000000000075,20.649989877756247836
0.242000000000000076,20.149870467765058635
0.243000000000000077,19.659884521714168670
0.244000000000000078,19.179638526254681352
0.245000000000000079,18.708745050611845784
0.246000000000000080,18.246824440398849987
0.247000000000000081,17.793506348851412469
0.248000000000000081,17.348431104485239729
0.249000000000000082,16.911250915965073460
0.250000000000000111,16.481630916547565846
0.251000000000000112,16.059250051830101569
0.252000000000000113,15.643801815709528213
0.253000000000000114,15.234994840444235464
0.254000000000000115,14.832553347525717413
0.255000000000000115,14.436217466719872604
0.256000000000000116,14.045743431141772817
0.257000000000000117,13.660903656596371292
0.258000000000000118,13.281486713663330335
0.259000000000000119,12.907297201138751674
0.260000000000000120,12.538155529483310247
0.261000000000000121,12.173897622876374669
0.262000000000000122,11.814374548350023986
0.263000000000000123,11.459452080286512299
0.264000000000000123,11.109010208316677293
0.265000000000000124,10.762942596365302705
0.266000000000000125,10.421156000259788499
0.267000000000000126,10.083569650959480768
0.268000000000000127,9.750114610080284905
0.269000000000000128,9.420733103991155488
0.270000000000000129,9.095377842349273934
0.271000000000000130,8.774011326525151588
0.272000000000000131,8.456605152952965554
0.273000000000000131,8.143139316026964281
0.274000000000000132,7.833601514757160267
0.275000000000000133,7.527986466998290105
0.276000000000000134,7.226295234678102197
0.277000000000000135,6.928534563077174191
0.278000000000000136,6.634716236852199245
0.279000000000000137,6.344856455151870911
0.280000000000000138,6.058975227848708123
0.281000000000000139,5.777095794601491363
0.282000000000000139,5.499244068173946509
0.283000000000000140,5.225448103163858882
0.284000000000000141,4.955737591044773183
0.285000000000000142,4.690143382188380450
0.286000000000000143,4.428697035320402264
0.287000000000000144,4.171430394665301300
0.288000000000000145,3.918375194854567756
0.289000000000000146,3.669562693510829199
0.290000000000000147,3.425023331272061711
0.291000000000000147,3.184786418889560711
0.292000000000000148,2.948879850915707479
0.293000000000000149,2.717329845395640042
0.294000000000000150,2.490160708886960172
0.295000000000000151,2.267394626054806128
0.296000000000000152,2.049051473024182890
0.297000000000000153,1.835148653617185044
0.298000000000000154,1.625700957558058990
0.299000000000000155,1.420720439694291404
0.300000000000000155,1.220216319255329251
0.301000000000000156,1.024194898152169353
0.302000000000000157,0.832659497309351293
0.303000000000000158,0.645610410016457914
0.304000000000000159,0.463044871286950876
0.305000000000000160,0.284957042218724088
0.306000000000000161,0.111338008361680618
0.307000000000000162,-0.057824208887111705
0.308000000000000163,-0.222544628821159579
0.309000000000000163,-0.382841276833596200
0.310000000000000164,-0.538735139611192460
0.311000000000000165,-0.690250110999630850
0.312000000000000166,-0.837412929397365224
0.313000000000000167,-0.980253107504546861
0.314000000000000168,-1.118802855221457282
0.315000000000000169,-1.253096996457938372
0.316000000000000170,-1.383172880581620579
0.317000000000000171,-1.509070289198465975
0.318000000000000171,-1.630831338924722207
0.319000000000000172,-1.748500380775150020
0.320000000000000173,-1.862123896757753361
0.321000000000000174,-1.971750394231406300
0.322000000000000175,-2.077430298549231225
0.323000000000000176,-2.179215844477447206
0.324000000000000177,-2.277160966847266987
0.325000000000000178,-2.371321190865574469
0.326000000000000179,-2.461753522479867229
0.327000000000000179,-2.548516339162667954
0.328000000000000180,-2.631669281452132303
0.329000000000000181,-2.711273145557755893
0.330000000000000182,-2.787389777313087347
0.331000000000000183,-2.860081967732121200
0.332000000000000184,-2.929413350401045335
0.333000000000000185,-2.995448300913841955
0.334000000000000186,-3.058251838537797251
0.335000000000000187,-3.117889530273674215
0.336000000000000187,-3.174427397455367839
0.337000000000000188,-3.227931825014411338
0.338000000000000189,-3.278469473517198196
0.339000000000000190,-3.326107194065522243
0.340000000000000191,-3.370911946135161763
0.341000000000000192,-3.412950718412516515
0.342000000000000193,-3.452290452675177423
0.343000000000000194,-3.488997970749533550
0.344000000000000195,-3.523139904566110037
0.345000000000000195,-3.554782629322733811
0.346000000000000196,-3.583992199754622021
0.347000000000000197,-3.610834289501505090
0.348000000000000198,-3.635374133552931486
0.349000000000000199,-3.657676473744883250
0.350000000000000200,-3.677805507273804064
0.351000000000000201,-3.695824838187262706
0.352000000000000202,-3.711797431804735758
0.353000000000000203,-3.725785572016645286
0.354000000000000203,-3.737850821405025670
0.355000000000000204,-3.748053984124902094
0.356000000000000205,-3.756455071481975772
0.357000000000000206,-3.763113270139006428
0.358000000000000207,-3.768086912880252104
0.359000000000000208,-3.771433451861466501
0.360000000000000209,-3.773209434270792251
0.361000000000000210,-3.773470480324335519
0.362000000000000210,-3.772271263519196616
0.363000000000000211,-3.769665493065720963
0.364000000000000212,-3.765705898420306674
0.365000000000000213,-3.760444215839689353
0.366000000000000214,-3.753931176877721043
0.367000000000000215,-3.746216498745766010
0.368000000000000216,-3.737348876458397307
0.369000000000000217,-3.727375976686464476
0.370000000000000218,-3.716344433240699630
0.371000000000000218,-3.704299844109645079
0.372000000000000219,-3.691286769977087268
0.373000000000000220,-3.677348734145216902
0.374000000000000221,-3.662528223791173154
0.375000000000000222,-3.646866692485895012
0.376000000000000223,-3.630404563906104443
0.377000000000000224,-3.613181236671407337
0.378000000000000225,-3.595235090240490816
0.379000000000000226,-3.576603491801944479
0.380000000000000226,-3.557322804097202695
0.381000000000000227,-3.537428394114600305
0.382000000000000228,-3.516954642595773173
0.383000000000000229,-3.495934954297140962
0.384000000000000230,-3.474401768951262515
0.385000000000000231,-3.452386572874801995
0.386000000000000232,-3.429919911171481317
0.387000000000000233,-3.407031400480595273
0.388000000000000234,-3.383749742223202794
0.389000000000000234,-3.360102736300297099
0.390000000000000235,-3.336117295198796739
0.391000000000000236,-3.311819458463284516
0.392000000000000237,-3.287234407492957811
0.393000000000000238,-3.262386480625306007
0.394000000000000239,-3.237299188469445532
0.395000000000000240,-3.211995229454072565
0.396000000000000241,-3.186496505556415393
0.397000000000000242,-3.160824138180292842
0.398000000000000242,-3.134998484153056264
0.399000000000000243,-3.109039151812578616
0.400000000000000244,-3.082965017157092369
0.401000000000000245,-3.056794240032207899
0.402000000000000246,-3.030544280330631501
0.403000000000000247,-3.004231914181784369
0.404000000000000248,-2.977873250109677183
0.405000000000000249,-2.951483745138787196
0.406000000000000250,-2.925078220828865039
0.407000000000000250,-2.898670879220946794
0.408000000000000251,-2.872275318677861566
0.409000000000000252,-2.845904549603810008
0.410000000000000253,-2.819571010028558256
0.411000000000000254,-2.793286581042915273
0.412000000000000255,-2.767062602073136368
0.413000000000000256,-2.740909885982898420
0.414000000000000257,-2.714838733992321007
0.415000000000000258,-2.688858950404582782
0.416000000000000258,-2.662979857131286376
0.417000000000000259,-2.637210308008794968
0.418000000000000260,-2.611558702898300055
0.419000000000000261,-2.586033001563328160
0.420000000000000262,-2.560640737318928828
0.421000000000000263,-2.535389030447596337
0.422000000000000264,-2.510284601377503755
0.423000000000000265,-2.485333783619257275
0.424000000000000266,-2.460542536458111940
0.425000000000000266,-2.435916457398800805
0.426000000000000267,-2.411460794361008020
0.427000000000000268,-2.387180457623752083
0.428000000000000269,-2.363080031517484692
0.429000000000000270,-2.339163785863234146
0.430000000000000271,-2.315435687158302169
0.431000000000000272,-2.291899409508682428
0.432000000000000273,-2.268558345308488988
0.433000000000000274,-2.245415615667195830
0.434000000000000274,-2.222474080585654210
0.435000000000000275,-2.199736348882269432
0.436000000000000276,-2.177204787870945957
0.437000000000000277,-2.154881532792596754
0.438000000000000278,-2.132768496002364067
0.439000000000000279,-2.110867375914861732
0.440000000000000280,-2.089179665709893108
0.441000000000000281,-2.067706661801361978
0.442000000000000282,-2.046449472072296327
0.443000000000000282,-2.025409023878845804
0.444000000000000283,-2.004586071826575111
0.445000000000000284,-1.983981205322217889
0.446000000000000285,-1.963594855904255976
0.447000000000000286,-1.943427304355974217
0.448000000000000287,-1.923478687604334825
0.449000000000000288,-1.903749005408551742
0.450000000000000289,-1.884238126841918826
0.451000000000000290,-1.864945796570763648
0.452000000000000290,-1.845871640934351188
0.453000000000000291,-1.827015173829557471
0.454000000000000292,-1.808375802404287969
0.455000000000000293,-1.789952832563491469
0.456000000000000294,-1.771745474291779754
0.457000000000000295,-1.753752846796578169
0.458000000000000296,-1.735973983475743498
0.459000000000000297,-1.718407836713657044
0.460000000000000298,-1.701053282509683795
0.461000000000000298,-1.683909124942985613
0.462000000000000299,-1.666974100477565557
0.463000000000000300,-1.650246882111440883
0.464000000000000301,-1.633726083373846949
0.465000000000000302,-1.617410262174282520
0.466000000000000303,-1.601297924507176118
0.467000000000000304,-1.585387528015995029
0.468000000000000305,-1.569677485420486240
0.469000000000000306,-1.554166167810705934
0.470000000000000306,-1.538851907811576325
0.471000000000000307,-1.523733002621397548
0.472000000000000308,-1.508807716928013631
0.473000000000000309,-1.494074285706006755
0.474000000000000310,-1.479530916898409654
0.475000000000000311,-1.465175793986269515
0.476000000000000312,-1.451007078449455534
0.477000000000000313,-1.437022912121888041
0.478000000000000314,-1.423221419444428593
0.479000000000000314,-1.409600709618626713
0.480000000000000315,-1.396158878664301106
0.481000000000000316,-1.382894011384098620
0.482000000000000317,-1.369804183237889328
0.483000000000000318,-1.356887462129978683
0.484000000000000319,-1.344141910111926519
0.485000000000000320,-1.331565585003787744
0.486000000000000321,-1.319156541936467253
0.487000000000000322,-1.306912834817868907
0.488000000000000322,-1.294832517725374332
0.489000000000000323,-1.282913646227295867
0.490000000000000324,-1.271154278635667767
0.491000000000000325,-1.259552477192846132
0.492000000000000326,-1.248106309194240371
0.493000000000000327,-1.236813848049514331
0.494000000000000328,-1.225673174284445999
0.495000000000000329,-1.214682376485643145
0.496000000000000330,-1.203839552190226536
0.497000000000000330,-1.193142808722583936
0.498000000000000331,-1.182590263980095369
0.499000000000000332,-1.172180047169930850
0.500000000000000333,-1.161910299498705834
0.501000000000000334,-1.151779174816847995
0.502000000000000335,-1.141784840219532082
0.503000000000000336,-1.131925476605853964
0.504000000000000337,-1.122199279197966471
0.505000000000000338,-1.112604458021795084
0.506000000000000338,-1.103139238350951290
0.507000000000000339,-1.093801861115350160
0.508000000000000340,-1.084590583276023423
0.509000000000000341,-1.075503678167649246
0.510000000000000342,-1.066539435810069048
0.511000000000000343,-1.057696163190285255
0.512000000000000344,-1.048972184516138384
0.513000000000000345,-1.040365841443012362
0.514000000000000346,-1.031875493274780897
0.515000000000000346,-1.023499517140139758
0.516000000000000347,-1.015236308145517796
0.517000000000000348,-1.007084279505699120
0.518000000000000349,-0.999041862653134993
0.519000000000000350,-0.991107507327092518
0.520000000000000351,-0.983279681643549175
0.521000000000000352,-0.975556872146871257
0.522000000000000353,-0.967937583844140748
0.523000000000000353,-0.960420340223059221
0.524000000000000354,-0.953003683254315836
0.525000000000000355,-0.945686173379200468
0.526000000000000356,-0.938466389483285646
0.527000000000000357,-0.931342928856996211
0.528000000000000358,-0.924314407143698169
0.529000000000000359,-0.917379458276170068
0.530000000000000360,-0.910536734401987125
0.531000000000000361,-0.903784905798621585
0.532000000000000361,-0.897122660778777226
0.533000000000000362,-0.890548705586660994
0.534000000000000363,-0.884061764285702600
0.535000000000000364,-0.877660578638343680
0.536000000000000365,-0.871343907978383792
0.537000000000000366,-0.865110529076453916
0.538000000000000367,-0.858959235999040116
0.539000000000000368,-0.852888839961637224
0.540000000000000369,-0.846898169176352189
0.541000000000000369,-0.840986068694537403
0.542000000000000370,-0.835151400244739550
0.543000000000000371,-0.829393042066441710
0.544000000000000372,-0.823709888739960761
0.545000000000000373,-0.818100851012856012
0.546000000000000374,-0.812564855623182813
0.547000000000000375,-0.807100845119940069
0.548000000000000376,-0.801707777681046840
0.549000000000000377,-0.796384626929087291
0.550000000000000377,-0.791130381745171141
0.551000000000000378,-0.785944046081138437
0.552000000000000379,-0.780824638770400870
0.553000000000000380,-0.775771193337639331
0.554000000000000381,-0.770782757807589758
0.555000000000000382,-0.765858394513184715
0.556000000000000383,-0.760997179903168286
0.557000000000000384,-0.756198204349505909
0.558000000000000385,-0.751460571954641776
0.559000000000000385,-0.746783400358905114
0.560000000000000386,-0.742165820548143507
0.561000000000000387,-0.737606976661791203
0.562000000000000388,-0.733106025801488981
0.563000000000000389,-0.728662137840437762
0.564000000000000390,-0.724274495233566240
0.565000000000000391,-0.719942292828675168
0.566000000000000392,-0.715664737678648910
0.567000000000000393,-0.711441048854878799
0.568000000000000393,-0.707270457261944263
0.569000000000000394,-0.703152205453694612
0.570000000000000395,-0.699085547450801648
0.571000000000000396,-0.695069748559846601
0.572000000000000397,-0.691104085194069628
0.573000000000000398,-0.687187844695770211
0.574000000000000399,-0.683320325160514774
0.575000000000000400,-0.679500835263126879
0.576000000000000401,-0.675728694085560910
0.577000000000000401,-0.672003230946728647
0.578000000000000402,-0.668323785234250733
0.579000000000000403,-0.664689706238220546
0.580000000000000404,-0.661100352987057605
0.581000000000000405,-0.657555094085366942
0.582000000000000406,-0.654053307553960628
0.583000000000000407,-0.650594380671968509
0.584000000000000408,-0.647177709821118219
0.585000000000000409,-0.643802700332173350
0.586000000000000409,-0.640468766333547435
0.587000000000000410,-0.637175330602133272
0.588000000000000411,-0.633921824416293744
0.589000000000000412,-0.630707687411115159
0.590000000000000413,-0.627532367435819305
0.591000000000000414,-0.624395320413418831
0.592000000000000415,-0.621296010202588400
0.593000000000000416,-0.618233908461725434
0.594000000000000417,-0.615208494515221527
0.595000000000000417,-0.612219255221965075
0.596000000000000418,-0.609265684845971101
0.597000000000000419,-0.606347284929257824
0.598000000000000420,-0.603463564166836663
0.599000000000000421,-0.600614038283896479
0.600000000000000422,-0.597798229915108892
0.601000000000000423,-0.595015668486057359
0.602000000000000424,-0.592265890096781988
0.603000000000000425,-0.589548437407423576
0.604000000000000425,-0.586862859525912328
0.605000000000000426,-0.584208711897723054
0.606000000000000427,-0.581585556197689590
0.607000000000000428,-0.578992960223742359
0.608000000000000429,-0.576430497792760566
0.609000000000000430,-0.573897748638248384
0.610000000000000431,-0.571394298310067605
0.611000000000000432,-0.568919738076019477
0.612000000000000433,-0.566473664825324574
0.613000000000000433,-0.564055680974000384
