# ZnO10m10BOND_GANSCA-AC
# h[nm],U(h)[kJ/mol]
0.149999999999999994,144.734261769292345434
0.150999999999999995,143.048995055293005407
0.151999999999999996,141.532165669554927945
0.152999999999999997,140.076641766874843142
0.153999999999999998,138.628913349485003437
0.154999999999999999,137.167905780109919078
0.156000000000000000,135.690415904496205712
0.157000000000000001,134.201638310581358837
0.158000000000000002,132.709415550053819288
0.159000000000000002,131.221084590338250564
0.160000000000000003,129.742039429444020016
0.161000000000000004,128.275354867886420607
0.162000000000000005,126.822005560148269865
0.163000000000000006,125.381364810421629841
0.164000000000000007,123.951781771813145383
0.165000000000000008,122.531118869855191633
0.166000000000000009,121.117189245982970647
0.167000000000000010,119.708072433965028836
0.168000000000000010,118.302310297442474507
0.169000000000000011,116.898998583818723773
0.170000000000000012,115.497795557080010553
0.171000000000000013,114.098870561179779770
0.172000000000000014,112.702813885257157267
0.173000000000000015,111.310526270339181565
0.174000000000000016,109.923102716395504785
0.175000000000000017,108.541721504950174904
0.176000000000000018,107.167545899912255436
0.177000000000000018,105.801643016641605755
0.178000000000000019,104.444921932231068240
0.179000000000000020,103.098091250632393212
0.180000000000000021,101.761634991994895927
0.181000000000000022,100.435804779796399089
0.182000000000000023,99.120625775574254135
0.183000000000000024,97.815913582316994734
0.184000000000000025,96.521299332074789845
0.185000000000000026,95.236260327666172998
0.186000000000000026,93.960153868832065882
0.187000000000000027,92.692252216098012241
0.188000000000000028,91.431776996658953749
0.189000000000000029,90.177931709964710194
0.190000000000000030,88.929931327819730313
0.191000000000000031,87.687028292275428498
0.192000000000000032,86.448534486851286829
0.193000000000000033,85.213838988983184208
0.194000000000000034,83.982421603282034539
0.195000000000000034,82.753862327503910024
0.196000000000000035,81.527847018840915894
0.197000000000000036,80.304169610897560005
0.198000000000000037,79.082731285658852016
0.199000000000000038,77.863537034200973608
0.200000000000000039,76.646690049083957774
0.201000000000000040,75.432384384316861770
0.202000000000000041,74.220896299187430145
0.203000000000000042,73.012574673382317769
0.204000000000000042,71.807830845559550426
0.205000000000000043,70.607128188305068761
0.206000000000000044,69.410971691236468928
0.207000000000000045,68.219897782548528653
0.208000000000000046,67.034464578816965741
0.209000000000000047,65.855242714368046109
0.210000000000000048,64.682806865689798315
0.211000000000000049,63.517728053685758027
0.212000000000000050,62.360566777333112043
0.213000000000000050,61.211867006639032240
0.214000000000000051,60.072151040682079781
0.215000000000000052,58.941915217889814471
0.216000000000000053,57.821626450364803418
0.217000000000000054,56.711719541802629863
0.218000000000000055,55.612595239093685962
0.219000000000000056,54.524618960782547106
0.220000000000000057,53.448120140884824991
0.221000000000000058,52.383392123854413569
0.222000000000000058,51.330692545460294696
0.223000000000000059,50.290244134722925651
0.224000000000000060,49.262235873613768433
0.225000000000000061,48.246824453719852954
0.226000000000000062,47.244135972305777216
0.227000000000000063,46.254267813986139402
0.228000000000000064,45.277290668389866823
0.229000000000000065,44.313250638608437271
0.230000000000000066,43.362171399758111079
0.231000000000000066,42.424056371541276178
0.232000000000000067,41.498890873187008310
0.233000000000000068,40.586644233509915125
0.234000000000000069,39.687271833000352217
0.235000000000000070,38.800717058802817405
0.236000000000000071,37.926913157124054976
0.237000000000000072,37.065784971016469740
0.238000000000000073,36.217250554594450307
0.239000000000000073,35.381222657556548938
0.240000000000000074,34.557610076402077937
0.241000000000000075,33.746318870958873504
0.242000000000000076,32.947253446783030029
0.243000000000000077,32.160317505666355942
0.244000000000000078,31.385414867909911862
0.245000000000000079,30.622450171203979608
0.246000000000000080,29.871329451919773845
0.247000000000000081,29.131960615377710866
0.248000000000000081,28.404253802235466253
0.249000000000000082,27.688121658550869597
0.250000000000000111,26.983479517338338383
0.251000000000000112,26.290245499572222343
0.252000000000000113,25.608340542608193147
0.253000000000000114,24.937688363917459355
0.254000000000000115,24.278215367863289487
0.255000000000000115,23.629850503017699737
0.256000000000000116,22.992525077223831431
0.257000000000000117,22.366172537271868492
0.258000000000000118,21.750728219682418541
0.259000000000000119,21.146129078689622105
0.260000000000000120,20.552313397096124703
0.261000000000000121,19.969220485240995799
0.262000000000000122,19.396790372884670006
0.263000000000000123,18.834963498379430291
0.264000000000000123,18.283680399062866684
0.265000000000000124,17.742881406390601740
0.266000000000000125,17.212506348915773913
0.267000000000000126,16.692494265829800781
0.268000000000000127,16.182783133402544706
0.269000000000000128,15.683309606304757011
0.270000000000000129,15.194008775459261429
0.271000000000000130,14.714813943753068060
0.272000000000000131,14.245656420650707474
0.273000000000000131,13.786465336478343602
0.274000000000000132,13.337167476900685159
0.275000000000000133,12.897687137886084230
0.276000000000000134,12.467946001250258092
0.277000000000000135,12.047863030685604713
0.278000000000000136,11.637354388018176010
0.279000000000000137,11.236333369289681627
0.280000000000000138,10.844710360135703553
0.281000000000000139,10.462392809820977746
0.282000000000000139,10.089285223200194608
0.283000000000000140,9.725289169794233857
0.284000000000000141,9.370303309108326317
0.285000000000000142,9.024223431267575535
0.286000000000000143,8.686942512006659456
0.287000000000000144,8.358350781023279552
0.288000000000000145,8.038335802686466636
0.289000000000000146,7.726782568083550018
0.290000000000000147,7.423573597388106293
0.291000000000000147,7.128589051539170107
0.292000000000000148,6.841706852234582747
0.293000000000000149,6.562802809261303771
0.294000000000000150,6.291750754208844221
0.295000000000000151,6.028422679640778270
0.296000000000000152,5.772688882830845358
0.297000000000000153,5.524418113205317837
0.298000000000000154,5.283477722670335552
0.299000000000000155,5.049733818042367872
0.300000000000000155,4.823051414840543671
0.301000000000000156,4.603294591741444286
0.302000000000000157,4.390326645039175801
0.303000000000000158,4.184010242496428944
0.304000000000000159,3.984207576014792807
0.305000000000000160,3.790780512595133267
0.306000000000000161,3.603590743100683280
0.307000000000000162,3.422499928376619316
0.308000000000000163,3.247369842320350752
0.309000000000000163,3.078062511535757384
0.310000000000000164,2.914440351242619354
0.311000000000000165,2.756366297149349442
0.312000000000000166,2.603703933032018192
0.313000000000000167,2.456317613796856314
0.314000000000000168,2.314072583835347086
0.315000000000000169,2.176835090511924253
0.316000000000000170,2.044472492653041318
0.317000000000000171,1.916853363934218679
0.318000000000000171,1.793847591087237792
0.319000000000000172,1.675326466873896747
0.320000000000000173,1.561162777795457091
0.321000000000000174,1.451230886528027897
0.322000000000000175,1.345406809093426581
0.323000000000000176,1.243568286793393485
0.324000000000000177,1.145594852951275611
0.325000000000000178,1.051367894520893520
0.326000000000000179,0.960770708635548587
0.327000000000000179,0.873688554183100985
0.328000000000000180,0.790008698504099049
0.329000000000000181,0.709620459319768027
0.330000000000000182,0.632415242006000966
0.331000000000000183,0.558286572336734288
0.332000000000000184,0.487130124827349964
0.333000000000000185,0.418843746814200002
0.334000000000000186,0.353327478411342488
0.335000000000000187,0.290483568489567301
0.336000000000000187,0.230216486825860212
0.337000000000000188,0.172432932574229092
0.338000000000000189,0.117041839210035012
0.339000000000000190,0.063954376101438462
0.340000000000000191,0.013083946861964079
0.341000000000000192,-0.035653815362027073
0.342000000000000193,-0.082341055515633060
0.343000000000000194,-0.127057707019385735
0.344000000000000195,-0.169881504761918822
0.345000000000000195,-0.210888000552881760
0.346000000000000196,-0.250150580889140550
0.347000000000000197,-0.287740486890413316
0.348000000000000198,-0.323726836263029671
0.349000000000000199,-0.358176647153591543
0.350000000000000200,-0.391154863757728566
0.351000000000000201,-0.422724383552412319
0.352000000000000202,-0.452946086024035466
0.353000000000000203,-0.481878862768253202
0.354000000000000203,-0.509579648841377741
0.355000000000000204,-0.536103455247012528
0.356000000000000205,-0.561503402445818423
0.357000000000000206,-0.585830754780332752
0.358000000000000207,-0.609134955710634585
0.359000000000000208,-0.631463663761121063
0.360000000000000209,-0.652862789082604644
0.361000000000000210,-0.673376530537967199
0.362000000000000210,-0.693047413223931152
0.363000000000000211,-0.711916326345302330
0.364000000000000212,-0.730022561362274613
0.365000000000000213,-0.747403850335136455
0.366000000000000214,-0.764096404394757456
0.367000000000000215,-0.780134952270923443
0.368000000000000216,-0.795552778814492156
0.369000000000000217,-0.810381763452781456
0.370000000000000218,-0.824652418521389818
0.371000000000000218,-0.838393927418925267
0.372000000000000219,-0.851634182534675488
0.373000000000000220,-0.864399822902447434
0.374000000000000221,-0.876716271537023140
0.375000000000000222,-0.888607772412594032
0.376000000000000223,-0.900097427045952747
0.377000000000000224,-0.911207230649539568
0.378000000000000225,-0.921958107822641204
0.379000000000000226,-0.932369947751469197
0.380000000000000226,-0.942461638891587961
0.381000000000000227,-0.952251103108403996
0.382000000000000228,-0.961755329254018299
0.383000000000000229,-0.970990406160840758
0.384000000000000230,-0.979971555034528152
0.385000000000000231,-0.988713161231027704
0.386000000000000232,-0.997228805404196450
0.387000000000000233,-1.005531294012628196
0.388000000000000234,-1.013632689175792523
0.389000000000000234,-1.021544337871576724
0.390000000000000235,-1.029276900468617528
0.391000000000000236,-1.036840378588570921
0.392000000000000237,-1.044244142294670663
0.393000000000000238,-1.051496956604467625
0.394000000000000239,-1.058607007325683025
0.395000000000000240,-1.065581926215521946
0.396000000000000241,-1.072428815464714802
0.397000000000000242,-1.079154271508661278
0.398000000000000242,-1.085764408169085593
0.399000000000000243,-1.092264879130343758
0.400000000000000244,-1.098660899755534714
0.401000000000000245,-1.104957268248301983
0.402000000000000246,-1.111158386166720025
0.403000000000000247,-1.117268278296724704
0.404000000000000248,-1.123290611892729274
0.405000000000000249,-1.129228715293914220
0.406000000000000250,-1.135085595924997914
0.407000000000000250,-1.140863957690898545
0.408000000000000251,-1.146566217774968255
0.409000000000000252,-1.152194522850947811
0.410000000000000253,-1.157750764719081893
0.411000000000000254,-1.163236595377084681
0.412000000000000255,-1.168653441536956050
0.413000000000000256,-1.174002518598858513
0.414000000000000257,-1.179284844093335893
0.415000000000000258,-1.184501250603545941
0.416000000000000258,-1.189652398178956849
0.417000000000000259,-1.194738786252427021
0.418000000000000260,-1.199760765072333424
0.419000000000000261,-1.204718546661689205
0.420000000000000262,-1.209612215316033801
0.421000000000000263,-1.214441737652058650
0.422000000000000264,-1.219206972218703555
0.423000000000000265,-1.223907678682583100
0.424000000000000266,-1.228543526599557012
0.425000000000000266,-1.233114103783946369
0.426000000000000267,-1.237618924287158917
0.427000000000000268,-1.242057435997108383
0.428000000000000269,-1.246429027869792261
0.429000000000000270,-1.250733036804356102
0.430000000000000271,-1.254968754172625767
0.431000000000000272,-1.259135432014191647
0.432000000000000273,-1.263232288907750522
0.433000000000000274,-1.267258515529417817
0.434000000000000274,-1.271213279908440352
0.435000000000000275,-1.275095732390606695
0.436000000000000276,-1.278905010319509428
0.437000000000000277,-1.282640242445528767
0.438000000000000278,-1.286300553072303732
0.439000000000000279,-1.289885065950244991
0.440000000000000280,-1.293392907926402602
0.441000000000000281,-1.296823212359821564
0.442000000000000282,-1.300175122311415299
0.443000000000000282,-1.303447793516926634
0.444000000000000283,-1.306640397151707544
0.445000000000000284,-1.309752122395481333
0.446000000000000285,-1.312782178805253164
0.447000000000000286,-1.315729798504385650
0.448000000000000287,-1.318594238195348600
0.449000000000000288,-1.321374781003867405
0.450000000000000289,-1.324070738161588157
0.451000000000000290,-1.326681450534463735
0.452000000000000290,-1.329206290003761337
0.453000000000000291,-1.331644660706305494
0.454000000000000292,-1.333996000140572402
0.455000000000000293,-1.336259780144858356
0.456000000000000294,-1.338435507753674258
0.457000000000000295,-1.340522725938329884
0.458000000000000296,-1.342521014237359811
0.459000000000000297,-1.344429989282437399
0.460000000000000298,-1.346249305225109882
0.461000000000000298,-1.347978654069561966
0.462000000000000299,-1.349617765916449219
0.463000000000000300,-1.351166409122597445
0.464000000000000301,-1.352624390381348629
0.465000000000000302,-1.353991554727992597
0.466000000000000303,-1.355267785474663977
0.467000000000000304,-1.356453004078943980
0.468000000000000305,-1.357547169950155563
0.469000000000000306,-1.358550280197280857
0.470000000000000306,-1.359462369322282260
0.471000000000000307,-1.360283508862337953
0.472000000000000308,-1.361013806984549435
0.473000000000000309,-1.361653408036422652
0.474000000000000310,-1.362202492055269998
0.475000000000000311,-1.362661274239670428
0.476000000000000312,-1.363030004385869631
0.477000000000000313,-1.363308966291978619
0.478000000000000314,-1.363498477132604192
0.479000000000000314,-1.363598886806587362
0.480000000000000315,-1.363610577260189860
0.481000000000000316,-1.363533961788235160
0.482000000000000317,-1.363369484315295255
0.483000000000000318,-1.363117618659207553
0.484000000000000319,-1.362778867778881242
0.485000000000000320,-1.362353763008388396
0.486000000000000321,-1.361842863279175919
0.487000000000000322,-1.361246754332199771
0.488000000000000322,-1.360566047921557331
0.489000000000000323,-1.359801381011387145
0.490000000000000324,-1.358953414967378537
0.491000000000000325,-1.358022834744422314
0.492000000000000326,-1.357010348071705064
0.493000000000000327,-1.355916684636584879
0.494000000000000328,-1.354742595268406236
0.495000000000000329,-1.353488851123436643
0.496000000000000330,-1.352156242871946024
0.497000000000000330,-1.350745579888562142
0.498000000000000331,-1.349257689446646813
0.499000000000000332,-1.347693415917823545
0.500000000000000333,-1.346053619977344296
0.501000000000000334,-1.344339177816061381
0.502000000000000335,-1.342550980359852764
0.503000000000000336,-1.340689932497064474
0.504000000000000337,-1.338756952314674065
0.505000000000000338,-1.336752970343702884
0.506000000000000338,-1.334678928814471588
0.507000000000000339,-1.332535780922160296
0.508000000000000340,-1.330324490103104162
0.509000000000000341,-1.328046029322361488
0.510000000000000342,-1.325701380372754645
0.511000000000000343,-1.323291533185900537
0.512000000000000344,-1.320817485155408644
0.513000000000000345,-1.318280240472605502
0.514000000000000346,-1.315680809475045399
0.515000000000000346,-1.313020208007919853
0.516000000000000347,-1.310299456798663220
0.517000000000000348,-1.307519580844906493
0.518000000000000349,-1.304681608815831506
0.519000000000000350,-1.301786572467154013
0.520000000000000351,-1.298835506069722312
0.521000000000000352,-1.295829445851910400
0.522000000000000353,-1.292769429455731700
0.523000000000000353,-1.289656495406794834
0.524000000000000354,-1.286491682598094322
0.525000000000000355,-1.283276029787597805
0.526000000000000356,-1.280010575109610693
0.527000000000000357,-1.276696355599951982
0.528000000000000358,-1.273334406734752289
0.529000000000000359,-1.269925761982976242
0.530000000000000360,-1.266471452372410988
0.531000000000000361,-1.262972506069186540
0.532000000000000361,-1.259429947970619690
0.533000000000000362,-1.255844799311324866
0.534000000000000363,-1.252218077282428510
0.535000000000000364,-1.248550794663805696
0.536000000000000365,-1.244843959469133621
0.537000000000000366,-1.241098574603687776
0.538000000000000367,-1.237315637534627033
0.539000000000000368,-1.233496139973745631
0.540000000000000369,-1.229641067572353252
0.541000000000000369,-1.225751399628285609
0.542000000000000370,-1.221828108804701163
0.543000000000000371,-1.217872160860607345
0.544000000000000372,-1.213884514392865821
0.545000000000000373,-1.209866120589506489
0.546000000000000374,-1.205817922994132152
0.547000000000000375,-1.201740857281246466
0.548000000000000376,-1.197635851042298194
0.549000000000000377,-1.193503823582222845
0.550000000000000377,-1.189345685726300728
0.551000000000000378,-1.185162339637094497
0.552000000000000379,-1.180954678641314981
0.553000000000000380,-1.176723587066348831
0.554000000000000381,-1.172469940086257933
0.555000000000000382,-1.168194603577102475
0.556000000000000383,-1.163898433981249481
0.557000000000000384,-1.159582278180623316
0.558000000000000385,-1.155246973378532882
0.559000000000000385,-1.150893346989990462
0.560000000000000386,-1.146522216540250216
0.561000000000000387,-1.142134389571383579
0.562000000000000388,-1.137730663556662636
0.563000000000000389,-1.133311825822621577
0.564000000000000390,-1.128878653478489813
0.565000000000000391,-1.124431913352881063
0.566000000000000392,-1.119972361937502159
0.567000000000000393,-1.115500745337719701
0.568000000000000393,-1.111017799229726988
0.569000000000000394,-1.106524248824191314
0.570000000000000395,-1.102020808836164711
0.571000000000000396,-1.097508183461026521
0.572000000000000397,-1.092987066356383874
0.573000000000000398,-1.088458140629611437
0.574000000000000399,-1.083922078830970692
0.575000000000000400,-1.079379542952038751
0.576000000000000401,-1.074831184429330122
0.577000000000000401,-1.070277644152949570
0.578000000000000402,-1.065719552480034249
0.579000000000000403,-1.061157529252876985
0.580000000000000404,-1.056592183821595921
0.581000000000000405,-1.052024115071083177
0.582000000000000406,-1.047453911452205011
0.583000000000000407,-1.042882151016979675
0.584000000000000408,-1.038309401457677250
0.585000000000000409,-1.033736220149622742
0.586000000000000409,-1.029163154197596963
0.587000000000000410,-1.024590740485689100
0.588000000000000411,-1.020019505730406228
0.589000000000000412,-1.015449966537020909
0.590000000000000413,-1.010882629458869308
0.591000000000000414,-1.006317991059588524
0.592000000000000415,-1.001756537978132133
0.593000000000000416,-0.997198746996390328
0.594000000000000417,-0.992645085109338354
0.595000000000000417,-0.988096009597637659
0.596000000000000418,-0.983551968102413299
0.597000000000000419,-0.979013398702307747
0.598000000000000420,-0.974480729992503014
0.599000000000000421,-0.969954381165742285
0.600000000000000422,-0.965434762095158439
0.601000000000000423,-0.960922273418847062
0.602000000000000424,-0.956417306626073049
0.603000000000000425,-0.951920244145021632
0.604000000000000425,-0.947431459431957945
0.605000000000000426,-0.942951317061753613
0.606000000000000427,-0.938480172819697644
0.607000000000000428,-0.934018373794361700
0.608000000000000429,-0.929566258471725249
0.609000000000000430,-0.925124156830092081
0.610000000000000431,-0.920692390436094854
0.611000000000000432,-0.916271272541440807
0.612000000000000433,-0.911861108180419322
0.613000000000000433,-0.907462194268149780
