# ZnO10m10BOND_BGLCNA-AC
# h[nm],U(h)[kJ/mol]
0.149999999999999994,216.973354455868872037
0.150999999999999995,213.956318105966886378
0.151999999999999996,211.814806505554145133
0.152999999999999997,209.816474845814951777
0.153999999999999998,207.708503385642870853
0.154999999999999999,205.458025634797877501
0.156000000000000000,203.113768141992295568
0.157000000000000001,200.738514219667138150
0.158000000000000002,198.381111418817937420
0.159000000000000002,196.069111700653138541
0.160000000000000003,193.811008089822223610
0.161000000000000004,191.601941746760218166
0.162000000000000005,189.429733633013597682
0.163000000000000006,187.279839103244796661
0.164000000000000007,185.138792222516940456
0.165000000000000008,182.996201021282331567
0.166000000000000009,180.845569866332937181
0.167000000000000010,178.684283772139849589
0.168000000000000010,176.513067765619723559
0.169000000000000011,174.335177631864098657
0.170000000000000012,172.155512195505792761
0.171000000000000013,169.979775190425613118
0.172000000000000014,167.813762803752524633
0.173000000000000015,165.662812939237852561
0.174000000000000016,163.531423618743218640
0.175000000000000017,161.423029126806511613
0.176000000000000018,159.339911524727057213
0.177000000000000018,157.283220062553368734
0.178000000000000019,155.253070066985117137
0.179000000000000020,153.248694649463516271
0.180000000000000021,151.268625943298019365
0.181000000000000022,149.310886710388217580
0.182000000000000023,147.373177470998200533
0.183000000000000024,145.453048416652478636
0.184000000000000025,143.548049032832778948
0.185000000000000026,141.655851465209337903
0.186000000000000026,139.774346172109915187
0.187000000000000027,137.901710332790401026
0.188000000000000028,136.036450875724540310
0.189000000000000029,134.177424922150549946
0.190000000000000030,132.323840983735237842
0.191000000000000031,130.475244485824958929
0.192000000000000032,128.631491181027456605
0.193000000000000033,126.792711835938192166
0.194000000000000034,124.959271271875010711
0.195000000000000034,123.131724464393101925
0.196000000000000035,121.310771992997501911
0.197000000000000036,119.497216710439175813
0.198000000000000037,117.691923091567105075
0.199000000000000038,115.895780339915219770
0.200000000000000039,114.109669985852747232
0.201000000000000040,112.334438408815501020
0.202000000000000041,110.570874460183446786
0.203000000000000042,108.819692152591102285
0.204000000000000042,107.081518213855702015
0.205000000000000043,105.356884176054634850
0.206000000000000044,103.646222578549242144
0.207000000000000045,101.949866803522439795
0.208000000000000046,100.268054029299861440
0.209000000000000047,98.600930775883441015
0.210000000000000048,96.948560524489124646
0.211000000000000049,95.310932914527072057
0.212000000000000050,93.687974053855867851
0.213000000000000050,92.079557518184486753
0.214000000000000051,90.485515660494726831
0.215000000000000052,88.905650899059054382
0.216000000000000053,87.339746701161672604
0.217000000000000054,85.787578027497346511
0.218000000000000055,84.248921048244355347
0.219000000000000056,82.723561985110080741
0.220000000000000057,81.211304973594479861
0.221000000000000058,79.711978875907661291
0.222000000000000058,78.225443007167754672
0.223000000000000059,76.751591765627480868
0.224000000000000060,75.290358181760836942
0.225000000000000061,73.841716421218649202
0.226000000000000062,72.405683293138565659
0.227000000000000063,70.982318828317445991
0.228000000000000064,69.571726001619055069
0.229000000000000065,68.174049679990048389
0.230000000000000066,66.789474881923680982
0.231000000000000066,65.418224436443978220
0.232000000000000067,64.060556130001558017
0.233000000000000068,62.716759428360191464
0.234000000000000069,61.387151857894124873
0.235000000000000070,60.072075126959973090
0.236000000000000071,58.771891063393738364
0.237000000000000072,57.486977438917129746
0.238000000000000073,56.217723745513239919
0.239000000000000073,54.964526982812991207
0.240000000000000074,53.727787509358947204
0.241000000000000075,52.507905004417487760
0.242000000000000076,51.305274580884614011
0.243000000000000077,50.120283083869807683
0.244000000000000078,48.953305603811898550
0.245000000000000079,47.804702227536118642
0.246000000000000080,46.674815045546374392
0.247000000000000081,45.563965429085513392
0.248000000000000081,44.472451586115582245
0.249000000000000082,43.400546401376224992
0.250000000000000111,42.348495562075946452
0.251000000000000112,41.316515967556739497
0.252000000000000113,40.304794418437587922
0.253000000000000114,39.313486578276226169
0.254000000000000115,38.342716198671872974
0.255000000000000115,37.392574596949529564
0.256000000000000116,36.463120374096902765
0.257000000000000117,35.554379359445000830
0.258000000000000118,34.666344767674679872
0.259000000000000119,33.798977553065768120
0.260000000000000120,32.952206945464247667
0.261000000000000121,32.125931152202852559
0.262000000000000122,31.320018210147850368
0.263000000000000123,30.534306972142267966
0.264000000000000123,29.768608212349153774
0.265000000000000124,29.022705835352798687
0.266000000000000125,28.296358174330396906
0.267000000000000126,27.589299364146960158
0.268000000000000127,26.901240775834473595
0.269000000000000128,26.231872499582799207
0.270000000000000129,25.580864864076307441
0.271000000000000130,24.947869980748855312
0.272000000000000131,24.332523302289899902
0.273000000000000131,23.734445185504206677
0.274000000000000132,23.153242449402277714
0.275000000000000133,22.588509920167627598
0.276000000000000134,22.039831955406544495
0.277000000000000135,21.506783940829947710
0.278000000000000136,20.988933753239439994
0.279000000000000137,20.485843184388951244
0.280000000000000138,19.997069320965557893
0.281000000000000139,19.522165876574568699
0.282000000000000139,19.060684472224824759
0.283000000000000140,18.612175862387125846
0.284000000000000141,18.176191104242711560
0.285000000000000142,17.752282668246927244
0.286000000000000143,17.340005488608007056
0.287000000000000144,16.938917952720309756
0.288000000000000145,16.548582828996607930
0.289000000000000146,16.168568132917112479
0.290000000000000147,15.798447931450704473
0.291000000000000147,15.437803086313341083
0.292000000000000148,15.086221936804241395
0.293000000000000149,14.743300923209645248
0.294000000000000150,14.408645151983193955
0.295000000000000151,14.081868904105565576
0.296000000000000152,13.762596088194339217
0.297000000000000153,13.450460640079606733
0.298000000000000154,13.145106870682974787
0.299000000000000155,12.846189764139371192
0.300000000000000155,12.553375228182890311
0.301000000000000156,12.266340298882719040
0.302000000000000157,11.984773301861965322
0.303000000000000158,11.708373972165647459
0.304000000000000159,11.436853534961809231
0.305000000000000160,11.169934749266312579
0.306000000000000161,10.907351916875702713
0.307000000000000162,10.648850858677048947
0.308000000000000163,10.394188860478301706
0.309000000000000163,10.143134590469633949
0.310000000000000164,9.895467990385320434
0.311000000000000165,9.650980142389180116
0.312000000000000166,9.409473113653959331
0.313000000000000167,9.170759780548237927
0.314000000000000168,8.934663634283339206
0.315000000000000169,8.701018569808690373
0.316000000000000170,8.469668659676880651
0.317000000000000171,8.240467914531457438
0.318000000000000171,8.013280031799684622
0.319000000000000172,7.787978134101218863
0.320000000000000173,7.564444498811987216
0.321000000000000174,7.342570280150482631
0.322000000000000175,7.122255225081488561
0.323000000000000176,6.903407384261543989
0.324000000000000177,6.685942819179314434
0.325000000000000178,6.469785306575227324
0.326000000000000179,6.254866041156017964
0.327000000000000179,6.041123337553633732
0.328000000000000180,5.828502332412729636
0.329000000000000181,5.616954687427758053
0.330000000000000182,5.406438294089603858
0.331000000000000183,5.196916980842073208
0.332000000000000184,4.988360223291701701
0.333000000000000185,4.780742858059209510
0.334000000000000186,4.574044800807930855
0.335000000000000187,4.368250768934232475
0.336000000000000187,4.163350009356100223
0.337000000000000188,3.959336031790671395
0.338000000000000189,3.756206347866700490
0.339000000000000190,3.553962216376880257
0.340000000000000191,3.352608394935372438
0.341000000000000192,3.152152898268327341
0.342000000000000193,2.952606763330159811
0.343000000000000194,2.753983821405033616
0.344000000000000195,2.556300477322377862
0.345000000000000195,2.359575495885233298
0.346000000000000196,2.163829795584007343
0.347000000000000197,1.969086249642017394
0.348000000000000198,1.775369494416150884
0.349000000000000199,1.582705745153850652
0.350000000000000200,1.391122619087471479
0.351000000000000201,1.200648965828474468
0.352000000000000202,1.011314705006930437
0.353000000000000203,0.823150671085999042
0.354000000000000203,0.636188465266865344
0.355000000000000204,0.450460314386979532
0.356000000000000205,0.265998936702450617
0.357000000000000206,0.082837414435000409
0.358000000000000207,-0.098990927044943250
0.359000000000000208,-0.279452633536186767
0.360000000000000209,-0.458514229970143794
0.361000000000000210,-0.636142322169672481
0.362000000000000210,-0.812303692559709356
0.363000000000000211,-0.986965389989771014
0.364000000000000212,-1.160094813832624805
0.365000000000000213,-1.331659792526226793
0.366000000000000214,-1.501628656728415168
0.367000000000000215,-1.669970307255459030
0.368000000000000216,-1.836654277976938587
0.369000000000000217,-2.001650793839446774
0.370000000000000218,-2.164930824192290437
0.371000000000000218,-2.326466131587337394
0.372000000000000219,-2.486229316224787489
0.373000000000000220,-2.644193856215207639
0.374000000000000221,-2.800334143826459510
0.375000000000000222,-2.954625517882287333
0.376000000000000223,-3.107044292477531666
0.377000000000000224,-3.257567782171682857
0.378000000000000225,-3.406174323820495342
0.379000000000000226,-3.552843295201951523
0.380000000000000226,-3.697555130590279848
0.381000000000000227,-3.840291333427809040
0.382000000000000228,-3.981034486241719073
0.383000000000000229,-4.119768257948710044
0.384000000000000230,-4.256477408687246111
0.385000000000000231,-4.391147792313339515
0.386000000000000232,-4.523766356691825585
0.387000000000000233,-4.654321141911667681
0.388000000000000234,-4.782801276549463410
0.389000000000000234,-4.909196972101986134
0.390000000000000235,-5.033499515704225047
0.391000000000000236,-5.155701261245816625
0.392000000000000237,-5.275795618994703062
0.393000000000000238,-5.393777043833134499
0.394000000000000239,-5.509641022207101280
0.395000000000000240,-5.623384057886689824
0.396000000000000241,-5.735003656630977886
0.397000000000000242,-5.844498309847370621
0.398000000000000242,-5.951867477331767908
0.399000000000000243,-6.057111569172047183
0.400000000000000244,-6.160231926894285337
0.401000000000000245,-6.261230803927289479
0.402000000000000246,-6.360111345457601928
0.403000000000000247,-6.456877567744333746
0.404000000000000248,-6.551534336959245586
0.405000000000000249,-6.644087347614879846
0.406000000000000250,-6.734543100640164148
0.407000000000000250,-6.822908881160083538
0.408000000000000251,-6.909192736033022086
0.409000000000000252,-6.993403451196499532
0.410000000000000253,-7.075550528869490208
0.411000000000000254,-7.155644164656554729
0.412000000000000255,-7.233695224596635498
0.413000000000000256,-7.309715222197016082
0.414000000000000257,-7.383716295490010850
0.415000000000000258,-7.455711184148381854
0.416000000000000258,-7.525713206692477897
0.417000000000000259,-7.593736237820559509
0.418000000000000260,-7.659794685891244903
0.419000000000000261,-7.723903470585362641
0.420000000000000262,-7.786078000772181262
0.421000000000000263,-7.846334152603724021
0.422000000000000264,-7.904688247858298489
0.423000000000000265,-7.961157032553538571
0.424000000000000266,-8.015757655847066232
0.425000000000000266,-8.068507649241414725
0.426000000000000267,-8.119424906108580586
0.427000000000000268,-8.168527661548004914
0.428000000000000269,-8.215834472590355375
0.429000000000000270,-8.261364198758410993
0.430000000000000271,-8.305135982994892530
0.431000000000000272,-8.347169232966205499
0.432000000000000273,-8.387483602749531642
0.433000000000000274,-8.426098974910111394
0.434000000000000274,-8.463035442974316425
0.435000000000000275,-8.498313294303081022
0.436000000000000276,-8.531952993369680271
0.437000000000000277,-8.563975165444677629
0.438000000000000278,-8.594400580690258806
0.439000000000000279,-8.623250138665403242
0.440000000000000280,-8.650544853242561061
0.441000000000000281,-8.676305837935833765
0.442000000000000282,-8.700554291640312243
0.443000000000000282,-8.723311484781074654
0.444000000000000283,-8.744598745870513667
0.445000000000000284,-8.764437448471493752
0.446000000000000285,-8.782848998563842713
0.447000000000000286,-8.799854822311070635
0.448000000000000287,-8.815476354223598321
0.449000000000000288,-8.829735025714921193
0.450000000000000289,-8.842652254046136306
0.451000000000000290,-8.854249431654487523
0.452000000000000290,-8.864547915861047400
0.453000000000000291,-8.873569018952291998
0.454000000000000292,-8.881333998630363880
0.455000000000000293,-8.887864048826322971
0.456000000000000294,-8.893180290870642324
0.457000000000000295,-8.897303765015067256
0.458000000000000296,-8.900255422299514052
0.459000000000000297,-8.902056116758052084
0.460000000000000298,-8.902726597957270727
0.461000000000000298,-8.902287503860838669
0.462000000000000299,-8.900759354013519697
0.463000000000000300,-8.898162543038001360
0.464000000000000301,-8.894517334437979983
0.465000000000000302,-8.889843854700604453
0.466000000000000303,-8.884162087691553467
0.467000000000000304,-8.877491869336051167
0.468000000000000305,-8.869852882578815212
0.469000000000000306,-8.861264652616281268
0.470000000000000306,-8.851746542394367978
0.471000000000000307,-8.841317748364740936
0.472000000000000308,-8.829997296493127479
0.473000000000000309,-8.817804038512822018
0.474000000000000310,-8.804756648416708131
0.475000000000000311,-8.790873619181216014
0.476000000000000312,-8.776173259715690733
0.477000000000000313,-8.760673692030614745
0.478000000000000314,-8.744392848618238290
0.479000000000000314,-8.727348470039389738
0.480000000000000315,-8.709558102709980432
0.481000000000000316,-8.691039096881272741
0.482000000000000317,-8.671808604807496934
0.483000000000000318,-8.651883579095079213
0.484000000000000319,-8.631280771227347159
0.485000000000000320,-8.610016730258960749
0.486000000000000321,-8.588107801674350839
0.487000000000000322,-8.565570126404494999
0.488000000000000322,-8.542419639996388980
0.489000000000000323,-8.518672071930021517
0.490000000000000324,-8.494342945077278273
0.491000000000000325,-8.469447575297687436
0.492000000000000326,-8.444001071165763150
0.493000000000000327,-8.418018333825122212
0.494000000000000328,-8.391514056964210155
0.495000000000000329,-8.364502726909119446
0.496000000000000330,-8.336998622828456718
0.497000000000000330,-8.309015817046134345
0.498000000000000331,-8.280568175457005964
0.499000000000000332,-8.251669358041603175
0.500000000000000333,-8.222332819475273169
0.501000000000000334,-8.192571809827622786
0.502000000000000335,-8.162399375348396546
0.503000000000000336,-8.131828359335631973
0.504000000000000337,-8.100871403082361866
0.505000000000000338,-8.069540946898039024
0.506000000000000338,-8.037849231201109390
0.507000000000000339,-8.005808297679132934
0.508000000000000340,-7.973429990512956422
0.509000000000000341,-7.940725957661820544
0.510000000000000342,-7.907707652205782090
0.511000000000000343,-7.874386333742656063
0.512000000000000344,-7.840773069836115994
0.513000000000000345,-7.806878737512173316
0.514000000000000346,-7.772714024801141264
0.515000000000000346,-7.738289432322133621
0.516000000000000347,-7.703615274907551047
0.517000000000000348,-7.668701683264941948
0.518000000000000349,-7.633558605673509412
0.519000000000000350,-7.598195809713113924
0.520000000000000351,-7.562622884023066483
0.521000000000000352,-7.526849240088765214
0.522000000000000353,-7.490884114053637077
0.523000000000000353,-7.454736568554470644
0.524000000000000354,-7.418415494578044722
0.525000000000000355,-7.381929613336933649
0.526000000000000356,-7.345287478162726202
0.527000000000000357,-7.308497476414766325
0.528000000000000358,-7.271567831402535376
0.529000000000000359,-7.234506604320185552
0.530000000000000360,-7.197321696191269602
0.531000000000000361,-7.160020849822418043
0.532000000000000361,-7.122611651764161778
0.533000000000000362,-7.085101534277607804
0.534000000000000363,-7.047497777305492761
0.535000000000000364,-7.009807510446302459
0.536000000000000365,-6.972037714930118923
0.537000000000000366,-6.934195225595061629
0.538000000000000367,-6.896286732862931146
0.539000000000000368,-6.858318784713257621
0.540000000000000369,-6.820297788654272608
0.541000000000000369,-6.782230013690171866
0.542000000000000370,-6.744121592283290667
0.543000000000000371,-6.705978522310606316
0.544000000000000372,-6.667806669013410570
0.545000000000000373,-6.629611766939463635
0.546000000000000374,-6.591399421876708686
0.547000000000000375,-6.553175112777815059
0.548000000000000376,-6.514944193674885753
0.549000000000000377,-6.476711895583501466
0.550000000000000377,-6.438483328395594008
0.551000000000000378,-6.400263482760330191
0.552000000000000379,-6.362057231952698899
0.553000000000000380,-6.323869333728970865
0.554000000000000381,-6.285704432168616407
0.555000000000000382,-6.247567059502368458
0.556000000000000383,-6.209461637925548061
0.557000000000000384,-6.171392481396757113
0.558000000000000385,-6.133363797421016450
0.559000000000000385,-6.095379688817368802
0.560000000000000386,-6.057444155470416369
0.561000000000000387,-6.019561096065470629
0.562000000000000388,-5.981734309807022143
0.563000000000000389,-5.943967498120366955
0.564000000000000390,-5.906264266335954360
0.565000000000000391,-5.868628125356350367
0.566000000000000392,-5.831062493305568140
0.567000000000000393,-5.793570697160609129
0.568000000000000393,-5.756155974364967065
0.569000000000000394,-5.718821474423964268
0.570000000000000395,-5.681570260481957568
0.571000000000000396,-5.644405310880931559
0.572000000000000397,-5.607329520700793601
0.573000000000000398,-5.570345703280964678
0.574000000000000399,-5.533456591723392215
0.575000000000000400,-5.496664840376814354
0.576000000000000401,-5.459973026302255228
0.577000000000000401,-5.423383650719877380
0.578000000000000402,-5.386899140436869793
0.579000000000000403,-5.350521849256629991
0.580000000000000404,-5.314254059369217131
0.581000000000000405,-5.278097982722915305
0.582000000000000406,-5.242055762377185069
0.583000000000000407,-5.206129473836807797
0.584000000000000408,-5.170321126367491971
0.585000000000000409,-5.134632664292830384
0.586000000000000409,-5.099065968272729066
0.587000000000000410,-5.063622856563473107
0.588000000000000411,-5.028305086259313050
0.589000000000000412,-4.993114354515932440
0.590000000000000413,-4.958052299755595804
0.591000000000000414,-4.923120502854326119
0.592000000000000415,-4.888320488311148182
0.593000000000000416,-4.853653725399387220
0.594000000000000417,-4.819121629300312293
0.595000000000000417,-4.784725562219307449
0.596000000000000418,-4.750466834484321943
0.597000000000000419,-4.716346705627297631
0.598000000000000420,-4.682366385448180068
0.599000000000000421,-4.648527035062071988
0.600000000000000422,-4.614829767929393256
0.601000000000000423,-4.581275650869353733
0.602000000000000424,-4.547865705056866048
0.603000000000000425,-4.514600907003025299
0.604000000000000425,-4.481482189519316428
0.605000000000000426,-4.448510442665756237
0.606000000000000427,-4.415686514683168085
0.607000000000000428,-4.383011212909507570
0.608000000000000429,-4.350485304680893783
0.609000000000000430,-4.318109518216933118
0.610000000000000431,-4.285884543491031096
0.611000000000000432,-4.253811033085505677
0.612000000000000433,-4.221889603031839577
