# ZnO10m10BOND_THRSCA-AC
# h[nm],U(h)[kJ/mol]
0.200000000000000011,58.137146257918445258
0.201000000000000012,57.121270387116773293
0.202000000000000013,56.185407367290430614
0.203000000000000014,55.285424381574230779
0.204000000000000015,54.395573945035799568
0.205000000000000016,53.502521007079977267
0.206000000000000016,52.600978739909621140
0.207000000000000017,51.690582398284924182
0.208000000000000018,50.773704441359555517
0.209000000000000019,49.853975431672701291
0.210000000000000020,48.935325704262254476
0.211000000000000021,48.021403975137182840
0.212000000000000022,47.115262349259793950
0.213000000000000023,46.219223863062843805
0.214000000000000024,45.334869872902849863
0.215000000000000024,44.463101248363145146
0.216000000000000025,43.604240278879295545
0.217000000000000026,42.758150158127520513
0.218000000000000027,41.924356464237106934
0.219000000000000028,41.102160697011171919
0.220000000000000029,40.290740071618202478
0.221000000000000030,39.489230733457269196
0.222000000000000031,38.696793620262653235
0.223000000000000032,37.912663571527716044
0.224000000000000032,37.136183144666446765
0.225000000000000033,36.366823078430179805
0.226000000000000034,35.604191553681957316
0.227000000000000035,34.848034422263921783
0.228000000000000036,34.098228469430729604
0.229000000000000037,33.354769591616133084
0.230000000000000038,32.617757544220502552
0.231000000000000039,31.887378668990798758
0.232000000000000040,31.163887765184835388
0.233000000000000040,30.447590035025410060
0.234000000000000041,29.738823819506741586
0.235000000000000042,29.037944649685123011
0.236000000000000043,28.345310973036077939
0.237000000000000044,27.661271774461464901
0.238000000000000045,26.986156196080127501
0.239000000000000046,26.320265167285391783
0.240000000000000047,25.663864984495347699
0.241000000000000048,25.017182726144120863
0.242000000000000048,24.380403350287117803
0.243000000000000049,23.753668297309712187
0.244000000000000050,23.137075406368779795
0.245000000000000051,22.530679949265493889
0.246000000000000052,21.934496587583733884
0.247000000000000053,21.348502066472715200
0.248000000000000054,20.772638469983121468
0.249000000000000055,20.206816877168439106
0.250000000000000056,19.650921274221143875
0.251000000000000056,19.104812594895907552
0.252000000000000057,18.568332778707674180
0.253000000000000058,18.041308753357590433
0.254000000000000059,17.523556264130093041
0.255000000000000060,17.014883488329424210
0.256000000000000061,16.515094386976436169
0.257000000000000062,16.023991758840466559
0.258000000000000063,15.541379973366133527
0.259000000000000064,15.067067369155051182
0.260000000000000064,14.600868313395460873
0.261000000000000065,14.142604925050894948
0.262000000000000066,13.692108470789872143
0.263000000000000067,13.249220447653295096
0.264000000000000068,12.813793370406752814
0.265000000000000069,12.385691284515807808
0.266000000000000070,11.964790027816277984
0.267000000000000071,11.550977265330420352
0.268000000000000071,11.144152322404726974
0.269000000000000072,10.744225841508818320
0.270000000000000073,10.351119287728161922
0.271000000000000074,9.964764327287127799
0.272000000000000075,9.585102102429113202
0.273000000000000076,9.212082424725004159
0.274000000000000077,8.845662907440543066
0.275000000000000078,8.485808056021207690
0.276000000000000079,8.132488334096937166
0.277000000000000079,7.785679220707699244
0.278000000000000080,7.445360272741341490
0.279000000000000081,7.111514204882828594
0.280000000000000082,6.784125997725974244
0.281000000000000083,6.463182043111572739
0.282000000000000084,6.148669334246188001
0.283000000000000085,5.840574706734622090
0.284000000000000086,5.538884135333394632
0.285000000000000087,5.243582090010270313
0.286000000000000087,4.954650953775963096
0.287000000000000088,4.672070503741966974
0.288000000000000089,4.395817455950997044
0.289000000000000090,4.125865073721713294
0.290000000000000091,3.862182838544877317
0.291000000000000092,3.604736181957695074
0.292000000000000093,3.353486276304265434
0.293000000000000094,3.108389881855464942
0.294000000000000095,2.869399247406653863
0.295000000000000095,2.636462061189285500
0.296000000000000096,2.409521448718167758
0.297000000000000097,2.188516014042082070
0.298000000000000098,1.973379920767133200
0.299000000000000099,1.764043009172682641
0.300000000000000100,1.560430945734405883
0.301000000000000101,1.362465401401318221
0.302000000000000102,1.170064255040153878
0.303000000000000103,0.983141818554194580
0.304000000000000103,0.801609080302778665
0.305000000000000104,0.625373963585650894
0.306000000000000105,0.454341597110823614
0.307000000000000106,0.288414594531820168
0.308000000000000107,0.127493340316460563
0.309000000000000108,-0.028523720607227698
0.310000000000000109,-0.179739791795573284
0.311000000000000110,-0.326259435002234088
0.312000000000000111,-0.468188282649366350
0.313000000000000111,-0.605632754859132483
0.314000000000000112,-0.738699782664472782
0.315000000000000113,-0.867496538838942732
0.316000000000000114,-0.992130177612363440
0.317000000000000115,-1.112707584372209624
0.318000000000000116,-1.229335136291640262
0.319000000000000117,-1.342118474673476669
0.320000000000000118,-1.451162289656431570
0.321000000000000119,-1.556570117795416985
0.322000000000000119,-1.658444152901975555
0.323000000000000120,-1.756885070413844563
0.324000000000000121,-1.851991865454903019
0.325000000000000122,-1.943861704647170452
0.326000000000000123,-2.032589791645929900
0.327000000000000124,-2.118269246286733853
0.328000000000000125,-2.200990997158998042
0.329000000000000126,-2.280843687354459526
0.330000000000000127,-2.357913593080225745
0.331000000000000127,-2.432284554774538421
0.332000000000000128,-2.504037920318769928
0.333000000000000129,-2.573252499901036661
0.334000000000000130,-2.640004532054610831
0.335000000000000131,-2.704367660368261816
0.336000000000000132,-2.766412920344213155
0.337000000000000133,-2.826208735863713351
0.338000000000000134,-2.883820924708595967
0.339000000000000135,-2.939312712579720710
0.340000000000000135,-2.992744755050142036
0.341000000000000136,-3.044175166890494832
0.342000000000000137,-3.093659558207616733
0.343000000000000138,-3.141251076843227352
0.344000000000000139,-3.187000456488357614
0.345000000000000140,-3.230956069979839640
0.346000000000000141,-3.273163987258123964
0.347000000000000142,-3.313668037480121509
0.348000000000000143,-3.352509874796910871
0.349000000000000143,-3.389729047323233768
0.350000000000000144,-3.425363068844119230
0.351000000000000145,-3.459447492822936621
0.352000000000000146,-3.492015988295092743
0.353000000000000147,-3.523100417251661121
0.354000000000000148,-3.552730913137936763
0.355000000000000149,-3.580935960112556327
0.356000000000000150,-3.607742472733707295
0.357000000000000151,-3.633175875759642626
0.358000000000000151,-3.657260183771402495
0.359000000000000152,-3.680018080345844655
0.360000000000000153,-3.701470996527356228
0.361000000000000154,-3.721639188365879924
0.362000000000000155,-3.740541813308389862
0.363000000000000156,-3.758197005249329870
0.364000000000000157,-3.774621948063615839
0.365000000000000158,-3.789832947463462887
0.366000000000000159,-3.803845501036749788
0.367000000000000159,-3.816674366341125335
0.368000000000000160,-3.828333626943314805
0.369000000000000161,-3.838836756307951958
0.370000000000000162,-3.848196679454264135
0.371000000000000163,-3.856425832312365465
0.372000000000000164,-3.863536218723473858
0.373000000000000165,-3.869539465040358728
0.374000000000000166,-3.874446872295591593
0.375000000000000167,-3.878269465915515468
0.376000000000000167,-3.881018042968022108
0.377000000000000168,-3.882703216941119528
0.378000000000000169,-3.883335460057947053
0.379000000000000170,-3.882925143141799484
0.380000000000000171,-3.881482573051956653
0.381000000000000172,-3.879018027717799466
0.382000000000000173,-3.875541788804826915
0.383000000000000174,-3.871064172051747132
0.384000000000000175,-3.865595555322796972
0.385000000000000175,-3.859146404423937415
0.386000000000000176,-3.851727296735730111
0.387000000000000177,-3.843348942718994632
0.388000000000000178,-3.834022205352790369
0.389000000000000179,-3.823758117566613546
0.390000000000000180,-3.812567897731281796
0.391000000000000181,-3.800462963274745753
0.392000000000000182,-3.787454942490652066
0.393000000000000183,-3.773555684608759897
0.394000000000000183,-3.758777268197208254
0.395000000000000184,-3.743132007967286512
0.396000000000000185,-3.726632460051700235
0.397000000000000186,-3.709291425827449196
0.398000000000000187,-3.691121954354348311
0.399000000000000188,-3.672137343499841222
0.400000000000000189,-3.652351139820254389
0.401000000000000190,-3.631777137267910405
0.402000000000000191,-3.610429374792710977
0.403000000000000191,-3.588322132905652495
0.404000000000000192,-3.565469929270721483
0.405000000000000193,-3.541887513390212572
0.406000000000000194,-3.517589860447211780
0.407000000000000195,-3.492592164367497531
0.408000000000000196,-3.466909830161454042
0.409000000000000197,-3.440558465605081384
0.410000000000000198,-3.413553872317446114
0.411000000000000199,-3.385912036290054772
0.412000000000000199,-3.357649117922027138
0.413000000000000200,-3.328781441612950864
0.414000000000000201,-3.299325484963573807
0.415000000000000202,-3.269297867632467103
0.416000000000000203,-3.238715339895086309
0.417000000000000204,-3.207594770949603546
0.418000000000000205,-3.175953137012087257
0.419000000000000206,-3.143807509241738352
0.420000000000000207,-3.111175041534874897
0.421000000000000207,-3.078072958224768563
0.422000000000000208,-3.044518541722236904
0.423000000000000209,-3.010529120130493563
0.424000000000000210,-2.976122054865619315
0.425000000000000211,-2.941314728312454108
0.426000000000000212,-2.906124531544011624
0.427000000000000213,-2.870568852130646498
0.428000000000000214,-2.834665062063825403
0.429000000000000214,-2.798430505817496527
0.430000000000000215,-2.761882488568636607
0.431000000000000216,-2.725038264597054116
0.432000000000000217,-2.687915025882883224
0.433000000000000218,-2.650529890918970288
0.434000000000000219,-2.612899893753839020
0.435000000000000220,-2.575041973279650342
0.436000000000000221,-2.536972962778234031
0.437000000000000222,-2.498709579737023567
0.438000000000000222,-2.460268415945606080
0.439000000000000223,-2.421665927882333591
0.440000000000000224,-2.382918427399420835
0.441000000000000225,-2.344042072713817593
0.442000000000000226,-2.305052859710281954
0.443000000000000227,-2.265966613561879228
0.444000000000000228,-2.226798980672453965
0.445000000000000229,-2.187565420944563854
0.446000000000000230,-2.148281200375588895
0.447000000000000230,-2.108961383984014226
0.448000000000000231,-2.069620829066987078
0.449000000000000232,-2.030274178789619466
0.450000000000000233,-1.990935856105904289
0.451000000000000234,-1.951620058010291370
0.452000000000000235,-1.912340750118617150
0.453000000000000236,-1.873111661576269737
0.454000000000000237,-1.833946280291208764
0.455000000000000238,-1.794857848488720764
0.456000000000000238,-1.755859358584555441
0.457000000000000239,-1.716963549372489295
0.458000000000000240,-1.678182902522146636
0.459000000000000241,-1.639529639382311554
0.460000000000000242,-1.601015718084960682
0.461000000000000243,-1.562652830944567528
0.462000000000000244,-1.524452402147338237
0.463000000000000245,-1.486425585724373333
0.464000000000000246,-1.448583263802970311
0.465000000000000246,-1.410936045129699723
0.466000000000000247,-1.373494263858923814
0.467000000000000248,-1.336267978600188089
0.468000000000000249,-1.299266971717843777
0.469000000000000250,-1.262500748876031809
0.470000000000000251,-1.225978538822198871
0.471000000000000252,-1.189709293402075874
0.472000000000000253,-1.153701687799188802
0.473000000000000254,-1.117964120991689292
0.474000000000000254,-1.082504716419472990
0.475000000000000255,-1.047331322854377689
0.476000000000000256,-1.012451515466339824
0.477000000000000257,-0.977872597078391026
0.478000000000000258,-0.943601599603297481
0.479000000000000259,-0.909645285654846925
0.480000000000000260,-0.876010150326666404
0.481000000000000261,-0.842702423131573064
0.482000000000000262,-0.809728070094567487
0.483000000000000262,-0.777092795992560426
0.484000000000000263,-0.744802046734034051
0.485000000000000264,-0.712861011871957162
0.486000000000000265,-0.681274627243320552
0.487000000000000266,-0.650047577728756876
0.488000000000000267,-0.619184300125832587
0.489000000000000268,-0.588688986129726977
0.490000000000000269,-0.558565585415024990
0.491000000000000270,-0.528817808812635626
0.492000000000000270,-0.499449131575757044
0.493000000000000271,-0.470462796729148369
0.494000000000000272,-0.441861818495930703
0.495000000000000273,-0.413648985796311153
0.496000000000000274,-0.385826865812857023
0.497000000000000275,-0.358397807616875785
0.498000000000000276,-0.331363945850807640
0.499000000000000277,-0.304727204461521517
0.500000000000000222,-0.278489300479580426
0.501000000000000334,-0.252651747839734875
0.502000000000000224,-0.227215861237974076
0.503000000000000336,-0.202182760020574420
0.504000000000000226,-0.177553372100883289
0.505000000000000338,-0.153328437899435233
0.506000000000000227,-0.129508514303496913
0.507000000000000339,-0.106093978641855463
0.508000000000000229,-0.083085032671215073
0.509000000000000341,-0.060481706570318150
0.510000000000000231,-0.038283862938424715
0.511000000000000343,-0.016491200794480586
0.512000000000000233,0.004896740426121982
0.513000000000000345,0.025880576880550465
0.514000000000000234,0.046461076336176951
0.515000000000000346,0.066639154200016967
0.516000000000000236,0.086415869562544129
0.517000000000000348,0.105792421258750408
0.518000000000000238,0.124770143948894408
0.519000000000000350,0.143350504221503888
0.520000000000000240,0.161535096720874849
0.521000000000000352,0.179325640301360695
0.522000000000000242,0.196723974210545632
0.523000000000000353,0.213732054303333696
0.524000000000000243,0.230351949288835012
0.525000000000000355,0.246585837011890574
0.526000000000000245,0.262436000770892297
0.527000000000000357,0.277904825673582712
0.528000000000000247,0.292994795032245181
0.529000000000000359,0.307708486799823544
0.530000000000000249,0.322048570048188265
0.531000000000000361,0.336017801489882417
0.532000000000000250,0.349619022044432348
0.533000000000000362,0.362855153450363399
0.534000000000000252,0.375729194923860366
0.535000000000000364,0.388244219865016948
0.536000000000000254,0.400403372612488540
0.537000000000000366,0.412209865247372353
0.538000000000000256,0.423666974446907652
0.539000000000000368,0.434778038388742849
0.540000000000000258,0.445546453706204659
0.541000000000000369,0.455975672495191275
0.542000000000000259,0.466069199372992571
0.543000000000000371,0.475830588589524095
0.544000000000000261,0.485263441191206346
0.545000000000000373,0.494371402237798019
0.546000000000000263,0.503158158072352313
0.547000000000000375,0.511627433644503027
0.548000000000000265,0.519782989887098257
0.549000000000000377,0.527628621146338572
0.550000000000000266,0.535168152665351782
0.551000000000000378,0.542405438121210115
0.552000000000000268,0.549344357215309054
0.553000000000000380,0.555988813316990127
0.554000000000000270,0.562342731160240472
0.555000000000000382,0.568410054593324832
0.556000000000000272,0.574194744381050226
0.557000000000000384,0.579700776059504208
0.558000000000000274,0.584932137842866018
0.559000000000000385,0.589892828582083473
0.560000000000000275,0.594586855774970280
0.561000000000000387,0.599018233627414021
0.562000000000000277,0.603190981165277362
0.563000000000000389,0.607109120396551960
0.564000000000000279,0.610776674523336394
0.565000000000000391,0.614197666203161186
0.566000000000000281,0.617376115859188168
0.567000000000000393,0.620316040038751626
0.568000000000000282,0.623021449819730289
0.569000000000000394,0.625496349264219154
0.570000000000000284,0.627744733918929709
0.571000000000000396,0.629770589361752120
0.572000000000000286,0.631577889793885072
0.573000000000000398,0.633170596676976061
0.574000000000000288,0.634552657414623300
0.575000000000000400,0.635728004077620534
0.576000000000000290,0.636700552172378531
0.577000000000000401,0.637474199451802392
0.578000000000000291,0.638052824768055138
0.579000000000000403,0.638440286966524995
0.580000000000000293,0.638640423820349801
0.581000000000000405,0.638657051004830278
0.582000000000000295,0.638493961111095687
0.583000000000000407,0.638154922698318527
0.584000000000000297,0.637643679383851136
0.585000000000000409,0.636963948970559857
0.586000000000000298,0.636119422610750163
0.587000000000000410,0.635113764005932224
0.588000000000000300,0.633950608641827840
0.589000000000000412,0.632633563057884429
0.590000000000000302,0.631166204150673038
0.591000000000000414,0.629552078510431157
0.592000000000000304,0.627794701790170828
0.593000000000000416,0.625897558106600749
0.594000000000000306,0.623864099472237865
0.595000000000000417,0.621697745258035672
0.596000000000000307,0.619401881685892497
0.597000000000000419,0.616979861350332559
0.598000000000000309,0.614435002768749738
0.599000000000000421,0.611770589959580002
0.600000000000000311,0.608989872047705605
0.601000000000000423,0.606096062896499754
0.602000000000000313,0.603092340765866153
0.603000000000000425,0.599981847995653017
0.604000000000000314,0.596767690713796539
0.605000000000000426,0.593452938568617028
0.606000000000000316,0.590040624484635345
0.607000000000000428,0.586533744441310789
0.608000000000000318,0.582935257274115548
0.609000000000000430,0.579248084497342441
0.610000000000000320,0.575475110148089719
0.611000000000000432,0.571619180650811187
0.612000000000000322,0.567683104701919294
0.613000000000000433,0.563669653173821006
0.614000000000000323,0.559581559037888310
0.615000000000000435,0.555421517305777490
0.616000000000000325,0.551192184988604783
0.617000000000000437,0.546896181073404097
0.618000000000000327,0.542536086516380522
0.619000000000000439,0.538114444252435487
0.620000000000000329,0.533633759220461301
0.621000000000000441,0.529096498403896276
0.622000000000000330,0.524505090886083103
0.623000000000000442,0.519861927919904487
0.624000000000000332,0.515169363011286463
0.625000000000000444,0.510429712016025383
0.626000000000000334,0.505645253249572768
0.627000000000000446,0.500818227609245770
0.628000000000000336,0.495950838708492825
0.629000000000000448,0.491045253022730610
0.630000000000000338,0.486103600046376649
0.631000000000000449,0.481127972460603792
0.632000000000000339,0.476120426311483491
0.633000000000000451,0.471082981198043427
0.634000000000000341,0.466017620469916072
0.635000000000000453,0.460926291434118673
0.636000000000000343,0.455810905570696090
0.637000000000000455,0.450673338756726771
0.638000000000000345,0.445515431498459846
0.639000000000000457,0.440338989171132400
0.640000000000000346,0.435145782266192160
0.641000000000000458,0.429937546645531909
0.642000000000000348,0.424715983802465835
0.643000000000000460,0.419482761129057746
0.644000000000000350,0.414239512189562675
0.645000000000000462,0.408987836999591181
0.646000000000000352,0.403729302310785187
0.647000000000000464,0.398465441900625328
0.648000000000000353,0.393197756867160853
0.649000000000000465,0.387927715928314265
0.650000000000000355,0.382656755725556796
0.651000000000000467,0.377386281131625423
0.652000000000000357,0.372117665562069933
0.653000000000000469,0.366852251290350317
0.654000000000000359,0.361591349766254289
0.655000000000000471,0.356336241937388609
0.656000000000000361,0.351088178573516152
0.657000000000000473,0.345848380593499594
0.658000000000000362,0.340618039394652683
0.659000000000000474,0.335398317184267158
0.660000000000000364,0.330190347313116139
0.661000000000000476,0.324995234610715944
0.662000000000000366,0.319814055722187629
0.663000000000000478,0.314647859446466671
0.664000000000000368,0.309497667075748939
0.665000000000000480,0.304364472735912828
0.666000000000000369,0.299249243727824354
0.667000000000000481,0.294152920869280687
