# ZnO10m10BOND_METSCA-JS
# h[nm],U(h)[kJ/mol]
0.200000000000000011,84.489599549828497516
0.201000000000000012,83.846813706921153653
0.202000000000000013,82.700425310646906496
0.203000000000000014,81.325032604842732553
0.204000000000000015,79.876243886965156094
0.205000000000000016,78.434379984632414562
0.206000000000000016,77.034099148836986615
0.207000000000000017,75.684032818423219169
0.208000000000000018,74.379426218834851170
0.209000000000000019,73.109958173974519013
0.210000000000000020,71.864304121268077097
0.211000000000000021,70.632554533755651960
0.212000000000000022,69.407268916375073786
0.213000000000000023,68.183703503686416525
0.214000000000000024,66.959576030088314269
0.215000000000000024,65.734606192484960729
0.216000000000000025,64.509982585857216009
0.217000000000000026,63.287846085388864026
0.218000000000000027,62.070838457741807304
0.219000000000000028,60.861737871314701920
0.220000000000000029,59.663185833018722803
0.221000000000000030,58.477499882489098582
0.222000000000000031,57.306560915727700944
0.223000000000000032,56.151761693717347157
0.224000000000000032,55.014002779343556426
0.225000000000000033,53.893723038310234585
0.226000000000000034,52.790953385672615639
0.227000000000000035,51.705384289246481444
0.228000000000000036,50.636439414875418663
0.229000000000000037,49.583349569226470521
0.230000000000000038,48.545222680782785574
0.231000000000000039,47.521106920302806031
0.232000000000000040,46.510045188537183947
0.233000000000000040,45.511120100087431695
0.234000000000000041,44.523489287373386958
0.235000000000000042,43.546411362711879178
0.236000000000000043,42.579263236456441177
0.237000000000000044,41.621549721687614465
0.238000000000000045,40.672906486035188323
0.239000000000000046,39.733097461334679679
0.240000000000000047,38.802007811573020035
0.241000000000000048,37.879633505639333180
0.242000000000000048,36.966068457602204944
0.243000000000000049,36.061490094811063045
0.244000000000000050,35.166144101961734236
0.245000000000000051,34.280328974220438454
0.246000000000000052,33.404380899694743334
0.247000000000000053,32.538659384633753291
0.248000000000000054,31.683533936219809846
0.249000000000000055,30.839372029202859693
0.250000000000000056,30.006528504703680937
0.251000000000000056,29.185336482472688857
0.252000000000000057,28.376099811508936455
0.253000000000000058,27.579087037685280137
0.254000000000000059,26.794526830144413054
0.255000000000000060,26.022604779858237833
0.256000000000000061,25.263461462938831659
0.257000000000000062,24.517191647096886697
0.258000000000000063,23.783844511122389065
0.259000000000000064,23.063424743513387227
0.260000000000000064,22.355894386563761600
0.261000000000000065,21.661175295573553257
0.262000000000000066,20.979152088671476406
0.263000000000000067,20.309675470432189570
0.264000000000000068,19.652565821493077181
0.265000000000000069,19.007616956270684483
0.266000000000000070,18.374599961259697523
0.267000000000000071,17.753267036943046975
0.268000000000000071,17.143355276792249242
0.269000000000000072,16.544590326981243322
0.270000000000000073,15.956689880115060731
0.271000000000000074,15.379366965367490039
0.272000000000000075,14.812333005843109746
0.273000000000000076,14.255300621677287509
0.274000000000000077,13.707986164331714463
0.275000000000000078,13.170111973726628563
0.276000000000000079,12.641408355282305109
0.277000000000000079,12.121615278642886793
0.278000000000000080,11.610483803860759622
0.279000000000000081,11.107777244165383479
0.280000000000000082,10.613272077176166164
0.281000000000000083,10.126758618590603334
0.282000000000000084,9.648041474039365184
0.283000000000000085,9.176939785999005395
0.284000000000000086,8.713287293441045023
0.285000000000000087,8.256932222324813608
0.286000000000000087,7.807737025154099619
0.287000000000000088,7.365577987662487836
0.288000000000000089,6.930344720308843520
0.289000000000000090,6.501939551691952701
0.290000000000000091,6.080276840268496130
0.291000000000000092,5.665282219910676709
0.292000000000000093,5.256891793901608878
0.293000000000000094,4.855051290960721744
0.294000000000000095,4.459715195842976598
0.295000000000000095,4.070845865982420264
0.296000000000000096,3.688412644572670818
0.297000000000000097,3.312390979405821945
0.298000000000000098,2.942761555742184676
0.299000000000000099,2.579509450464341214
0.300000000000000100,2.222623313790530908
0.301000000000000101,1.872094583888667341
0.302000000000000102,1.527916738851425205
0.303000000000000103,1.190084589664430093
0.304000000000000103,0.858593617030858569
0.305000000000000104,0.533439354203637306
0.306000000000000105,0.214616817324358250
0.307000000000000106,-0.097880015825391270
0.308000000000000107,-0.404058678290587114
0.309000000000000108,-0.703928637736606633
0.310000000000000109,-0.997501672105464365
0.311000000000000110,-1.284792198041565525
0.312000000000000111,-1.565817553318932909
0.313000000000000111,-1.840598234777599540
0.314000000000000112,-2.109158093510451693
0.315000000000000113,-2.371524489233831190
0.316000000000000114,-2.627728405929681266
0.317000000000000115,-2.877804530966409313
0.318000000000000116,-3.121791299993769808
0.319000000000000117,-3.359730909965727985
0.320000000000000118,-3.591669302678233144
0.321000000000000119,-3.817656121218683918
0.322000000000000119,-4.037744641712438742
0.323000000000000120,-4.251991682722374932
0.324000000000000121,-4.460457494612738216
0.325000000000000122,-4.663205631129102358
0.326000000000000123,-4.860302805375960489
0.327000000000000124,-5.051818732293118508
0.328000000000000125,-5.237825959643876317
0.329000000000000126,-5.418399689433087474
0.330000000000000127,-5.593617591573908143
0.331000000000000127,-5.763559611518607184
0.332000000000000128,-5.928307773463528996
0.333000000000000129,-6.087945980631376486
0.334000000000000130,-6.242559814026749088
0.335000000000000131,-6.392236330954700563
0.336000000000000132,-6.537063864486015063
0.337000000000000133,-6.677131824950132355
0.338000000000000134,-6.812530504435590828
0.339000000000000135,-6.943350885179308207
0.340000000000000135,-7.069684452632304605
0.341000000000000136,-7.191623013897613603
0.342000000000000137,-7.309258522149674420
0.343000000000000138,-7.422682907561066301
0.344000000000000139,-7.531987915184305216
0.345000000000000140,-7.637264950161673838
0.346000000000000141,-7.738604930566422624
0.347000000000000142,-7.836098148113106454
0.348000000000000143,-7.929834136913967768
0.349000000000000143,-8.019901550401437262
0.350000000000000144,-8.106388046484667598
0.351000000000000145,-8.189380180959675570
0.352000000000000146,-8.268963309148906760
0.353000000000000147,-8.345221495705640535
0.354000000000000148,-8.418237432482717608
0.355000000000000149,-8.488092364332320727
0.356000000000000150,-8.554866022674477932
0.357000000000000151,-8.618636566646461716
0.358000000000000151,-8.679480531622383310
0.359000000000000152,-8.737472784873135723
0.360000000000000153,-8.792686488119988653
0.361000000000000154,-8.845193066721012798
0.362000000000000155,-8.895062185218275630
0.363000000000000156,-8.942361728964325351
0.364000000000000157,-8.987157791539431173
0.365000000000000158,-9.029514667666354910
0.366000000000000159,-9.069494851325638152
0.367000000000000159,-9.107159038773486870
0.368000000000000160,-9.142566136163976509
0.369000000000000161,-9.175773271478874449
0.370000000000000162,-9.206835810471092785
0.371000000000000163,-9.235807376331633733
0.372000000000000164,-9.262739872794686136
0.373000000000000165,-9.287683510401382847
0.374000000000000166,-9.310686835649352844
0.375000000000000167,-9.331796762762198938
0.376000000000000167,-9.351058607821224555
0.377000000000000168,-9.368516125009932694
0.378000000000000169,-9.384211544730517218
0.379000000000000170,-9.398185613360865887
0.380000000000000171,-9.410477634429945226
0.381000000000000172,-9.421125510998978214
0.382000000000000173,-9.430165789045585001
0.383000000000000174,-9.437633701658089791
0.384000000000000175,-9.443563213856711158
0.385000000000000175,-9.447987067868519162
0.386000000000000176,-9.450936828692793057
0.387000000000000177,-9.452442929802936433
0.388000000000000178,-9.452534718840976069
0.389000000000000179,-9.451240503169902496
0.390000000000000180,-9.448587595158342012
0.391000000000000181,-9.444602357081391730
0.392000000000000182,-9.439310245529735965
0.393000000000000183,-9.432735855228280286
0.394000000000000183,-9.424902962173426602
0.395000000000000184,-9.415834566006408224
0.396000000000000185,-9.405552931547696005
0.397000000000000186,-9.394079629424979316
0.398000000000000187,-9.381435575734494492
0.399000000000000188,-9.367641070682173776
0.400000000000000189,-9.352715836157678098
0.401000000000000190,-9.336679052200784312
0.402000000000000191,-9.319549392325313875
0.403000000000000191,-9.301345057671557726
0.404000000000000192,-9.282083809963568299
0.405000000000000193,-9.261783003252499924
0.406000000000000194,-9.240459614432216640
0.407000000000000195,-9.218130272517681689
0.408000000000000196,-9.194811286680836915
0.409000000000000197,-9.170518673042673541
0.410000000000000198,-9.145268180223864007
0.411000000000000199,-9.119075313659516624
0.412000000000000199,-9.091955358687053845
0.413000000000000200,-9.063923402418851083
0.414000000000000201,-9.034994354414170203
0.415000000000000202,-9.005182966167069480
0.416000000000000203,-8.974503849429540381
0.417000000000000204,-8.942971493390849957
0.418000000000000205,-8.910600280736055367
0.419000000000000206,-8.877404502608211345
0.420000000000000207,-8.843398372500210769
0.421000000000000207,-8.808596039103660402
0.422000000000000208,-8.773011598142925749
0.423000000000000209,-8.736659103223903600
0.424000000000000210,-8.699552575727523163
0.425000000000000211,-8.661706013778786684
0.426000000000000212,-8.623133400322766207
0.427000000000000213,-8.583848710339191612
0.428000000000000214,-8.543865917227849494
0.429000000000000214,-8.503198998396891639
0.430000000000000215,-8.461861940086503608
0.431000000000000216,-8.419868741460284411
0.432000000000000217,-8.377233417996531983
0.433000000000000218,-8.333970004211588289
0.434000000000000219,-8.290092555747062164
0.435000000000000220,-8.245615150852568576
0.436000000000000221,-8.200551891295022600
0.437000000000000222,-8.154916902725327432
0.438000000000000222,-8.108724334532702471
0.439000000000000223,-8.061988359216398337
0.440000000000000224,-8.014723171303963056
0.441000000000000225,-7.966942985844555736
0.442000000000000226,-7.918662036505423885
0.443000000000000227,-7.869894573298521046
0.444000000000000228,-7.820654859964079719
0.445000000000000229,-7.770957171036845246
0.446000000000000230,-7.720815788620052800
0.447000000000000230,-7.670244998891639909
0.448000000000000231,-7.619259088366177934
0.449000000000000232,-7.567872339935303394
0.450000000000000233,-7.516099028708913110
0.451000000000000234,-7.463953417678069968
0.452000000000000235,-7.411449753220422210
0.453000000000000236,-7.358602260467515421
0.454000000000000237,-7.305425138553205855
0.455000000000000238,-7.251932555761060328
0.456000000000000238,-7.198138644588273571
0.457000000000000239,-7.144057496742568958
0.458000000000000240,-7.089703158088066282
0.459000000000000241,-7.035089623555007776
0.460000000000000242,-6.980230832027920940
0.461000000000000243,-6.925140661225642980
0.462000000000000244,-6.869832922586333268
0.463000000000000245,-6.814321356169419808
0.464000000000000246,-6.758619625586334223
0.465000000000000246,-6.702741312970674770
0.466000000000000247,-6.646699913998109999
0.467000000000000248,-6.590508832965572772
0.468000000000000249,-6.534181377938780955
0.469000000000000250,-6.477730755976347510
0.470000000000000251,-6.421170068438364353
0.471000000000000252,-6.364512306386524543
0.472000000000000253,-6.307770346082685720
0.473000000000000254,-6.250956944591732345
0.474000000000000254,-6.194084735494580940
0.475000000000000255,-6.137166224716295027
0.476000000000000256,-6.080213786474075732
0.477000000000000257,-6.023239659349238551
0.478000000000000258,-5.966255942486915487
0.479000000000000259,-5.909274591926869213
0.480000000000000260,-5.852307417068294271
0.481000000000000261,-5.795366077271047800
0.482000000000000262,-5.738462078595587101
0.483000000000000262,-5.681606770683358398
0.484000000000000263,-5.624811343778977069
0.485000000000000264,-5.568086825895504077
0.486000000000000265,-5.511444080123505174
0.487000000000000266,-5.454893802084401777
0.488000000000000267,-5.398446517528450173
0.489000000000000268,-5.342112580077246875
0.490000000000000269,-5.285902169110472393
0.491000000000000270,-5.229825287796464828
0.492000000000000270,-5.173891761265725364
0.493000000000000271,-5.118111234926567832
0.494000000000000272,-5.062493172921707973
0.495000000000000273,-5.007046856724388206
0.496000000000000274,-4.951781383872724263
0.497000000000000275,-4.896705666840410309
0.498000000000000276,-4.841828432042133201
0.499000000000000277,-4.787158218971686807
0.500000000000000222,-4.732703379470653893
0.501000000000000334,-4.678472077125593209
0.502000000000000224,-4.624472286791360354
0.503000000000000336,-4.570711794238077275
0.504000000000000226,-4.517198195919509551
0.505000000000000338,-4.463938898859928450
0.506000000000000227,-4.410941120657225767
0.507000000000000339,-4.358211889599173716
0.508000000000000229,-4.305758044890407810
0.509000000000000341,-4.253586236987003666
0.510000000000000231,-4.201702928036185725
0.511000000000000343,-4.150114392417789233
0.512000000000000233,-4.098826717385049889
0.513000000000000345,-4.047845803801310538
0.514000000000000234,-3.997177366970175338
0.515000000000000346,-3.946826937555598214
0.516000000000000236,-3.896799862589424013
0.517000000000000348,-3.847101306562994871
0.518000000000000238,-3.797736252600189655
0.519000000000000350,-3.748709503708563595
0.520000000000000240,-3.700025684105939572
0.521000000000000352,-3.651689240619300669
0.522000000000000242,-3.603704444153156938
0.523000000000000353,-3.556075391224365667
0.524000000000000243,-3.508806005560658914
0.525000000000000355,-3.461900039759883363
0.526000000000000245,-3.415361077007259549
0.527000000000000357,-3.369192532847681942
0.528000000000000247,-3.323397657010536133
0.529000000000000359,-3.277979535284059498
0.530000000000000249,-3.232941091436789094
0.531000000000000361,-3.188285089183255483
0.532000000000000250,-3.144014134191523091
0.533000000000000362,-3.100130676129803309
0.534000000000000252,-3.056637010749853278
0.535000000000000364,-3.013535282004489613
0.536000000000000254,-2.970827484197056112
0.537000000000000366,-2.928515464160118764
0.538000000000000256,-2.886600923461544621
0.539000000000000368,-2.845085420635203644
0.540000000000000258,-2.803970373434560681
0.541000000000000369,-2.763257061106539236
0.542000000000000259,-2.722946626684000115
0.543000000000000371,-2.683040079294382263
0.544000000000000261,-2.643538296482796479
0.545000000000000373,-2.604442026547459044
0.546000000000000263,-2.565751890885697772
0.547000000000000375,-2.527468386348473040
0.548000000000000265,-2.489591887601997122
0.549000000000000377,-2.452122649494259399
0.550000000000000266,-2.415060809425210842
0.551000000000000378,-2.378406389718640046
0.552000000000000268,-2.342159299994395205
0.553000000000000380,-2.306319339539271596
0.554000000000000270,-2.270886199675242523
0.555000000000000382,-2.235859466123402139
0.556000000000000272,-2.201238621362529901
0.557000000000000384,-2.167023046980623313
0.558000000000000274,-2.133212026018475704
0.559000000000000385,-2.099804745303733622
0.560000000000000275,-2.066800297774560757
0.561000000000000387,-2.034197684791544170
0.562000000000000277,-2.001995818436901331
0.563000000000000389,-1.970193523799885993
0.564000000000000279,-1.938789541247443182
0.565000000000000391,-1.907782528679099032
0.566000000000000281,-1.877171063765273207
0.567000000000000393,-1.846953646168030927
0.568000000000000282,-1.817128699743624676
0.569000000000000394,-1.787694574725810615
0.570000000000000284,-1.758649549889464536
0.571000000000000396,-1.729991834693549224
0.572000000000000286,-1.701719571403000897
0.573000000000000398,-1.673830837188660325
0.574000000000000288,-1.646323646204911784
0.575000000000000400,-1.619195951644283316
0.576000000000000290,-1.592445647768607531
0.577000000000000401,-1.566070571916176712
0.578000000000000291,-1.540068506484519428
0.579000000000000403,-1.514437180888290602
0.580000000000000293,-1.489174273492006817
0.581000000000000405,-1.464277413517093507
0.582000000000000295,-1.439744182923148541
0.583000000000000407,-1.415572118262875545
0.584000000000000297,-1.391758712510616558
0.585000000000000409,-1.368301416864108777
0.586000000000000298,-1.345197642519342596
0.587000000000000410,-1.322444762418231390
0.588000000000000300,-1.300040112969039985
0.589000000000000412,-1.277980995739287362
0.590000000000000302,-1.256264679121148031
0.591000000000000414,-1.234888399969157557
0.592000000000000304,-1.213849365210176945
0.593000000000000416,-1.193144753425535498
0.594000000000000306,-1.172771716405391018
0.595000000000000417,-1.152727380675171887
0.596000000000000307,-1.133008848994208728
0.597000000000000419,-1.113613201826514132
0.598000000000000309,-1.094537498783796803
0.599000000000000421,-1.075778780040669513
0.600000000000000311,-1.057334067722271786
0.601000000000000423,-1.039200367264213165
0.602000000000000313,-1.021374668745123060
0.603000000000000425,-1.003853948191708145
0.604000000000000314,-0.986635168856700440
0.605000000000000426,-0.969715282469554518
0.606000000000000316,-0.953091230460301531
0.607000000000000428,-0.936759945156518725
0.608000000000000318,-0.920718350953758202
0.609000000000000430,-0.904963365459457436
0.610000000000000320,-0.889491900610688502
0.611000000000000432,-0.874300863765798630
0.612000000000000322,-0.859387158770280379
0.613000000000000433,-0.844747686997007086
0.614000000000000323,-0.830379348361111047
0.615000000000000435,-0.816279042309719371
0.616000000000000325,-0.802443668786811726
0.617000000000000437,-0.788870129173409484
0.618000000000000327,-0.775555327203434230
0.619000000000000439,-0.762496169855381933
0.620000000000000329,-0.749689568220202718
0.621000000000000441,-0.737132438345581731
0.622000000000000330,-0.724821702056920869
0.623000000000000442,-0.712754287755309024
0.624000000000000332,-0.700927131192765951
0.625000000000000444,-0.689337176225050086
0.626000000000000334,-0.677981375542321074
0.627000000000000446,-0.666856691377950450
0.628000000000000336,-0.655960096195793207
0.629000000000000448,-0.645288573356202599
0.630000000000000338,-0.634839117761122673
0.631000000000000449,-0.624608736478520554
0.632000000000000339,-0.614594449346502869
0.633000000000000451,-0.604793289557408187
0.634000000000000341,-0.595202304222191225
0.635000000000000453,-0.585818554915404355
0.636000000000000343,-0.576639118201079381
0.637000000000000455,-0.567661086139841120
0.638000000000000345,-0.558881566777562400
0.639000000000000457,-0.550297684615822180
0.640000000000000346,-0.541906581064575454
0.641000000000000458,-0.533705414877228335
0.642000000000000348,-0.525691362568539100
0.643000000000000460,-0.517861618815556590
0.644000000000000350,-0.510213396841986855
0.645000000000000462,-0.502743928786229644
0.646000000000000352,-0.495450466053442895
0.647000000000000464,-0.488330279651872867
0.648000000000000353,-0.481380660513858694
0.649000000000000465,-0.474598919801671459
0.650000000000000355,-0.467982389198630222
0.651000000000000467,-0.461528421185666449
0.652000000000000357,-0.455234389303739106
0.653000000000000469,-0.449097688402298800
0.654000000000000359,-0.443115734874178102
0.655000000000000471,-0.437285966877106635
0.656000000000000361,-0.431605844542233608
0.657000000000000473,-0.426072850169844142
0.658000000000000362,-0.420684488412635171
0.659000000000000474,-0.415438286446757399
0.660000000000000364,-0.410331794130964600
0.661000000000000476,-0.405362584154072447
0.662000000000000366,-0.400528252171057475
0.663000000000000478,-0.395826416928033609
