# ZnO10m10BOND_DGL-JS
# h[nm],U(h)[kJ/mol]
0.200000000000000011,135.211171575791951227
0.201000000000000012,133.521577598775195383
0.202000000000000013,131.643780586252375997
0.203000000000000014,129.694943113482167973
0.204000000000000015,127.740273467372475125
0.205000000000000016,125.811939384460927727
0.206000000000000016,123.922036002224743356
0.207000000000000017,122.071281168184810895
0.208000000000000018,120.254678503618805507
0.209000000000000019,118.465060827561273982
0.210000000000000020,116.695179470511064324
0.211000000000000021,114.938819800829293172
0.212000000000000022,113.191285332805733788
0.213000000000000023,111.449490773334815685
0.214000000000000024,109.711829566065034669
0.215000000000000024,107.977927192783141663
0.216000000000000025,106.248352542638144769
0.217000000000000026,104.524332127122846714
0.218000000000000027,102.807492810173954467
0.219000000000000028,101.099645772783915731
0.220000000000000029,99.402615934082035665
0.221000000000000030,97.718115729160928140
0.222000000000000031,96.047659049340239790
0.223000000000000032,94.392509584119963506
0.224000000000000032,92.753657255959325312
0.225000000000000033,91.131816541844983703
0.226000000000000034,89.527440968593595017
0.227000000000000035,87.940748770361381048
0.228000000000000036,86.371755483572357548
0.229000000000000037,84.820310045561441825
0.230000000000000038,83.286131708313462241
0.231000000000000039,81.768845749015298452
0.232000000000000040,80.268016540937736636
0.233000000000000040,78.783177037711965340
0.234000000000000041,77.313854124160798165
0.235000000000000042,75.859589604251581818
0.236000000000000043,74.419956840371312978
0.237000000000000044,72.994573237813199285
0.238000000000000045,71.583108894008873335
0.239000000000000046,70.185291813087786750
0.240000000000000047,68.800910131453292706
0.241000000000000048,67.429811816960452120
0.242000000000000048,66.071902299668735736
0.243000000000000049,64.727140471734657012
0.244000000000000050,63.395533462579884088
0.245000000000000051,62.077130556901430225
0.246000000000000052,60.772016580525722418
0.247000000000000053,59.480305034979537027
0.248000000000000054,58.202131217835145094
0.249000000000000055,56.937645523761069910
0.250000000000000056,55.687007081744830828
0.251000000000000056,54.450377847792481134
0.252000000000000057,53.227917239929048776
0.253000000000000058,52.019777373691248101
0.254000000000000059,50.826098931525613978
0.255000000000000060,49.647007678473478620
0.256000000000000061,48.482611619038948447
0.257000000000000062,47.332998775942968450
0.258000000000000063,46.198235560275570322
0.259000000000000064,45.078365694057254132
0.260000000000000064,43.973409640095745488
0.261000000000000065,42.883364489967021882
0.262000000000000066,41.808204258657383434
0.263000000000000067,40.747880533603208164
0.264000000000000068,39.702323426293716579
0.265000000000000069,38.671442776024356647
0.266000000000000070,37.655129557596801249
0.267000000000000071,36.653257447563930782
0.268000000000000071,35.665684506854333335
0.269000000000000072,34.692254941137932178
0.270000000000000073,33.732800903991851271
0.271000000000000074,32.787144311693154464
0.272000000000000075,31.855098642218145244
0.273000000000000076,30.936470694699909956
0.274000000000000077,30.031062289131888576
0.275000000000000078,29.138671889465626919
0.276000000000000079,28.259096136404558308
0.277000000000000079,27.392131279120025766
0.278000000000000080,26.537574497802040696
0.279000000000000081,25.695225111393206419
0.280000000000000082,24.864885667043441941
0.281000000000000083,24.046362909766731519
0.282000000000000084,23.239468632486914856
0.283000000000000085,22.444020408138129596
0.284000000000000086,21.659842206745327786
0.285000000000000087,20.886764901471661204
0.286000000000000087,20.124626668488502901
0.287000000000000088,19.373273286222385536
0.288000000000000089,18.632558340072836955
0.289000000000000090,17.902343339091530083
0.290000000000000091,17.182497751383355222
0.291000000000000092,16.472898965144565864
0.292000000000000093,15.773432182309946370
0.293000000000000094,15.083990251749886724
0.294000000000000095,14.404473448854062667
0.295000000000000095,13.734789208168994179
0.296000000000000096,13.074851815537835265
0.297000000000000097,12.424582065926150776
0.298000000000000098,11.783906892820834145
0.299000000000000099,11.152758974764807931
0.300000000000000100,10.531076324248203946
0.301000000000000101,9.918801863819751929
0.302000000000000102,9.315882993920697075
0.303000000000000103,8.722271156575839512
0.304000000000000103,8.137921398714359711
0.305000000000000104,7.562791938533051095
0.306000000000000105,6.996843737964523413
0.307000000000000106,6.440040083973239682
0.308000000000000107,5.892346181075015288
0.309000000000000108,5.353728757163446872
0.310000000000000109,4.824155684428747648
0.311000000000000110,4.303595616875926844
0.312000000000000111,3.792017645683601668
0.313000000000000111,3.289390973401181917
0.314000000000000112,2.795684607752877415
0.315000000000000113,2.310867075607030863
0.316000000000000114,1.834906157476103861
0.317000000000000115,1.367768642736927331
0.318000000000000116,0.909420105601075113
0.319000000000000117,0.459824701722172491
0.320000000000000118,0.018944985198889302
0.321000000000000119,-0.413258254381478118
0.322000000000000119,-0.836826135312859209
0.323000000000000120,-1.251801808093943702
0.324000000000000121,-1.658230561320534591
0.325000000000000122,-2.056159909823317200
0.326000000000000123,-2.445639665779781424
0.327000000000000124,-2.826721993570856295
0.328000000000000125,-3.199461449185354578
0.329000000000000126,-3.563915004999275826
0.330000000000000127,-3.920142060774028714
0.331000000000000127,-4.268204441726622278
0.332000000000000128,-4.608166384528493253
0.333000000000000129,-4.940094512087274126
0.334000000000000130,-5.264057797958010099
0.335000000000000131,-5.580127521219331754
0.336000000000000132,-5.888377212633154834
0.337000000000000133,-6.188882592888382383
0.338000000000000134,-6.481721503706940446
0.339000000000000135,-6.766973832564947777
0.340000000000000135,-7.044721431756959085
0.341000000000000136,-7.315048032501472619
0.342000000000000137,-7.578039154757346907
0.343000000000000138,-7.833782013389398280
0.344000000000000139,-8.082365421291118679
0.345000000000000140,-8.323879690039754919
0.346000000000000141,-8.558416528627626363
0.347000000000000142,-8.786068940781223802
0.348000000000000143,-9.006931121348088709
0.349000000000000143,-9.221098352199664561
0.350000000000000144,-9.428666898067650237
0.351000000000000145,-9.629733902700516879
0.352000000000000146,-9.824397285697742177
0.353000000000000147,-10.012755640349855213
0.354000000000000148,-10.194908132784869181
0.355000000000000149,-10.370954402694350094
0.356000000000000150,-10.540994465886502240
0.357000000000000151,-10.705128618888538838
0.358000000000000151,-10.863457345796806663
0.359000000000000152,-11.016081227550213129
0.360000000000000153,-11.163100853781159572
0.361000000000000154,-11.304616737376807833
0.362000000000000155,-11.440729231865081061
0.363000000000000156,-11.571538451720570606
0.364000000000000157,-11.697144195668576216
0.365000000000000158,-11.817645873049636762
0.366000000000000159,-11.933142433290925055
0.367000000000000159,-12.043732298517745960
0.368000000000000160,-12.149513299324491200
0.369000000000000161,-12.250582613712619917
0.370000000000000162,-12.347036709192064308
0.371000000000000163,-12.438971288031876128
0.372000000000000164,-12.526481235636797607
0.373000000000000165,-12.609660572017565627
0.374000000000000166,-12.688602406315384385
0.375000000000000167,-12.763398894333182199
0.376000000000000167,-12.834141199020894675
0.377000000000000168,-12.900919453855715702
0.378000000000000169,-12.963822729053381622
0.379000000000000170,-13.022939000542468335
0.380000000000000171,-13.078355121629590130
0.381000000000000172,-13.130156797280259084
0.382000000000000173,-13.178428560937396341
0.383000000000000174,-13.223253753797379773
0.384000000000000175,-13.264714506461412924
0.385000000000000175,-13.302891722878765535
0.386000000000000176,-13.337865066497704092
0.387000000000000177,-13.369712948538472475
0.388000000000000178,-13.398512518303462571
0.389000000000000179,-13.424339655438604524
0.390000000000000180,-13.447268964061066754
0.391000000000000181,-13.467373768668457146
0.392000000000000182,-13.484726111745464650
0.393000000000000183,-13.499396752985067138
0.394000000000000183,-13.511455170042211194
0.395000000000000184,-13.520969560739590776
0.396000000000000185,-13.528006846646126959
0.397000000000000186,-13.532632677950726219
0.398000000000000187,-13.534911439555401103
0.399000000000000188,-13.534906258313762706
0.400000000000000189,-13.532679011342414910
0.401000000000000190,-13.528290335335451999
0.402000000000000191,-13.521799636813488732
0.403000000000000191,-13.513265103241206333
0.404000000000000192,-13.502743714949474452
0.405000000000000193,-13.490291257799952973
0.406000000000000194,-13.475962336532637309
0.407000000000000195,-13.459810388738651099
0.408000000000000196,-13.441887699402849776
0.409000000000000197,-13.422245415963136139
0.410000000000000198,-13.400933563835319973
0.411000000000000199,-13.378001062354480055
0.412000000000000199,-13.353495741086234716
0.413000000000000200,-13.327464356462908057
0.414000000000000201,-13.299952608702216850
0.415000000000000202,-13.271005158967506432
0.416000000000000203,-13.240665646731155647
0.417000000000000204,-13.208976707304282527
0.418000000000000205,-13.175979989497941247
0.419000000000000206,-13.141716173383017008
0.420000000000000207,-13.106224988117393337
0.421000000000000207,-13.069545229811444287
0.422000000000000208,-13.031714779403653637
0.423000000000000209,-12.992770620520895264
0.424000000000000210,-12.952748857298638896
0.425000000000000211,-12.911684732138359877
0.426000000000000212,-12.869612643380900607
0.427000000000000213,-12.826566162875753463
0.428000000000000214,-12.782578053427950948
0.429000000000000214,-12.737680286105376837
0.430000000000000215,-12.691904057390567928
0.431000000000000216,-12.645279806162694314
0.432000000000000217,-12.597837230495965599
0.433000000000000218,-12.549605304262511751
0.434000000000000219,-12.500612293528353902
0.435000000000000220,-12.450885772732553036
0.436000000000000221,-12.400452640640263979
0.437000000000000222,-12.349339136061484368
0.438000000000000222,-12.297570853328418039
0.439000000000000223,-12.245172757524850127
0.440000000000000224,-12.192169199462023599
0.441000000000000225,-12.138583930396105615
0.442000000000000226,-12.084440116483305516
0.443000000000000227,-12.029760352968988713
0.444000000000000228,-11.974566678108287121
0.445000000000000229,-11.918880586815891576
0.446000000000000230,-11.862723044043427478
0.447000000000000230,-11.806114497883603676
0.448000000000000231,-11.749074892400438230
0.449000000000000232,-11.691623680185418976
0.450000000000000233,-11.633779834640439077
0.451000000000000234,-11.575561861987734957
0.452000000000000235,-11.516987813008613628
0.453000000000000236,-11.458075294512012121
0.454000000000000237,-11.398841480535285342
0.455000000000000238,-11.339303123278977381
0.456000000000000238,-11.279476563778397136
0.457000000000000239,-11.219377742314541990
0.458000000000000240,-11.159022208567522583
0.459000000000000241,-11.098425131515437414
0.460000000000000242,-11.037601309082438306
0.461000000000000243,-10.976565177539185925
0.462000000000000244,-10.915330820659823630
0.463000000000000245,-10.853911978638862479
0.464000000000000246,-10.792322056772503558
0.465000000000000246,-10.730574133908076462
0.466000000000000247,-10.668680970666043706
0.467000000000000248,-10.606655017438708200
0.468000000000000249,-10.544508422170151718
0.469000000000000250,-10.482253037921587691
0.470000000000000251,-10.419900430226807231
0.471000000000000252,-10.357461884241960348
0.472000000000000253,-10.294948411694527124
0.473000000000000254,-10.232370757635573355
0.474000000000000254,-10.169739407000241371
0.475000000000000255,-10.107064590980661123
0.476000000000000256,-10.044356293216054610
0.477000000000000257,-9.981624255804401713
0.478000000000000258,-9.918877985140115427
0.479000000000000259,-9.856126757582325482
0.480000000000000260,-9.793379624958028273
0.481000000000000261,-9.730645419904533355
0.482000000000000262,-9.667932761055512358
0.483000000000000262,-9.605250058075023745
0.484000000000000263,-9.542605516543501309
0.485000000000000264,-9.480007142700168643
0.486000000000000265,-9.417462748045753784
0.487000000000000266,-9.354979953809584359
0.488000000000000267,-9.292566195285139941
0.489000000000000268,-9.230228726037855935
0.490000000000000269,-9.167974621989035455
0.491000000000000270,-9.105810785379695460
0.492000000000000270,-9.043743948617883888
0.493000000000000271,-8.981780678013288721
0.494000000000000272,-8.919927377402505186
0.495000000000000273,-8.858190291668440963
0.496000000000000274,-8.796575510157380151
0.497000000000000275,-8.735088969996786190
0.498000000000000276,-8.673736459317295200
0.499000000000000277,-8.612523620381898226
0.500000000000000222,-8.551455952625394374
0.501000000000000334,-8.490538815607205692
0.502000000000000224,-8.429777431880360439
0.503000000000000336,-8.369176889779506467
0.504000000000000226,-8.308742146130809303
0.505000000000000338,-8.248478028886179203
0.506000000000000227,-8.188389239684822130
0.507000000000000339,-8.128480356344182312
0.508000000000000229,-8.068755835283193178
0.509000000000000341,-8.009220013879758682
0.510000000000000231,-7.949877112765342702
0.511000000000000343,-7.890731238058270591
0.512000000000000233,-7.831786383538508645
0.513000000000000345,-7.773046432765515767
0.514000000000000234,-7.714515161141759947
0.515000000000000346,-7.656196237923214021
0.516000000000000236,-7.598093228179406466
0.517000000000000348,-7.540209594704309737
0.518000000000000238,-7.482548699880308796
0.519000000000000350,-7.425113807496577678
0.520000000000000240,-7.367908084523826062
0.521000000000000352,-7.310934602846858255
0.522000000000000242,-7.254196340956565514
0.523000000000000353,-7.197696185602775465
0.524000000000000243,-7.141436933409470278
0.525000000000000355,-7.085421292453700559
0.526000000000000245,-7.029651883809640012
0.527000000000000357,-6.974131243058822704
0.528000000000000247,-6.918861821768146569
0.529000000000000359,-6.863845988936475351
0.530000000000000249,-6.809086032411286737
0.531000000000000361,-6.754584160276214888
0.532000000000000250,-6.700342502210776097
0.533000000000000362,-6.646363110823045872
0.534000000000000252,-6.592647962956490915
0.535000000000000364,-6.539198960971691399
0.536000000000000254,-6.486017934004078889
0.537000000000000366,-6.433106639198179266
0.538000000000000256,-6.380466762919703605
0.539000000000000368,-6.328099921945683271
0.540000000000000258,-6.276007664634003724
0.541000000000000369,-6.224191472072446274
0.542000000000000259,-6.172652759208529183
0.543000000000000371,-6.121392875960301794
0.544000000000000261,-6.070413108309051786
0.545000000000000373,-6.019714679374362554
0.546000000000000263,-5.969298750472242787
0.547000000000000375,-5.919166422156564522
0.548000000000000265,-5.869318735244870133
0.549000000000000377,-5.819756671828415939
0.550000000000000266,-5.770481156267494249
0.551000000000000378,-5.721493056172069380
0.552000000000000268,-5.672793183368431080
0.553000000000000380,-5.624382294852100728
0.554000000000000270,-5.576261093727582718
0.555000000000000382,-5.528430230135008117
0.556000000000000272,-5.480890302164506345
0.557000000000000384,-5.433641856758045563
0.558000000000000274,-5.386685390599716072
0.559000000000000385,-5.340021350994126337
0.560000000000000275,-5.293650136733743850
0.561000000000000387,-5.247572098955081366
0.562000000000000277,-5.201787541984158381
0.563000000000000389,-5.156296724171472334
0.564000000000000279,-5.111099858716693589
0.565000000000000391,-5.066197114483282249
0.566000000000000281,-5.021588616803308369
0.567000000000000393,-4.977274448272563490
0.568000000000000282,-4.933254649536354286
0.569000000000000394,-4.889529220065837123
0.570000000000000284,-4.846098118925457499
0.571000000000000396,-4.802961265531257240
0.572000000000000286,-4.760118540400606335
0.573000000000000398,-4.717569785893066303
0.574000000000000288,-4.675314806942930446
0.575000000000000400,-4.633353371783292651
0.576000000000000290,-4.591685212661912097
0.577000000000000401,-4.550310026548897824
0.578000000000000291,-4.509227475836402377
0.579000000000000403,-4.468437189030358248
0.580000000000000293,-4.427938761434453419
0.581000000000000405,-4.387731755826242974
0.582000000000000295,-4.347815703125803566
0.583000000000000407,-4.308190103056641185
0.584000000000000297,-4.268854424799246594
0.585000000000000409,-4.229808107637156311
0.586000000000000298,-4.191050561595766055
0.587000000000000410,-4.152581168073778528
0.588000000000000300,-4.114399280467556430
0.589000000000000412,-4.076504224788205732
0.590000000000000302,-4.038895300271680533
0.591000000000000414,-4.001571779981814458
0.592000000000000304,-3.964532911406415394
0.593000000000000416,-3.927777917046332057
0.594000000000000306,-3.891305994997810380
0.595000000000000417,-3.855116319527857716
0.596000000000000307,-3.819208041642949247
0.597000000000000419,-3.783580289650907869
0.598000000000000309,-3.748232169716169349
0.599000000000000421,-3.713162766408288462
0.600000000000000311,-3.678371143243952535
0.601000000000000423,-3.643856343222279914
0.602000000000000313,-3.609617389353734662
0.603000000000000425,-3.575653285182339935
0.604000000000000314,-3.541963015301668349
0.605000000000000426,-3.508545545864141246
0.606000000000000316,-3.475399825084139138
0.607000000000000428,-3.442524783734602245
0.608000000000000318,-3.409919335637417781
0.609000000000000430,-3.377582378147377717
0.610000000000000320,-3.345512792630030763
0.611000000000000432,-3.313709444933124360
0.612000000000000322,-3.282171185852008843
0.613000000000000433,-3.250896851588760406
0.614000000000000323,-3.219885264205228026
0.615000000000000435,-3.189135232069953751
0.616000000000000325,-3.158645550299042704
0.617000000000000437,-3.128415001190946398
0.618000000000000327,-3.098442354655344566
0.619000000000000439,-3.068726368635904311
0.620000000000000329,-3.039265789527237249
0.621000000000000441,-3.010059352585880532
0.622000000000000330,-2.981105782335423449
0.623000000000000442,-2.952403792965778262
0.624000000000000332,-2.923952088726677445
0.625000000000000444,-2.895749364315364893
0.626000000000000334,-2.867794305258595688
0.627000000000000446,-2.840085588288872920
0.628000000000000336,-2.812621881715078320
0.629000000000000448,-2.785401845787431885
0.630000000000000338,-2.758424133056897265
0.631000000000000449,-2.731687388728977872
0.632000000000000339,-2.705190251012040026
0.633000000000000451,-2.678931351460114740
0.634000000000000341,-2.652909315310292726
0.635000000000000453,-2.627122761814668195
0.636000000000000343,-2.601570304566952707
0.637000000000000455,-2.576250551823705770
0.638000000000000345,-2.551162106820365150
0.639000000000000457,-2.526303568081881945
0.640000000000000346,-2.501673529728315692
0.641000000000000458,-2.477270581775080860
0.642000000000000348,-2.453093310428219542
0.643000000000000460,-2.429140298374447671
0.644000000000000350,-2.405410125066262506
0.645000000000000462,-2.381901367001943992
0.646000000000000352,-2.358612598000685345
0.647000000000000464,-2.335542389472673896
0.648000000000000353,-2.312689310684460597
0.649000000000000465,-2.290051929019290888
0.650000000000000355,-2.267628810232823255
0.651000000000000467,-2.245418518703937050
0.652000000000000357,-2.223419617680966631
0.653000000000000469,-2.201630669523146899
0.654000000000000359,-2.180050235937540659
0.655000000000000471,-2.158676878211287065
0.656000000000000361,-2.137509157439430485
0.657000000000000473,-2.116545634748123739
0.658000000000000362,-2.095784871513517000
0.659000000000000474,-2.075225429576144087
0.660000000000000364,-2.054865871451037496
