# ZnO10m10BOND_AFUC-JS
# h[nm],U(h)[kJ/mol]
0.200000000000000011,138.694937819069139096
0.201000000000000012,137.337601099606729349
0.202000000000000013,135.588376187409693330
0.203000000000000014,133.675332143532983764
0.204000000000000015,131.726084146495566074
0.205000000000000016,129.804575199425073606
0.206000000000000016,127.936153247781064124
0.207000000000000017,126.124288312380627985
0.208000000000000018,124.361394569679234223
0.209000000000000019,122.635559684180634576
0.210000000000000020,120.934487125961283027
0.211000000000000021,119.247587239379527091
0.212000000000000022,117.566879017647607952
0.213000000000000023,115.887163441181726853
0.214000000000000024,114.205782862220118545
0.215000000000000024,112.522175496746697831
0.216000000000000025,110.837359121020497810
0.217000000000000026,109.153425593717358311
0.218000000000000027,107.473091810919939348
0.219000000000000028,105.799328618878689667
0.220000000000000029,104.135073670849394034
0.221000000000000030,102.483024703471031103
0.222000000000000031,100.845504371252303599
0.223000000000000032,99.224385261372617606
0.224000000000000032,97.621063038021944180
0.225000000000000033,96.036466139885234838
0.226000000000000034,94.471091588693639096
0.227000000000000035,92.925057927083841491
0.228000000000000036,91.398167868181900531
0.229000000000000037,89.889974765712196358
0.230000000000000038,88.399848417435379133
0.231000000000000039,86.927036951466703840
0.232000000000000040,85.470722596581509833
0.233000000000000040,84.030070003710008564
0.234000000000000041,82.604266477165623428
0.235000000000000042,81.192554007737683719
0.236000000000000043,79.794253395599838541
0.237000000000000044,78.408781029862410605
0.238000000000000045,77.035659073722712264
0.239000000000000046,75.674519908280700520
0.240000000000000047,74.325105730952969907
0.241000000000000048,72.987264200683910076
0.242000000000000048,71.660940984259156039
0.243000000000000049,70.346169996364963595
0.244000000000000050,69.043062049082180920
0.245000000000000051,67.751792541007873183
0.246000000000000052,66.472588727448297163
0.247000000000000053,65.205717025103936635
0.248000000000000054,63.951470720300790163
0.249000000000000055,62.710158371140927613
0.250000000000000056,61.482093122268040020
0.251000000000000056,60.267583087010542897
0.252000000000000057,59.066922895775540781
0.253000000000000058,57.880386461684146582
0.254000000000000059,56.708220974267781855
0.255000000000000060,55.550642099131131602
0.256000000000000061,54.407830335246309517
0.257000000000000062,53.279928461332225709
0.258000000000000063,52.167039987915835297
0.259000000000000064,51.069228521489044681
0.260000000000000064,49.986517941006617605
0.261000000000000065,48.918893284192108695
0.262000000000000066,47.866302241141674756
0.263000000000000067,46.828657155016188085
0.264000000000000068,45.805837433702187411
0.265000000000000069,44.797692281780335577
0.266000000000000070,43.804043668595070926
0.267000000000000071,42.824689455345946953
0.268000000000000071,41.859406611650619823
0.269000000000000072,40.907954459730170527
0.270000000000000073,39.970077892052145785
0.271000000000000074,39.045510515784613403
0.272000000000000075,38.133977684644030148
0.273000000000000076,37.235199385572464337
0.274000000000000077,36.348892954087418161
0.275000000000000078,35.474775598065654947
0.276000000000000079,34.612566715125453243
0.277000000000000079,33.761989993642202990
0.278000000000000080,32.922775291778449969
0.279000000000000081,32.094660292731205686
0.280000000000000082,31.277391937723116655
0.281000000000000083,30.470727641106844175
0.282000000000000084,29.674436294345753140
0.283000000000000085,28.888299067608159021
0.284000000000000086,28.112110019297809060
0.285000000000000087,27.345676525079511521
0.286000000000000087,26.588819538872051851
0.287000000000000088,25.841373698911318968
0.288000000000000089,25.103187292363259076
0.289000000000000090,24.374122092121190519
0.290000000000000091,23.654053079386564207
0.291000000000000092,22.942868065430431557
0.292000000000000093,22.240467225594741763
0.293000000000000094,21.546762558139434418
0.294000000000000095,20.861677279995696210
0.295000000000000095,20.185145170866157116
0.296000000000000096,19.517109876440603244
0.297000000000000097,18.857524180781265244
0.298000000000000098,18.206349257194535340
0.299000000000000099,17.563553906153337891
0.300000000000000100,16.929113788081373571
0.301000000000000101,16.303010658061428018
0.302000000000000102,15.685231608798289926
0.303000000000000103,15.075768327451587680
0.304000000000000103,14.474616371268776760
0.305000000000000104,13.881774466289709125
0.306000000000000105,13.297243832770636374
0.307000000000000106,12.721027540386639743
0.308000000000000107,12.153129895719725795
0.309000000000000108,11.593555864026903635
0.310000000000000109,11.042310526806485171
0.311000000000000110,10.499398576246488091
0.312000000000000111,9.964823847238278631
0.313000000000000111,9.438588887279660611
0.314000000000000112,8.920694564265613025
0.315000000000000113,8.411139711875247116
0.316000000000000114,7.909920812006831170
0.317000000000000115,7.417031713488114519
0.318000000000000116,6.932463386093924207
0.319000000000000117,6.456203708736721225
0.320000000000000118,5.988237290555439074
0.321000000000000119,5.528545323511698584
0.322000000000000119,5.077105465009873697
0.323000000000000120,4.633891748985247361
0.324000000000000121,4.198874523850373741
0.325000000000000122,3.772020415654787406
0.326000000000000123,3.353292314792400752
0.327000000000000124,2.942649384584701266
0.328000000000000125,2.540047090074065483
0.329000000000000126,2.145437245379161251
0.330000000000000127,1.758768077990842560
0.331000000000000127,1.379984308423109596
0.332000000000000128,1.009027243675941765
0.333000000000000129,0.645834883015767747
0.334000000000000130,0.290342034633645496
0.335000000000000131,-0.057519558201442632
0.336000000000000132,-0.397821082814114935
0.337000000000000133,-0.730636515875970560
0.338000000000000134,-1.056042476431902077
0.339000000000000135,-1.374118074322499217
0.340000000000000135,-1.684944755059867516
0.341000000000000136,-1.988606142145065814
0.342000000000000137,-2.285187877749169871
0.343000000000000138,-2.574777462612820145
0.344000000000000139,-2.857464095954802996
0.345000000000000140,-3.133338516115367511
0.346000000000000141,-3.402492842598655365
0.347000000000000142,-3.665020420118003663
0.348000000000000143,-3.921015665190044963
0.349000000000000143,-4.170573915767489481
0.350000000000000144,-4.413791284347235333
0.351000000000000145,-4.650764514939014660
0.352000000000000146,-4.881590844231782356
0.353000000000000147,-5.106367867248490455
0.354000000000000148,-5.325193407736955820
0.355000000000000149,-5.538165393503271972
0.356000000000000150,-5.745381736856086441
0.357000000000000151,-5.946940220294095525
0.358000000000000151,-6.142938387535808786
0.359000000000000152,-6.333473439959584006
0.360000000000000153,-6.518642138493592419
0.361000000000000154,-6.698540710968371670
0.362000000000000155,-6.873264764921356296
0.363000000000000156,-7.042909205819990248
0.364000000000000157,-7.207568160650320799
0.365000000000000158,-7.367334906800233618
0.366000000000000159,-7.522301806149454428
0.367000000000000159,-7.672560244265021367
0.368000000000000160,-7.818200574587298668
0.369000000000000161,-7.959312067480911246
0.370000000000000162,-8.095982864015203617
0.371000000000000163,-8.228299934330266296
0.372000000000000164,-8.356349040437960340
0.373000000000000165,-8.480214703301205859
0.374000000000000166,-8.599980174030717350
0.375000000000000167,-8.715727409033933171
0.376000000000000167,-8.827537048949276155
0.377000000000000168,-8.935488401196536756
0.378000000000000169,-9.039659425973423978
0.379000000000000170,-9.140126725528407547
0.380000000000000171,-9.236965536540470367
0.381000000000000172,-9.330249725437436581
0.382000000000000173,-9.420051786486574485
0.383000000000000174,-9.506442842493411760
0.384000000000000175,-9.589492647947256643
0.385000000000000175,-9.669269594455192518
0.386000000000000176,-9.745840718310082806
0.387000000000000177,-9.819271710041181933
0.388000000000000178,-9.889626925801048074
0.389000000000000179,-9.956969400445746743
0.390000000000000180,-10.021360862170537231
0.391000000000000181,-10.082861748567641058
0.392000000000000182,-10.141531223977183984
0.393000000000000183,-10.197427198007812166
0.394000000000000183,-10.250606345107893702
0.395000000000000184,-10.301124125073480187
0.396000000000000185,-10.349034804384102060
0.397000000000000186,-10.394391478262285489
0.398000000000000187,-10.437246093358016452
0.399000000000000188,-10.477649470963930511
0.400000000000000189,-10.515651330671884622
0.401000000000000190,-10.551300314386756085
0.402000000000000191,-10.584644010617529020
0.403000000000000191,-10.615728978970569329
0.404000000000000192,-10.644600774774698237
0.405000000000000193,-10.671303973771617990
0.406000000000000194,-10.695882196810124753
0.407000000000000195,-10.718378134486158615
0.408000000000000196,-10.738833571675233003
0.409000000000000197,-10.757289411907384746
0.410000000000000198,-10.773785701538921344
0.411000000000000199,-10.788361653678315122
0.412000000000000199,-10.801055671827967331
0.413000000000000200,-10.811905373205933145
0.414000000000000201,-10.820947611715871162
0.415000000000000202,-10.828218500535907509
0.416000000000000203,-10.833753434300348317
0.417000000000000204,-10.837587110851060856
0.418000000000000205,-10.839753552537803927
0.419000000000000206,-10.840286127049557408
0.420000000000000207,-10.839217567761105343
0.421000000000000207,-10.836579993581795023
0.422000000000000208,-10.832404928294954161
0.423000000000000209,-10.826723319379199850
0.424000000000000210,-10.819565556304230114
0.425000000000000211,-10.810961488295742328
0.426000000000000212,-10.800940441565986205
0.427000000000000213,-10.789531236007469772
0.428000000000000214,-10.776762201349606940
0.429000000000000214,-10.762661192778768537
0.430000000000000215,-10.747255606023873753
0.431000000000000216,-10.730572391910762065
0.432000000000000217,-10.712638070389600031
0.433000000000000218,-10.693478744040582740
0.434000000000000219,-10.673120111064234194
0.435000000000000220,-10.651587477763401424
0.436000000000000221,-10.628905770524610830
0.437000000000000222,-10.605099547307403896
0.438000000000000222,-10.580193008650820019
0.439000000000000223,-10.554210008206592164
0.440000000000000224,-10.527174062809313781
0.441000000000000225,-10.499108362094130342
0.442000000000000226,-10.470035777672991983
0.443000000000000227,-10.439978871880599698
0.444000000000000228,-10.408959906101880932
0.445000000000000229,-10.377000848692512491
0.446000000000000230,-10.344123382504523789
0.447000000000000230,-10.310348912029217772
0.448000000000000231,-10.275698570169483403
0.449000000000000232,-10.240193224653619808
0.450000000000000233,-10.203853484103357019
0.451000000000000234,-10.166699703767832830
0.452000000000000235,-10.128751990936281757
0.453000000000000236,-10.090030210041135206
0.454000000000000237,-10.050553987464054373
0.455000000000000238,-10.010342716056577217
0.456000000000000238,-9.969415559387368120
0.457000000000000239,-9.927791455727753345
0.458000000000000240,-9.885489121787147226
0.459000000000000241,-9.842527056209492642
0.460000000000000242,-9.798923542842219447
0.461000000000000243,-9.754696653788339944
0.462000000000000244,-9.709864252252710770
0.463000000000000245,-9.664443995192577574
0.464000000000000246,-9.618453335783085478
0.465000000000000246,-9.571909525707443578
0.466000000000000247,-9.524829617281625360
0.467000000000000248,-9.477230465423065908
0.468000000000000249,-9.429128729472617820
0.469000000000000250,-9.380540874878700919
0.470000000000000251,-9.331483174752319698
0.471000000000000252,-9.281971711301350680
0.472000000000000253,-9.232022377152416581
0.473000000000000254,-9.181650876567895025
0.474000000000000254,-9.130872726566028774
0.475000000000000255,-9.079703257951139861
0.476000000000000256,-9.028157616261255569
0.477000000000000257,-8.976250762639802261
0.478000000000000258,-8.923997474637872074
0.479000000000000259,-8.871412346953434280
0.480000000000000260,-8.818509792113427892
0.481000000000000261,-8.765304041104400312
0.482000000000000262,-8.711809143957330193
0.483000000000000262,-8.658038970291830339
0.484000000000000263,-8.604007209824596103
0.485000000000000264,-8.549727372847112150
0.486000000000000265,-8.495212790676955450
0.487000000000000266,-8.440476616086975525
0.488000000000000267,-8.385531823716620536
0.489000000000000268,-8.330391210469064944
0.490000000000000269,-8.275067395897886868
0.491000000000000270,-8.219572822586760807
0.492000000000000270,-8.163919756525267246
0.493000000000000271,-8.108120287484016586
0.494000000000000272,-8.052186329391918918
0.495000000000000273,-7.996129620718093634
0.496000000000000274,-7.939961724861194448
0.497000000000000275,-7.883694030548222820
0.498000000000000276,-7.827337752245111524
0.499000000000000277,-7.770903930581090080
0.500000000000000222,-7.714403432788509818
0.501000000000000334,-7.657846953160039050
0.502000000000000224,-7.601245013524616567
0.503000000000000336,-7.544607963743575674
0.504000000000000226,-7.487945982228365160
0.505000000000000338,-7.431269076480738534
0.506000000000000227,-7.374587083656779285
0.507000000000000339,-7.317909671155325313
0.508000000000000229,-7.261246337231884063
0.509000000000000341,-7.204606411638432739
0.510000000000000231,-7.147999056290077036
0.511000000000000343,-7.091433265958576371
0.512000000000000233,-7.034917868993604273
0.513000000000000345,-6.978461528071621345
0.514000000000000234,-6.922072740973059801
0.515000000000000346,-6.865759841387408358
0.516000000000000236,-6.809530999746810309
0.517000000000000348,-6.753394224087722719
0.518000000000000238,-6.697357360940982218
0.519000000000000350,-6.641428096249720525
0.520000000000000240,-6.585613956315287787
0.521000000000000352,-6.529922308770771622
0.522000000000000242,-6.474360363581865840
0.523000000000000353,-6.418935174074638539
0.524000000000000243,-6.363653637989996170
0.525000000000000355,-6.308522498564201442
0.526000000000000245,-6.253548345635196348
0.527000000000000357,-6.198737616773914105
0.528000000000000247,-6.144096598440405010
0.529000000000000359,-6.089631427163842758
0.530000000000000249,-6.035348090746095906
0.531000000000000361,-5.981252429488016276
0.532000000000000250,-5.927350137437979782
0.533000000000000362,-5.873646763661821701
0.534000000000000252,-5.820147713533637912
0.535000000000000364,-5.766858250046576373
0.536000000000000254,-5.713783495143162305
0.537000000000000366,-5.660928431063974031
0.538000000000000256,-5.608297901714495381
0.539000000000000368,-5.555896614048807969
0.540000000000000258,-5.503729139469891507
0.541000000000000369,-5.451799915245244321
0.542000000000000259,-5.400113245937583351
0.543000000000000371,-5.348673304849340226
0.544000000000000261,-5.297484135480560852
0.545000000000000373,-5.246549652999203062
0.546000000000000263,-5.195873645723230183
0.547000000000000375,-5.145459776613404479
0.548000000000000265,-5.095311584776575309
0.549000000000000377,-5.045432486977968090
0.550000000000000266,-4.995825779162430536
0.551000000000000378,-4.946494637983286147
0.552000000000000268,-4.897442122338465431
0.553000000000000380,-4.848671174912899673
0.554000000000000270,-4.800184623726679867
0.555000000000000382,-4.751985183687939873
0.556000000000000272,-4.704075458150196454
0.557000000000000384,-4.656457940472901846
0.558000000000000274,-4.609135015585083650
0.559000000000000385,-4.562108961550852548
0.560000000000000275,-4.515381951136578031
0.561000000000000387,-4.468956053378717819
0.562000000000000277,-4.422833235151868436
0.563000000000000389,-4.377015362736317527
0.564000000000000279,-4.331504203384535678
0.565000000000000391,-4.286301426885893662
0.566000000000000281,-4.241408607129194763
0.567000000000000393,-4.196827223662222828
0.568000000000000282,-4.152558663248003157
0.569000000000000394,-4.108604221416914726
0.570000000000000284,-4.064965104014484965
0.571000000000000396,-4.021642428743957609
0.572000000000000286,-3.978637226703547469
0.573000000000000398,-3.935950443917435315
0.574000000000000288,-3.893582942860464247
0.575000000000000400,-3.851535503975752395
0.576000000000000290,-3.809808827184989699
0.577000000000000401,-3.768403533390812132
0.578000000000000291,-3.727320165971006904
0.579000000000000403,-3.686559192263987317
0.580000000000000293,-3.646121005045329433
0.581000000000000405,-3.606005923994731521
0.582000000000000295,-3.566214197153406928
0.583000000000000407,-3.526746002371164757
0.584000000000000297,-3.487601448743166799
0.585000000000000409,-3.448780578035836264
0.586000000000000298,-3.410283366101776181
0.587000000000000410,-3.372109724283221421
0.588000000000000300,-3.334259500803983478
0.589000000000000412,-3.296732482149324905
0.590000000000000302,-3.259528394433824694
0.591000000000000414,-3.222646904756777619
0.592000000000000304,-3.186087622545007658
0.593000000000000416,-3.149850100882766402
0.594000000000000306,-3.113933837828740891
0.595000000000000417,-3.078338277719677940
0.596000000000000307,-3.043062812460723965
0.597000000000000419,-3.008106782802112633
0.598000000000000309,-2.973469479602202092
0.599000000000000421,-2.939150145076545151
0.600000000000000311,-2.905147974033066571
0.601000000000000423,-2.871462115092989542
0.602000000000000313,-2.838091671897658763
0.603000000000000425,-2.805035704300836041
0.604000000000000314,-2.772293229546793913
0.605000000000000426,-2.739863223433629091
0.606000000000000316,-2.707744621462193635
0.607000000000000428,-2.675936319970209532
0.608000000000000318,-2.644437177251787396
0.609000000000000430,-2.613246014662037986
0.610000000000000320,-2.582361617707044754
0.611000000000000432,-2.551782737118814648
0.612000000000000322,-2.521508089915515338
0.613000000000000433,-2.491536360446743537
0.614000000000000323,-2.461866201423937639
0.615000000000000435,-2.432496234935896062
0.616000000000000325,-2.403425053449417259
0.617000000000000437,-2.374651220795031215
0.618000000000000327,-2.346173273137956539
0.619000000000000439,-2.317989719934119730
0.620000000000000329,-2.290099044871467981
0.621000000000000441,-2.262499706796490706
0.622000000000000330,-2.235190140626014177
0.623000000000000442,-2.208168758244323904
0.624000000000000332,-2.181433949385711113
0.625000000000000444,-2.154984082502401588
0.626000000000000334,-2.128817505618070260
0.627000000000000446,-2.102932547166835864
0.628000000000000336,-2.077327516817994990
0.629000000000000448,-2.052000706286417397
0.630000000000000338,-2.026950390128802848
0.631000000000000449,-2.002174826525775941
0.632000000000000339,-1.977672258050007459
0.633000000000000451,-1.953440912420382203
0.634000000000000341,-1.929479003242367430
0.635000000000000453,-1.905784730734620736
0.636000000000000343,-1.882356282442007922
0.637000000000000455,-1.859191833935042393
0.638000000000000345,-1.836289549496020301
0.639000000000000457,-1.813647582791705348
0.640000000000000346,-1.791264077533001764
0.641000000000000458,-1.769137168121382997
0.642000000000000348,-1.747264980282531299
0.643000000000000460,-1.725645631687014570
0.644000000000000350,-1.704277232558359056
0.645000000000000462,-1.683157886268459524
0.646000000000000352,-1.662285689920612652
0.647000000000000464,-1.641658734920113050
0.648000000000000353,-1.621275107532812454
0.649000000000000465,-1.601132889431423845
0.650000000000000355,-1.581230158230063187
0.651000000000000467,-1.561564988006849175
0.652000000000000357,-1.542135449814954651
0.653000000000000469,-1.522939612182021119
0.654000000000000359,-1.503975541598274956
0.655000000000000471,-1.485241302993287160
0.656000000000000361,-1.466734960201725446
0.657000000000000473,-1.448454576417992357
0.658000000000000362,-1.430398214640150822
0.659000000000000474,-1.412563938103039707
0.660000000000000364,-1.394949810700912840
0.661000000000000476,-1.377553897399563798
