# ZnO10m10BOND_ETHANE-AC
# h[nm],U(h)[kJ/mol]
0.200000000000000011,75.515051470269440870
0.201000000000000012,74.327249288262095206
0.202000000000000013,73.233770431898292941
0.203000000000000014,72.184815610601802405
0.204000000000000015,71.151440321426264290
0.205000000000000016,70.118619233038117500
0.206000000000000016,69.080241234820917384
0.207000000000000017,68.035570569978915501
0.208000000000000018,66.986807852587389789
0.209000000000000019,65.937464769824785549
0.210000000000000020,64.891330851130945234
0.211000000000000021,63.851862432594302277
0.212000000000000022,62.821865091309554430
0.213000000000000023,61.803373279500945614
0.214000000000000024,60.797656267725130874
0.215000000000000024,59.805299166917407661
0.216000000000000025,58.826322870336355209
0.217000000000000026,57.860318172947245330
0.218000000000000027,56.906577854658074500
0.219000000000000028,55.964216780712391142
0.220000000000000029,55.032274584097550019
0.221000000000000030,54.109798658470843691
0.222000000000000031,53.195907331077066260
0.223000000000000032,52.289834461059797377
0.224000000000000032,51.390957521830785026
0.225000000000000033,50.498811634287449124
0.226000000000000034,49.613092142008710539
0.227000000000000035,48.733648252523749989
0.228000000000000036,47.860470079715028646
0.229000000000000037,46.993671162629873095
0.230000000000000038,46.133468242490820899
0.231000000000000039,45.280159778592484088
0.232000000000000040,44.434104392736230693
0.233000000000000040,43.595700162216601825
0.234000000000000041,42.765365439754340571
0.235000000000000042,41.943521668349980303
0.236000000000000043,41.130578480544741637
0.237000000000000044,40.326921224076947681
0.238000000000000045,39.532900937376837192
0.239000000000000046,38.748826706052476254
0.240000000000000047,37.974960262451070037
0.241000000000000048,37.211512641400297241
0.242000000000000048,36.458642673261621781
0.243000000000000049,35.716457077549065957
0.244000000000000050,34.985011913910952330
0.245000000000000051,34.264315149821314321
0.246000000000000052,33.554330113776693167
0.247000000000000053,32.854979617298724293
0.248000000000000054,32.166150547054904507
0.249000000000000055,31.487698748628559997
0.250000000000000056,30.819454044829786454
0.251000000000000056,30.161225253091412668
0.252000000000000057,29.512805087769358181
0.253000000000000058,28.873974853559587928
0.254000000000000059,28.244508855384481194
0.255000000000000060,27.624178467736509646
0.256000000000000061,27.012755822439334707
0.257000000000000062,26.410017088014619446
0.258000000000000063,25.815745326310945984
0.259000000000000064,25.229732922788297600
0.260000000000000064,24.651783595927231119
0.261000000000000065,24.081713998740010396
0.262000000000000066,23.519354931414255816
0.263000000000000067,22.964552188845317460
0.264000000000000068,22.417167070340951796
0.265000000000000069,21.877076581244178755
0.266000000000000070,21.344173357750655384
0.267000000000000071,20.818365346918479730
0.268000000000000071,20.299575273905411166
0.269000000000000072,19.787739927929841599
0.270000000000000073,19.282809297443414209
0.271000000000000074,18.784745583618708054
0.272000000000000075,18.293522119579012752
0.273000000000000076,17.809122220906072442
0.274000000000000077,17.331537990920971026
0.275000000000000078,16.860769102101350825
0.276000000000000079,16.396821572825047042
0.277000000000000079,15.939706556456286535
0.278000000000000080,15.489439157653388079
0.279000000000000081,15.046037288701956669
0.280000000000000082,14.609520576690474769
0.281000000000000083,14.179909330461288874
0.282000000000000084,13.757223574504177321
0.283000000000000085,13.341482155320324665
0.284000000000000086,12.932701924276486238
0.285000000000000087,12.530896999597771924
0.286000000000000087,12.136078108909782003
0.287000000000000088,11.748252012637802721
0.288000000000000089,11.367421007597458882
0.289000000000000090,10.993582509263196911
0.290000000000000091,10.626728710473027917
0.291000000000000092,10.266846313711699423
0.292000000000000093,9.913916333605190090
0.293000000000000094,9.567913965847157698
0.294000000000000095,9.228808518456796506
0.295000000000000095,8.896563401027771434
0.296000000000000096,8.571136167464169731
0.297000000000000097,8.252478607601325677
0.298000000000000098,7.940536883072081942
0.299000000000000099,7.635251702793439676
0.300000000000000100,7.336558533509659696
0.301000000000000101,7.044387840927482713
0.302000000000000102,6.758665357113630812
0.303000000000000103,6.479312369985516185
0.304000000000000103,6.206246030911783507
0.305000000000000104,5.939379676641571848
0.306000000000000105,5.678623161998673119
0.307000000000000106,5.423883200003865923
0.308000000000000107,5.175063706322494461
0.309000000000000108,4.932066145172124827
0.310000000000000109,4.694789874063120649
0.311000000000000110,4.463132484982814674
0.312000000000000111,4.236990139866603222
0.313000000000000111,4.016257898428459150
0.314000000000000112,3.800830036644575749
0.315000000000000113,3.590600354397658123
0.316000000000000114,3.385462470994158313
0.317000000000000115,3.185310107461828188
0.318000000000000116,2.990037354719540907
0.319000000000000117,2.799538926885398293
0.320000000000000118,2.613710399152000097
0.321000000000000119,2.432448429809272117
0.322000000000000119,2.255650966135883895
0.323000000000000120,2.083217434009658753
0.324000000000000121,1.915048911205350590
0.325000000000000122,1.751048284456021120
0.326000000000000123,1.591120390451237654
0.327000000000000124,1.435172141032291737
0.328000000000000125,1.283112632921804108
0.329000000000000126,1.134853242393309092
0.330000000000000127,0.990307705345264466
0.331000000000000127,0.849392183294981562
0.332000000000000128,0.712025315850757012
0.333000000000000129,0.578128260256023929
0.334000000000000130,0.447624718628114870
0.335000000000000131,0.320440953536229034
0.336000000000000132,0.196505792579900251
0.337000000000000133,0.075750622639838255
0.338000000000000134,-0.041890625521042682
0.339000000000000135,-0.156481501626846153
0.340000000000000135,-0.268083068551908554
0.341000000000000136,-0.376753942607640613
0.342000000000000137,-0.482550340792632038
0.343000000000000138,-0.585526134358039130
0.344000000000000139,-0.685732908055760815
0.345000000000000140,-0.783220024453965435
0.346000000000000141,-0.878034692724104282
0.347000000000000142,-0.970222041324316664
0.348000000000000143,-1.059825194026526196
0.349000000000000143,-1.146885348757780809
0.350000000000000144,-1.231441858750740304
0.351000000000000145,-1.313532315522865757
0.352000000000000146,-1.393192633229411781
0.353000000000000147,-1.470457133960636043
0.354000000000000148,-1.545358633579450691
0.355000000000000149,-1.617928527721259613
0.356000000000000150,-1.688196877603110435
0.357000000000000151,-1.756192495314440993
0.358000000000000151,-1.821943028286356236
0.359000000000000152,-1.885475042660491596
0.360000000000000153,-1.946814105302315578
0.361000000000000154,-2.005984864226364461
0.362000000000000155,-2.063011127223417063
0.363000000000000156,-2.117915938500948947
0.364000000000000157,-2.170721653168807386
0.365000000000000158,-2.221450009422162530
0.366000000000000159,-2.270122198292342297
0.367000000000000159,-2.316758930854691645
0.368000000000000160,-2.361380502799514058
0.369000000000000161,-2.404006856288577687
0.370000000000000162,-2.444657639035140217
0.371000000000000163,-2.483352260559894553
0.372000000000000164,-2.520109945588944189
0.373000000000000165,-2.554949784572687399
0.374000000000000166,-2.587890781316522837
0.375000000000000167,-2.618951897725104949
0.376000000000000167,-2.648152095672542394
0.377000000000000168,-2.675510376020128867
0.378000000000000169,-2.701045814811982915
0.379000000000000170,-2.724777596687026460
0.380000000000000171,-2.746725045552914857
0.381000000000000172,-2.766907652574071452
0.382000000000000173,-2.785345101531925938
0.383000000000000174,-2.802057291620760893
0.384000000000000175,-2.817064357747133041
0.385000000000000175,-2.830386688404974205
0.386000000000000176,-2.842044941202129582
0.387000000000000177,-2.852060056116828335
0.388000000000000178,-2.860453266565547548
0.389000000000000179,-2.867246108365342216
0.390000000000000180,-2.872460426675746525
0.391000000000000181,-2.876118381006391722
0.392000000000000182,-2.878242448377369200
0.393000000000000183,-2.878855424719967804
0.394000000000000183,-2.877980424605492971
0.395000000000000184,-2.875640879389854021
0.396000000000000185,-2.871860533861124942
0.397000000000000186,-2.866663441476693830
0.398000000000000187,-2.860073958275700878
0.399000000000000188,-2.852116735551379456
0.400000000000000189,-2.842816711366574101
0.401000000000000190,-2.832199100994285956
0.402000000000000191,-2.820289386363497908
0.403000000000000191,-2.807113304588601199
0.404000000000000192,-2.792696835659109311
0.405000000000000193,-2.777066189364064019
0.406000000000000194,-2.760247791523672944
0.407000000000000195,-2.742268269598438390
0.408000000000000196,-2.723154437743755540
0.409000000000000197,-2.702933281375747399
0.410000000000000198,-2.681631941311787948
0.411000000000000199,-2.659277697546595043
0.412000000000000199,-2.635897952722657145
0.413000000000000200,-2.611520215351098351
0.414000000000000201,-2.586172082836880382
0.415000000000000202,-2.559881224359608076
0.416000000000000203,-2.532675363659031564
0.417000000000000204,-2.504582261771734597
0.418000000000000205,-2.475629699763302050
0.419000000000000206,-2.445845461497847317
0.420000000000000207,-2.415257316484395567
0.421000000000000207,-2.383893002837599973
0.422000000000000208,-2.351780210387647063
0.423000000000000209,-2.318946563972476227
0.424000000000000210,-2.285419606942936888
0.425000000000000211,-2.251226784909582612
0.426000000000000212,-2.216395429757808344
0.427000000000000213,-2.180952743955916873
0.428000000000000214,-2.144925785178955824
0.429000000000000214,-2.108341451269129418
0.430000000000000215,-2.071226465551908369
0.431000000000000216,-2.033607362525232443
0.432000000000000217,-1.995510473937359919
0.433000000000000218,-1.956961915267489527
0.434000000000000219,-1.917987572621606018
0.435000000000000220,-1.878613090054563228
0.436000000000000221,-1.838863857327919904
0.437000000000000222,-1.798764998111701985
0.438000000000000222,-1.758341358637000695
0.439000000000000223,-1.717617496804954014
0.440000000000000224,-1.676617671756583050
0.441000000000000225,-1.635365833906646360
0.442000000000000226,-1.593885615443877413
0.443000000000000227,-1.552200321298582653
0.444000000000000228,-1.510332920577953431
0.445000000000000229,-1.468306038468293995
0.446000000000000230,-1.426141948602572374
0.447000000000000230,-1.383862565891002872
0.448000000000000231,-1.341489439811414330
0.449000000000000232,-1.299043748155539912
0.450000000000000233,-1.256546291226823486
0.451000000000000234,-1.214017486484409325
0.452000000000000235,-1.171477363627785540
0.453000000000000236,-1.128945560115651059
0.454000000000000237,-1.086441317112425864
0.455000000000000238,-1.043983475855067677
0.456000000000000238,-1.001590474432696887
0.457000000000000239,-0.959280344970967036
0.458000000000000240,-0.917070711212953915
0.459000000000000241,-0.874978786487786708
0.460000000000000242,-0.833021372058322385
0.461000000000000243,-0.791214855838511033
0.462000000000000244,-0.749575211471325109
0.463000000000000245,-0.708117997757445883
0.464000000000000246,-0.666858358425299835
0.465000000000000246,-0.625811022232432235
0.466000000000000247,-0.584990303388353228
0.467000000000000248,-0.544410102288844344
0.468000000000000249,-0.504083906551690775
0.469000000000000250,-0.464024792343671222
0.470000000000000251,-0.424245425988742764
0.471000000000000252,-0.384758065847219999
0.472000000000000253,-0.345574564455955635
0.473000000000000254,-0.306706370919316129
0.474000000000000254,-0.268164533541033145
0.475000000000000255,-0.229959702686907436
0.476000000000000256,-0.192102133868503028
0.477000000000000257,-0.154601691038061956
0.478000000000000258,-0.117467850084878173
0.479000000000000259,-0.080709702523639293
0.480000000000000260,-0.044335959365219925
0.481000000000000261,-0.008354955160588595
0.482000000000000262,0.027225347791296529
0.483000000000000262,0.062397355080681650
0.484000000000000263,0.097153835678205638
0.485000000000000264,0.131487917288747591
0.486000000000000265,0.165393081576533568
0.487000000000000266,0.198863159269882017
0.488000000000000267,0.231892325153784384
0.489000000000000268,0.264475092958333602
0.490000000000000269,0.296606310150904329
0.491000000000000270,0.328281152639647966
0.492000000000000270,0.359495119395883300
0.493000000000000271,0.390244027002557115
0.494000000000000272,0.420524004135917728
0.495000000000000273,0.450331485987314539
0.496000000000000274,0.479663208631729732
0.497000000000000275,0.508516203349664297
0.498000000000000276,0.536887790908588625
0.499000000000000277,0.564775575810115837
0.500000000000000222,0.592177440508844910
0.501000000000000334,0.619091539608532804
0.502000000000000224,0.645516294041171834
0.503000000000000336,0.671450385234359404
0.504000000000000226,0.696892749271987855
0.505000000000000338,0.721842571053421755
0.506000000000000227,0.746299278455697879
0.507000000000000339,0.770262536503610873
0.508000000000000229,0.793732241551878159
0.509000000000000341,0.816708515483821396
0.510000000000000231,0.839191699930418755
0.511000000000000343,0.861182350513863604
0.512000000000000233,0.882681231119136100
0.513000000000000345,0.903689308197318519
0.514000000000000234,0.924207745103868161
0.515000000000000346,0.944237896475303318
0.516000000000000236,0.963781302647153781
0.517000000000000348,0.982839684116262213
0.518000000000000238,1.001414936050096793
0.519000000000000350,1.019509122845792870
0.520000000000000240,1.037124472741316694
0.521000000000000352,1.054263372481131000
0.522000000000000242,1.070928362038564341
0.523000000000000353,1.087122129396940196
0.524000000000000243,1.102847505391402416
0.525000000000000355,1.118107458613246230
0.526000000000000245,1.132905090378431900
0.527000000000000357,1.147243629761881101
0.528000000000000247,1.161126428698937785
0.529000000000000359,1.174556957155415082
0.530000000000000249,1.187538798367370863
0.531000000000000361,1.200075644151791909
0.532000000000000250,1.212171290289161041
0.533000000000000362,1.223829631978861077
0.534000000000000252,1.235054659368206575
0.535000000000000364,1.245850453155842752
0.536000000000000254,1.256221180270131521
0.537000000000000366,1.266171089623128632
0.538000000000000256,1.275704507940522703
0.539000000000000368,1.284825835668035987
0.540000000000000258,1.293539542954476929
0.541000000000000369,1.301850165711797569
0.542000000000000259,1.309762301752201763
0.543000000000000371,1.317280607002488502
0.544000000000000261,1.324409791795603919
0.545000000000000373,1.331154617239383109
0.546000000000000263,1.337519891662372951
0.547000000000000375,1.343510467136615594
0.548000000000000265,1.349131236077109719
0.549000000000000377,1.354387127917771494
0.550000000000000266,1.359283105863511754
0.551000000000000378,1.363824163718093896
0.552000000000000268,1.368015322787382804
0.553000000000000380,1.371861628857484527
0.554000000000000270,1.375368149247320648
0.555000000000000382,1.378539969935108189
0.556000000000000272,1.381382192758121574
0.557000000000000384,1.383899932685227041
0.558000000000000274,1.386098315161432337
0.559000000000000385,1.387982473523902360
0.560000000000000275,1.389557546488644046
0.561000000000000387,1.390828675707191042
0.562000000000000277,1.391801003392541425
0.563000000000000389,1.392479670013518467
0.564000000000000279,1.392869812056821255
0.565000000000000391,1.392976559855905183
0.566000000000000281,1.392805035485883636
0.567000000000000393,1.392360350723565787
0.568000000000000282,1.391647605071786087
0.569000000000000394,1.390671883847125034
0.570000000000000284,1.389438256330146837
0.571000000000000396,1.387951773977196712
0.572000000000000286,1.386217468692875210
0.573000000000000398,1.384240351162260962
0.574000000000000288,1.382025409241921299
0.575000000000000400,1.379577606408747048
0.576000000000000290,1.376901880265735123
0.577000000000000401,1.374003141103654624
0.578000000000000291,1.370886270517726269
0.579000000000000403,1.367556120078290416
0.580000000000000293,1.364017510054537530
0.581000000000000405,1.360275228190280794
0.582000000000000295,1.356334028530868041
0.583000000000000407,1.352198630300189830
0.584000000000000297,1.347873716826891499
0.585000000000000409,1.343363934518736702
0.586000000000000298,1.338673891884259559
0.587000000000000410,1.333808158600619631
0.588000000000000300,1.328771264626836368
0.589000000000000412,1.323567699361331673
0.590000000000000302,1.318201910842933033
0.591000000000000414,1.312678304994271405
0.592000000000000304,1.307001244906792703
0.593000000000000416,1.301175050166307523
0.594000000000000306,1.295203996218235787
0.595000000000000417,1.289092313771601273
0.596000000000000307,1.282844188240900518
0.597000000000000419,1.276463759224876870
0.598000000000000309,1.269955120021365236
0.599000000000000421,1.263322317177328458
0.600000000000000311,1.256569350073155622
0.601000000000000423,1.249700170540395838
0.602000000000000313,1.242718682512083506
0.603000000000000425,1.235628741704769329
0.604000000000000314,1.228434155331447064
0.605000000000000426,1.221138681844544660
0.606000000000000316,1.213746030708172219
0.607000000000000428,1.206259862198798105
0.608000000000000318,1.198683787233592479
0.609000000000000430,1.191021367225619132
0.610000000000000320,1.183276113965151310
0.611000000000000432,1.175451489526281090
0.612000000000000322,1.167550906198168592
0.613000000000000433,1.159577726440087941
0.614000000000000323,1.151535262859637587
0.615000000000000435,1.143426778213316952
0.616000000000000325,1.135255485428855682
0.617000000000000437,1.127024547648515229
0.618000000000000327,1.118737078292741272
0.619000000000000439,1.110396141143485504
0.620000000000000329,1.102004750446534231
0.621000000000000441,1.093565871032184500
0.622000000000000330,1.085082418453688913
0.623000000000000442,1.076557259142758793
0.624000000000000332,1.067993210581633434
0.625000000000000444,1.059393041490978016
0.626000000000000334,1.050759472033167885
0.627000000000000446,1.042095174030257754
0.628000000000000336,1.033402771196169301
0.629000000000000448,1.024684839382467683
0.630000000000000338,1.015943906837267319
0.631000000000000449,1.007182454476631683
0.632000000000000339,0.998402916168076304
0.633000000000000451,0.989607679025540810
0.634000000000000341,0.980799083715448106
0.635000000000000453,0.971979424773239620
0.636000000000000343,0.963150950930073635
0.637000000000000455,0.954315865449036016
0.638000000000000345,0.945476326470582329
0.639000000000000457,0.936634447366635370
0.640000000000000346,0.927792297103001040
0.641000000000000458,0.918951900609603856
0.642000000000000348,0.910115239158202582
0.643000000000000460,0.901284250747102389
0.644000000000000350,0.892460830492567858
0.645000000000000462,0.883646831026438484
0.646000000000000352,0.874844062899702068
0.647000000000000464,0.866054294991532969
0.648000000000000353,0.857279254923562606
0.649000000000000465,0.848520629478915489
0.650000000000000355,0.839780065025806488
0.651000000000000467,0.831059167945239707
0.652000000000000357,0.822359505062599028
0.653000000000000469,0.813682604082747618
0.654000000000000359,0.805029954028379180
0.655000000000000471,0.796403005681306619
0.656000000000000361,0.787803172026414922
0.657000000000000473,0.779231828697982687
0.658000000000000362,0.770690314428133849
0.659000000000000474,0.762179931497136920
0.660000000000000364,0.753701946185309390
0.661000000000000476,0.745257589226261175
0.662000000000000366,0.736848056261291795
0.663000000000000478,0.728474508294631340
0.664000000000000368,0.720138072149396291
0.665000000000000480,0.711839840923943923
0.666000000000000369,0.703580874448514360
0.667000000000000481,0.695362199741869080
0.668000000000000371,0.687184811467813850
