# ZnO10m10BOND_BUTENE2-AC
# h[nm],U(h)[kJ/mol]
0.200000000000000011,66.413992497860803610
0.201000000000000012,65.604314963104073399
0.202000000000000013,64.630456780845733533
0.203000000000000014,63.587464994420983544
0.204000000000000015,62.526732277075382171
0.205000000000000016,61.473024446890029537
0.206000000000000016,60.435714931456139709
0.207000000000000017,59.415990971899432793
0.208000000000000018,58.411303997479613770
0.209000000000000019,57.417972394965048011
0.210000000000000020,56.432577251129416140
0.211000000000000021,55.452596437026045351
0.212000000000000022,54.476581261553079116
0.213000000000000023,53.504078912407329938
0.214000000000000024,52.535432489877983642
0.215000000000000024,51.571540693206273431
0.216000000000000025,50.613625199805028387
0.217000000000000026,49.663031058006218643
0.218000000000000027,48.721070716081982255
0.219000000000000028,47.788913223549414511
0.220000000000000029,46.867514907172036942
0.221000000000000030,45.957585173813200186
0.222000000000000031,45.059580118818317374
0.223000000000000032,44.173716683800705596
0.224000000000000032,43.300000770349662105
0.225000000000000033,42.438263678121394662
0.226000000000000034,41.588202301714211728
0.227000000000000035,40.749419568344592335
0.228000000000000036,39.921462556221399609
0.229000000000000037,39.103856565038611848
0.230000000000000038,38.296134101652199888
0.231000000000000039,37.497858296983395121
0.232000000000000040,36.708640694544158123
0.233000000000000040,35.928153661509931283
0.234000000000000041,35.156137886759907474
0.235000000000000042,34.392405563762437737
0.236000000000000043,33.636839925676426333
0.237000000000000044,32.889391820105316810
0.238000000000000045,32.150073994250405462
0.239000000000000046,31.418953718514792683
0.240000000000000047,30.696144316763799509
0.241000000000000048,29.981796101582290248
0.242000000000000048,29.276087138552504996
0.243000000000000049,28.579214189030967219
0.244000000000000050,27.891384109218499532
0.245000000000000051,27.212805916622858859
0.246000000000000052,26.543683674688178797
0.247000000000000053,25.884210293167217998
0.248000000000000054,25.234562296036351370
0.249000000000000055,24.594895570342249158
0.250000000000000056,23.965342078006148796
0.251000000000000056,23.346007487808996927
0.252000000000000057,22.736969665937206031
0.253000000000000058,22.138277949923804044
0.254000000000000059,21.549953121889195984
0.255000000000000060,20.971987991995142409
0.256000000000000061,20.404348501326701637
0.257000000000000062,19.846975254404917166
0.258000000000000063,19.299785394655355475
0.259000000000000064,18.762674740918054539
0.260000000000000064,18.235520109044930592
0.261000000000000065,17.718181749414632975
0.262000000000000066,17.210505838475455676
0.263000000000000067,16.712326969938779087
0.264000000000000068,16.223470598763217509
0.265000000000000069,15.743755398417718538
0.266000000000000070,15.272995498951852156
0.267000000000000071,14.811002580028102216
0.268000000000000071,14.357587799212058854
0.269000000000000072,13.912563541421343771
0.270000000000000073,13.475744980476601853
0.271000000000000074,13.046951448168067955
0.272000000000000075,12.626007610152894856
0.273000000000000076,12.212744451348592989
0.274000000000000077,11.807000076309901004
0.275000000000000078,11.408620332402223951
0.276000000000000079,11.017459265449515371
0.277000000000000079,10.633379418975904329
0.278000000000000080,10.256251989220571019
0.279000000000000081,9.885956848821503939
0.280000000000000082,9.522382452479172699
0.281000000000000083,9.165425638061602598
0.282000000000000084,8.814991336537035593
0.283000000000000085,8.470992203853162650
0.284000000000000086,8.133348187454719991
0.285000000000000087,7.801986039576180865
0.286000000000000087,7.476838788787778967
0.287000000000000088,7.157845180538257246
0.288000000000000089,6.844949096646914199
0.289000000000000090,6.538098962870816599
0.290000000000000091,6.237247152827736230
0.291000000000000092,5.942349395704718873
0.292000000000000093,5.653364194340463555
0.293000000000000094,5.370252259445948084
0.294000000000000095,5.092975964931441446
0.295000000000000095,4.821498828545040638
0.296000000000000096,4.555785021305383431
0.297000000000000097,4.295798908531106797
0.298000000000000098,4.041504624636816700
0.299000000000000099,3.792865683280012057
0.300000000000000100,3.549844623907962848
0.301000000000000101,3.312402695266522645
0.302000000000000102,3.080499575995863548
0.303000000000000103,2.854093132047261783
0.304000000000000103,2.633139210312224865
0.305000000000000104,2.417591467555345375
0.306000000000000105,2.207401233485398961
0.307000000000000106,2.002517406582051684
0.308000000000000107,1.802886381115516912
0.309000000000000108,1.608452003651722917
0.310000000000000109,1.419155557222129271
0.311000000000000110,1.234935771254530135
0.312000000000000111,1.055728855303609937
0.313000000000000111,0.881468554588295539
0.314000000000000112,0.712086225331700851
0.315000000000000113,0.547510927908161582
0.316000000000000114,0.387669535827213751
0.317000000000000115,0.232486858624769560
0.318000000000000116,0.081885776784583447
0.319000000000000117,-0.064212613123055817
0.320000000000000118,-0.205888844825676737
0.321000000000000119,-0.343224921916413073
0.322000000000000119,-0.476304152179562124
0.323000000000000120,-0.605210978157920687
0.324000000000000121,-0.730030805352817169
0.325000000000000122,-0.850849829352024800
0.326000000000000123,-0.967754863084513084
0.327000000000000124,-1.080833165304525556
0.328000000000000125,-1.190172271311855656
0.329000000000000126,-1.295859826820736860
0.330000000000000127,-1.397983425797737267
0.331000000000000127,-1.496630452999212935
0.332000000000000128,-1.591887931852264293
0.333000000000000129,-1.683842378239790438
0.334000000000000130,-1.772579660670392965
0.335000000000000131,-1.858184867238333426
0.336000000000000132,-1.940742179706457904
0.337000000000000133,-2.020334754977713754
0.338000000000000134,-2.097044614157310249
0.339000000000000135,-2.170952539348088628
0.340000000000000135,-2.242137978267153109
0.341000000000000136,-2.310678956720606969
0.342000000000000137,-2.376651998926835319
0.343000000000000138,-2.440132055636037745
0.344000000000000139,-2.501192439955225666
0.345000000000000140,-2.559904770752875258
0.346000000000000141,-2.616338923486401846
0.347000000000000142,-2.670562988267827897
0.348000000000000143,-2.722643234958937786
0.349000000000000143,-2.772644085065906872
0.350000000000000144,-2.820628090185533843
0.351000000000000145,-2.866655916739808241
0.352000000000000146,-2.910786336723229617
0.353000000000000147,-2.953076224177087372
0.354000000000000148,-2.993580557097375028
0.355000000000000149,-3.032352424477400721
0.356000000000000150,-3.069443038182703365
0.357000000000000151,-3.104901749354140428
0.358000000000000151,-3.138776069035083438
0.359000000000000152,-3.171111692720062880
0.360000000000000153,-3.201952528525353614
0.361000000000000154,-3.231340728685797359
0.362000000000000155,-3.259316724087764960
0.363000000000000156,-3.285919261554184345
0.364000000000000157,-3.311185443604707679
0.365000000000000158,-3.335150770422136812
0.366000000000000159,-3.357849183764392453
0.367000000000000159,-3.379313112570708544
0.368000000000000160,-3.399573520020017448
0.369000000000000161,-3.418659951809456921
0.370000000000000162,-3.436600585431047072
0.371000000000000163,-3.453422280234998532
0.372000000000000164,-3.469150628078535359
0.373000000000000165,-3.483810004369817026
0.374000000000000166,-3.497423619327123756
0.375000000000000167,-3.510013569283915391
0.376000000000000167,-3.521600887881156439
0.377000000000000168,-3.532205596998440278
0.378000000000000169,-3.541846757285799008
0.379000000000000170,-3.550542518168148920
0.380000000000000171,-3.558310167204083108
0.381000000000000172,-3.565166178690384324
0.382000000000000173,-3.571126261412846503
0.383000000000000174,-3.576205405453213526
0.384000000000000175,-3.580417927970575676
0.385000000000000175,-3.583777517884095154
0.386000000000000176,-3.586297279392099746
0.387000000000000177,-3.587989774270138099
0.388000000000000178,-3.588867062898343896
0.389000000000000179,-3.588940743975170822
0.390000000000000180,-3.588221992881675426
0.391000000000000181,-3.586721598666684052
0.392000000000000182,-3.584449999629364392
0.393000000000000183,-3.581417317481399465
0.394000000000000183,-3.577633390076420561
0.395000000000000184,-3.573107802699372115
0.396000000000000185,-3.567849917913236801
0.397000000000000186,-3.561868903964993560
0.398000000000000187,-3.555173761756809547
0.399000000000000188,-3.547773350392284808
0.400000000000000189,-3.539676411311042159
0.401000000000000190,-3.530891591028340937
0.402000000000000191,-3.521427462499234995
0.403000000000000191,-3.511292545129565124
0.404000000000000192,-3.500495323458592711
0.405000000000000193,-3.489044264540165585
0.406000000000000194,-3.476947834051485220
0.407000000000000195,-3.464214511160146337
0.408000000000000196,-3.450852802181771928
0.409000000000000197,-3.436871253061875908
0.410000000000000198,-3.422278460716861481
0.411000000000000199,-3.407083083269834223
0.412000000000000199,-3.391293849217992040
0.413000000000000200,-3.374919565568794244
0.414000000000000201,-3.357969124982774112
0.415000000000000202,-3.340451511961082698
0.416000000000000203,-3.322375808116230900
0.417000000000000204,-3.303751196564489678
0.418000000000000205,-3.284586965478438092
0.419000000000000206,-3.264892510838121265
0.420000000000000207,-3.244677338418845203
0.421000000000000207,-3.223951065053677123
0.422000000000000208,-3.202723419207902822
0.423000000000000209,-3.181004240902680635
0.424000000000000210,-3.158803481024243354
0.425000000000000211,-3.136131200054542933
0.426000000000000212,-3.112997566258679072
0.427000000000000213,-3.089412853363483258
0.428000000000000214,-3.065387437761203593
0.429000000000000214,-3.040931795271143656
0.430000000000000215,-3.016056497491490074
0.431000000000000216,-2.990772207772650404
0.432000000000000217,-2.965089676842460165
0.433000000000000218,-2.939019738112826019
0.434000000000000219,-2.912573302696386257
0.435000000000000220,-2.885761354160875758
0.436000000000000221,-2.858594943047878978
0.437000000000000222,-2.831085181181725030
0.438000000000000222,-2.803243235793381860
0.439000000000000223,-2.775080323483148703
0.440000000000000224,-2.746607704045054277
0.441000000000000225,-2.717836674174856082
0.442000000000000226,-2.688778561082725282
0.443000000000000227,-2.659444716030526568
0.444000000000000228,-2.629846507812931833
0.445000000000000229,-2.599995316200507833
0.446000000000000230,-2.569902525362031120
0.447000000000000230,-2.539579517282555710
0.448000000000000231,-2.509037665192638489
0.449000000000000232,-2.478288327023428828
0.450000000000000233,-2.447342838901522377
0.451000000000000234,-2.416212508696470529
0.452000000000000235,-2.384908609633278331
0.453000000000000236,-2.353442373981187608
0.454000000000000237,-2.321824986829570392
0.455000000000000238,-2.290067579960703092
0.456000000000000238,-2.258181225828765459
0.457000000000000239,-2.226176931653486513
0.458000000000000240,-2.194065633636379964
0.459000000000000241,-2.161858191306627930
0.460000000000000242,-2.129565382003358653
0.461000000000000243,-2.097197895500088727
0.462000000000000244,-2.064766328776914683
0.463000000000000245,-2.032281180945025412
0.464000000000000246,-1.999752848328071764
0.465000000000000246,-1.967191619703964944
0.466000000000000247,-1.934607671710457000
0.467000000000000248,-1.902011064417266084
0.468000000000000249,-1.869411737067116608
0.469000000000000250,-1.836819503987561886
0.470000000000000251,-1.804244050675128275
0.471000000000000252,-1.771694930052809980
0.472000000000000253,-1.739181558901779834
0.473000000000000254,-1.706713214467536543
0.474000000000000254,-1.674299031240668700
0.475000000000000255,-1.641947997911866297
0.476000000000000256,-1.609668954500679039
0.477000000000000257,-1.577470589657153033
0.478000000000000258,-1.545361438135196774
0.479000000000000259,-1.513349878436381246
0.480000000000000260,-1.481444130622546096
0.481000000000000261,-1.449652254295380471
0.482000000000000262,-1.417982146741032512
0.483000000000000262,-1.386441541237516617
0.484000000000000263,-1.355038005522530842
0.485000000000000264,-1.323778940419212846
0.486000000000000265,-1.292671578617121453
0.487000000000000266,-1.261722983605634951
0.488000000000000267,-1.230940048756859140
0.489000000000000268,-1.200329496555015751
0.490000000000000269,-1.169897877969112043
0.491000000000000270,-1.139651571965764720
0.492000000000000270,-1.109596785158754040
0.493000000000000271,-1.079739551592042490
0.494000000000000272,-1.050085732652766390
0.495000000000000273,-1.020641017110690330
0.496000000000000274,-0.991410921280690638
0.497000000000000275,-0.962400789304591164
0.498000000000000276,-0.933615793548847384
0.499000000000000277,-0.905060935114447185
0.500000000000000222,-0.876741044455356056
0.501000000000000334,-0.848660782101966382
0.502000000000000224,-0.820824639485865815
0.503000000000000336,-0.793236939862276502
0.504000000000000226,-0.765901839326656342
0.505000000000000338,-0.738823327921706019
0.506000000000000227,-0.712005230831402658
0.507000000000000339,-0.685451209658300753
0.508000000000000229,-0.659164763780769269
0.509000000000000341,-0.633149231786494071
0.510000000000000231,-0.607407792979011929
0.511000000000000343,-0.581943468953613929
0.512000000000000233,-0.556759125239479014
0.513000000000000345,-0.531857473004527015
0.514000000000000234,-0.507241070819926421
0.515000000000000346,-0.482912326480766374
0.516000000000000236,-0.458873498880013220
0.517000000000000348,-0.435126699932400052
0.518000000000000238,-0.411673896545375229
0.519000000000000350,-0.388516912633961820
0.520000000000000240,-0.365657431176712400
0.521000000000000352,-0.343096996309819269
0.522000000000000242,-0.320837015456594543
0.523000000000000353,-0.298878761489544842
0.524000000000000243,-0.277223374922395571
0.525000000000000355,-0.255871866129406378
0.526000000000000245,-0.234825117589477911
0.527000000000000357,-0.214083886152475061
0.528000000000000247,-0.193648805325465800
0.529000000000000359,-0.173520387576388851
0.530000000000000249,-0.153699026652986903
0.531000000000000361,-0.134184999914676750
0.532000000000000250,-0.114978470675296401
0.533000000000000362,-0.096079490554547689
0.534000000000000252,-0.077488001836188744
0.535000000000000364,-0.059203839830959872
0.536000000000000254,-0.041226735242416289
0.537000000000000366,-0.023556316533722633
0.538000000000000256,-0.006192112293809571
0.539000000000000368,0.010866446398994844
0.540000000000000258,0.027620023617315182
0.541000000000000369,0.044069376230826365
0.542000000000000259,0.060215351559425354
0.543000000000000371,0.076058885035110504
0.544000000000000261,0.091600997873836604
0.545000000000000373,0.106842794758766013
0.546000000000000263,0.121785461536136314
0.547000000000000375,0.136430262925075013
0.548000000000000265,0.150778540242366837
0.549000000000000377,0.164831709143489297
0.550000000000000266,0.178591257380810331
0.551000000000000378,0.192058742580073410
0.552000000000000268,0.205235790036077365
0.553000000000000380,0.218124090528488523
0.554000000000000270,0.230725398158614203
0.555000000000000382,0.243041528208026103
0.556000000000000272,0.255074355019686172
0.557000000000000384,0.266825809902449529
0.558000000000000274,0.278297879059458519
0.559000000000000385,0.289492601541225691
0.560000000000000275,0.300412067223861046
0.561000000000000387,0.311058414813095374
0.562000000000000277,0.321433829874569477
0.563000000000000389,0.331540542890868928
0.564000000000000279,0.341380827345740268
0.565000000000000391,0.350956997835907170
0.566000000000000281,0.360271408210830313
0.567000000000000393,0.369326449740762564
0.568000000000000282,0.378124549313358260
0.569000000000000394,0.386668167659176498
0.570000000000000284,0.394959797606222573
0.571000000000000396,0.403001962363811195
0.572000000000000286,0.410797213835850716
0.573000000000000398,0.418348130963792086
0.574000000000000288,0.425657318099264603
0.575000000000000400,0.432727403406542699
0.576000000000000290,0.439561037294921131
0.577000000000000401,0.446160890881010630
0.578000000000000291,0.452529654480992805
0.579000000000000403,0.458670036132838965
0.580000000000000293,0.464584760148451514
0.581000000000000405,0.470276565695702087
0.582000000000000295,0.475748205410283453
0.583000000000000407,0.481002444037313404
0.584000000000000297,0.486042057102582081
0.585000000000000409,0.490869829613304609
0.586000000000000298,0.495488554788285351
0.587000000000000410,0.499901032817294311
0.588000000000000300,0.504110069649527981
0.589000000000000412,0.508118475810964032
0.590000000000000302,0.511929065250408599
0.591000000000000414,0.515544654214012743
0.592000000000000304,0.518968060148090715
0.593000000000000416,0.522202100629961419
0.594000000000000306,0.525249592326576198
0.595000000000000417,0.528113349980701030
0.596000000000000307,0.530796185424391886
0.597000000000000419,0.533300906619454840
0.598000000000000309,0.535630316724642341
0.599000000000000421,0.537787213189315105
0.600000000000000311,0.539774386873212553
0.601000000000000423,0.541594621192095449
0.602000000000000313,0.543250691288896137
0.603000000000000425,0.544745363230121682
0.604000000000000314,0.546081393227107026
0.605000000000000426,0.547261526881883120
0.606000000000000316,0.548288498457255802
0.607000000000000428,0.549165030170805313
0.608000000000000318,0.549893831512438536
0.609000000000000430,0.550477598585179750
0.610000000000000320,0.550919013468828322
0.611000000000000432,0.551220743606148145
0.612000000000000322,0.551385441211247995
0.613000000000000433,0.551415742699777667
0.614000000000000323,0.551314268140603359
0.615000000000000435,0.551083620728599510
0.616000000000000325,0.550726386278211799
0.617000000000000437,0.550245132737417153
0.618000000000000327,0.549642409721733172
0.619000000000000439,0.548920748067927788
0.620000000000000329,0.548082659407058914
0.621000000000000441,0.547130635756480022
0.622000000000000330,0.546067149130490814
0.623000000000000442,0.544894651169224975
0.624000000000000332,0.543615572785480450
0.625000000000000444,0.542232323829072826
0.626000000000000334,0.540747292768429810
0.627000000000000446,0.539162846389011574
0.628000000000000336,0.537481329508263550
0.629000000000000448,0.535705064706710310
0.630000000000000338,0.533836352074886777
0.631000000000000449,0.531877468975720302
0.632000000000000339,0.529830669822078937
0.633000000000000451,0.527698185869091896
0.634000000000000341,0.525482225020960092
0.635000000000000453,0.523184971651865727
0.636000000000000343,0.520808586440742127
0.637000000000000455,0.518355206219464626
0.638000000000000345,0.515826943834243212
0.639000000000000457,0.513225888019836818
0.640000000000000346,0.510554103286299021
0.641000000000000458,0.507813629817927770
0.642000000000000348,0.505006483384134341
0.643000000000000460,0.502134655261893492
0.644000000000000350,0.499200112169512544
0.645000000000000462,0.496204796211377641
0.646000000000000352,0.493150624833432083
0.647000000000000464,0.490039490789052568
0.648000000000000353,0.486873262115067817
0.649000000000000465,0.483653782117615727
0.650000000000000355,0.480382869367585452
0.651000000000000467,0.477062317705344519
0.652000000000000357,0.473693896254495150
0.653000000000000469,0.470279349444391925
0.654000000000000359,0.466820397041154078
0.655000000000000471,0.463318734186922598
0.656000000000000361,0.459776031447098610
0.657000000000000473,0.456193934865315842
0.658000000000000362,0.452574066025903221
0.659000000000000474,0.448918022123600491
0.660000000000000364,0.445227376040275513
0.661000000000000476,0.441503676428414704
0.662000000000000366,0.437748447801178109
0.663000000000000478,0.433963190628745443
0.664000000000000368,0.430149381440793621
0.665000000000000480,0.426308472934820770
0.666000000000000369,0.422441894090172798
