# ZnO10m10BOND_CS-10471-AC
# h[nm],U(h)[kJ/mol]
0.200000000000000011,72.844016190001028122
0.201000000000000012,72.147960811877311471
0.202000000000000013,70.995640975452914745
0.203000000000000014,69.633576725929771101
0.204000000000000015,68.203357885318553144
0.205000000000000016,66.779410508481788611
0.206000000000000016,65.394850891118380787
0.207000000000000017,64.058815748743711538
0.208000000000000018,62.767767901987326695
0.209000000000000019,61.512606738657453320
0.210000000000000020,60.282910384063747244
0.211000000000000021,59.069262062269139335
0.212000000000000022,57.864335827058411610
0.213000000000000023,56.663213014827633174
0.214000000000000024,55.463252255188209006
0.215000000000000024,54.263728768219195331
0.216000000000000025,53.065382381529708766
0.217000000000000026,51.869960166897399745
0.218000000000000027,50.679802740054469723
0.219000000000000028,49.497498510750588707
0.220000000000000029,48.325614090014013868
0.221000000000000030,47.166499113987597980
0.222000000000000031,46.022158053546107226
0.223000000000000032,44.894178775990170038
0.224000000000000032,43.783706719226955784
0.225000000000000033,42.691453823682230961
0.226000000000000034,41.617732347181913610
0.227000000000000035,40.562505022769826724
0.228000000000000036,39.525444481557983067
0.229000000000000037,38.505996306392908934
0.230000000000000038,37.503441419370751930
0.231000000000000039,36.516954689384533594
0.232000000000000040,35.545657654715988372
0.233000000000000040,34.588664088021360499
0.234000000000000041,33.645117796048410241
0.235000000000000042,32.714222559735929963
0.236000000000000043,31.795264500887338244
0.237000000000000044,30.887627429273493362
0.238000000000000045,29.990801898230881051
0.239000000000000046,29.104388795670171675
0.240000000000000047,28.228098337124983175
0.241000000000000048,27.361745322237034372
0.242000000000000048,26.505241477968134234
0.243000000000000049,25.658585650920503696
0.244000000000000050,24.821852535656983463
0.245000000000000051,23.995180542382932742
0.246000000000000052,23.178759320896052287
0.247000000000000053,22.372817372173720685
0.248000000000000054,21.577610097169312553
0.249000000000000055,20.793408556273949017
0.250000000000000056,20.020489143720563874
0.251000000000000056,19.259124319656979907
0.252000000000000057,18.509574488957799332
0.253000000000000058,17.772081070019844162
0.254000000000000059,17.046860758488261212
0.255000000000000060,16.334100959623420124
0.256000000000000061,15.633956338262203545
0.257000000000000062,14.946546416410757985
0.258000000000000063,14.271954134759223365
0.259000000000000064,13.610225285164904818
0.260000000000000064,12.961368715758926129
0.261000000000000065,12.325357208181269897
0.262000000000000066,11.702128926966967271
0.263000000000000067,11.091589343777389587
0.264000000000000068,10.493613543525730947
0.265000000000000069,9.908048825072478749
0.266000000000000070,9.334717515708234714
0.267000000000000071,8.773419925783263906
0.268000000000000071,8.223937377328685017
0.269000000000000072,7.686035248120330898
0.270000000000000073,7.159465980187073697
0.271000000000000074,6.643972009116029476
0.272000000000000075,6.139288577545618963
0.273000000000000076,5.645146402880707903
0.274000000000000077,5.161274175450478729
0.275000000000000078,4.687400869019471727
0.276000000000000079,4.223257850733547869
0.277000000000000079,3.768580782224108638
0.278000000000000080,3.323111307712821372
0.279000000000000081,2.886598528562834609
0.280000000000000082,2.458800266835194925
0.281000000000000083,2.039484123052252240
0.282000000000000084,1.628428335575500041
0.283000000000000085,1.225422450803177910
0.284000000000000086,0.830267814816801675
0.285000000000000087,0.442777898191714148
0.286000000000000087,0.062778466465495161
0.287000000000000088,-0.309892390733939316
0.288000000000000089,-0.675384358630592541
0.289000000000000090,-1.033835110984169248
0.290000000000000091,-1.385370625305962999
0.291000000000000092,-1.730105586670787732
0.292000000000000093,-2.068143867587898033
0.293000000000000094,-2.399579071897423255
0.294000000000000095,-2.724495131244839108
0.295000000000000095,-3.042966943336513630
0.296000000000000096,-3.355061041875482264
0.297000000000000097,-3.660836288805551675
0.298000000000000098,-3.960344580238351231
0.299000000000000099,-4.253631558192105366
0.300000000000000100,-4.540737321021135919
0.301000000000000101,-4.821697126155249258
0.302000000000000102,-5.096542079487927701
0.303000000000000103,-5.365299806450092746
0.304000000000000103,-5.627995100472647394
0.305000000000000104,-5.884650545176731029
0.306000000000000105,-6.135287107229965287
0.307000000000000106,-6.379924697369194320
0.308000000000000107,-6.618582697614120214
0.309000000000000108,-6.851280453180396357
0.310000000000000109,-7.078037728046540522
0.311000000000000110,-7.298875123534214637
0.312000000000000111,-7.513814459630609122
0.313000000000000111,-7.722879119111330404
0.314000000000000112,-7.926094354817561971
0.315000000000000113,-8.123487560701541099
0.316000000000000114,-8.315088507481958047
0.317000000000000115,-8.500929543947426836
0.318000000000000116,-8.681045765113783119
0.319000000000000117,-8.855475148580961076
0.320000000000000118,-9.024258660550120936
0.321000000000000119,-9.187440333053235264
0.322000000000000119,-9.345067314017130755
0.323000000000000120,-9.497189891834073805
0.324000000000000121,-9.643861496143861345
0.325000000000000122,-9.785138676548076120
0.326000000000000123,-9.921081060979439314
0.327000000000000124,-10.051751295437847844
0.328000000000000125,-10.177214966782704764
0.329000000000000126,-10.297540510238475164
0.330000000000000127,-10.412799103229943398
0.331000000000000127,-10.523064547115193790
0.332000000000000128,-10.628413138330243370
0.333000000000000129,-10.728923530399674391
0.334000000000000130,-10.824676588204045657
0.335000000000000131,-10.915755235828459746
0.336000000000000132,-11.002244299246973114
0.337000000000000133,-11.084230345027199505
0.338000000000000134,-11.161801516167670911
0.339000000000000135,-11.235047366108011246
0.340000000000000135,-11.304058691880641163
0.341000000000000136,-11.368927367300800668
0.342000000000000137,-11.429746177021831599
0.343000000000000138,-11.486608652213428527
0.344000000000000139,-11.539608908553779187
0.345000000000000140,-11.588841487161010591
0.346000000000000141,-11.634401199026504159
0.347000000000000142,-11.676382973451943315
0.348000000000000143,-11.714881710933962466
0.349000000000000143,-11.749992140884657488
0.350000000000000144,-11.781808684523443986
0.351000000000000145,-11.810425323225782535
0.352000000000000146,-11.835935472566976756
0.353000000000000147,-11.858431862254828815
0.354000000000000148,-11.878006422103275952
0.355000000000000149,-11.894750174160190426
0.356000000000000150,-11.908753131066321274
0.357000000000000151,-11.920104200688850682
0.358000000000000151,-11.928891097042056302
0.359000000000000152,-11.935200257479078090
0.360000000000000153,-11.939116766113022194
0.361000000000000154,-11.940724283401634054
0.362000000000000155,-11.940104981808696394
0.363000000000000156,-11.937339487435977503
0.364000000000000157,-11.932506827502198377
0.365000000000000158,-11.925684383530764876
0.366000000000000159,-11.916947850094015138
0.367000000000000159,-11.906371198950711943
0.368000000000000160,-11.894026648403272617
0.369000000000000161,-11.879984637692905025
0.370000000000000162,-11.864313806243938387
0.371000000000000163,-11.847080977563077653
0.372000000000000164,-11.828351147594892367
0.373000000000000165,-11.808187477331971493
0.374000000000000166,-11.786651289475901905
0.375000000000000167,-11.763802068944240631
0.376000000000000167,-11.739697467018679333
0.377000000000000168,-11.714393308930132420
0.378000000000000169,-11.687943604678000753
0.379000000000000170,-11.660400562883134867
0.380000000000000171,-11.631814607476611556
0.381000000000000172,-11.602234397030002810
0.382000000000000173,-11.571706846536349289
0.383000000000000174,-11.540277151455740068
0.384000000000000175,-11.507988813843507359
0.385000000000000175,-11.474883670384510737
0.386000000000000176,-11.441001922161960991
0.387000000000000177,-11.406382165994699562
0.388000000000000178,-11.371061427182768355
0.389000000000000179,-11.335075193506591873
0.390000000000000180,-11.298457450331373053
0.391000000000000181,-11.261240716674102202
0.392000000000000182,-11.223456082096763708
0.393000000000000183,-11.185133244295446531
0.394000000000000183,-11.146300547261102309
0.395000000000000184,-11.106985019893881983
0.396000000000000185,-11.067212414958948585
0.397000000000000186,-11.027007248277618245
0.398000000000000187,-10.986392838053742338
0.399000000000000188,-10.945391344240849918
0.400000000000000189,-10.904023807861330297
0.401000000000000190,-10.862310190194616411
0.402000000000000191,-10.820269411756616051
0.403000000000000191,-10.777919390997997340
0.404000000000000192,-10.735277082654160807
0.405000000000000193,-10.692358515684562192
0.406000000000000194,-10.649178830744091329
0.407000000000000195,-10.605752317133749330
0.408000000000000196,-10.562092449182364007
0.409000000000000197,-10.518211922015545667
0.410000000000000198,-10.474122686672206584
0.411000000000000199,-10.429835984532790150
0.412000000000000199,-10.385362381027521295
0.413000000000000200,-10.340711798596347037
0.414000000000000201,-10.295893548875909573
0.415000000000000202,-10.250916364092040212
0.416000000000000203,-10.205788427639687299
0.417000000000000204,-10.160517403834839811
0.418000000000000205,-10.115110466826170210
0.419000000000000206,-10.069574328656596407
0.420000000000000207,-10.023915266467460228
0.421000000000000207,-9.978139148840673656
0.422000000000000208,-9.932251461275948046
0.423000000000000209,-9.886257330802838084
0.424000000000000210,-9.840161549728851043
0.425000000000000211,-9.793968598526884506
0.426000000000000212,-9.747682667867049844
0.427000000000000213,-9.701307679799144879
0.428000000000000214,-9.654847308093987834
0.429000000000000214,-9.608304997752700416
0.430000000000000215,-9.561683983694473810
0.431000000000000216,-9.514987308634577090
0.432000000000000217,-9.468217840165049637
0.433000000000000218,-9.421378287051755507
0.434000000000000219,-9.374471214762170490
0.435000000000000220,-9.327499060239020423
0.436000000000000221,-9.280464145935582110
0.437000000000000222,-9.233368693128920057
0.438000000000000222,-9.186214834528067641
0.439000000000000223,-9.139004626194370928
0.440000000000000224,-9.091740058791650370
0.441000000000000225,-9.044423068184144654
0.442000000000000226,-8.997055545400563403
0.443000000000000227,-8.949639345982403071
0.444000000000000228,-8.902176298735337667
0.445000000000000229,-8.854668213902071372
0.446000000000000230,-8.807116890775354534
0.447000000000000230,-8.759524124769894726
0.448000000000000231,-8.711891713971663620
0.449000000000000232,-8.664221465183079118
0.450000000000000233,-8.616515199482595477
0.451000000000000234,-8.568774757316766966
0.452000000000000235,-8.521002003143049564
0.453000000000000236,-8.473198829640933738
0.454000000000000237,-8.425367161509372593
0.455000000000000238,-8.377508958867529998
0.456000000000000238,-8.329626220276249882
0.457000000000000239,-8.281720985396839652
0.458000000000000240,-8.233795337303854822
0.459000000000000241,-8.185851404467850756
0.460000000000000242,-8.137891362424232611
0.461000000000000243,-8.089917435143391344
0.462000000000000244,-8.041931896117612055
0.463000000000000245,-7.993937069179184896
0.464000000000000246,-7.945935329064445440
0.465000000000000246,-7.897929101737604540
0.466000000000000247,-7.849920864488058037
0.467000000000000248,-7.801913145814504347
0.468000000000000249,-7.753908525108688998
0.469000000000000250,-7.705909632151356270
0.470000000000000251,-7.657919146432469404
0.471000000000000252,-7.609939796307365611
0.472000000000000253,-7.561974358000421503
0.473000000000000254,-7.514025654466872872
0.474000000000000254,-7.466096554123652140
0.475000000000000255,-7.418189969459223043
0.476000000000000256,-7.370308855532394787
0.477000000000000257,-7.322456208369525932
0.478000000000000258,-7.274635063269137447
0.479000000000000259,-7.226848493022801634
0.480000000000000260,-7.179099606060605154
0.481000000000000261,-7.131391544529186888
0.482000000000000262,-7.083727482310138157
0.483000000000000262,-7.036110622986075036
0.484000000000000263,-6.988544197761351384
0.485000000000000264,-6.941031463344233821
0.486000000000000265,-6.893575699796872236
0.487000000000000266,-6.846180208359095687
0.488000000000000267,-6.798848309251939170
0.489000000000000268,-6.751583339466320055
0.490000000000000269,-6.704388650542067118
0.491000000000000270,-6.657267606342323063
0.492000000000000270,-6.610223580827849332
0.493000000000000271,-6.563259955835768267
0.494000000000000272,-6.516380118866862858
0.495000000000000273,-6.469587460885252383
0.496000000000000274,-6.422885374134257752
0.497000000000000275,-6.376277249971773031
0.498000000000000276,-6.329766476728442726
0.499000000000000277,-6.283356437591601562
0.500000000000000222,-6.237050508517778091
0.501000000000000334,-6.190852056176367135
0.502000000000000224,-6.144764435926903801
0.503000000000000336,-6.098790989832036935
0.504000000000000226,-6.052935044708443790
0.505000000000000338,-6.007199910217284611
0.506000000000000227,-5.961588876996199993
0.507000000000000339,-5.916105214834098902
0.508000000000000229,-5.870752170890378707
0.509000000000000341,-5.825532967959574648
0.510000000000000231,-5.780450802782874042
0.511000000000000343,-5.735508844407059215
0.512000000000000233,-5.690710232592117279
0.513000000000000345,-5.646058076267907566
0.514000000000000234,-5.601555452040839711
0.515000000000000346,-5.557205402750653001
0.516000000000000236,-5.513010936078131863
0.517000000000000348,-5.468975023203631380
0.518000000000000238,-5.425100597517012346
0.519000000000000350,-5.381390553378732733
0.520000000000000240,-5.337847744932396665
0.521000000000000352,-5.294474984968563724
0.522000000000000242,-5.251275043839757295
0.523000000000000353,-5.208250648426400176
0.524000000000000243,-5.165404481153513139
0.525000000000000355,-5.122739179057733239
0.526000000000000245,-5.080257332904405843
0.527000000000000357,-5.037961486354111784
0.528000000000000247,-4.995854135178379174
0.529000000000000359,-4.953937726523782281
0.530000000000000249,-4.912214658224082875
0.531000000000000361,-4.870687278159554268
0.532000000000000250,-4.829357883663067952
0.533000000000000362,-4.788228720971981822
0.534000000000000252,-4.747301984725345037
0.535000000000000364,-4.706579817505423868
0.536000000000000254,-4.666064309423030743
0.537000000000000366,-4.625757497745481395
0.538000000000000256,-4.585661366566781361
0.539000000000000368,-4.545777846518742393
0.540000000000000258,-4.506108814522568728
0.541000000000000369,-4.466656093579642217
0.542000000000000259,-4.427421452600980523
0.543000000000000371,-4.388406606274107169
0.544000000000000261,-4.349613214966689512
0.545000000000000373,-4.311042884665841513
0.546000000000000263,-4.272697166952299064
0.547000000000000375,-4.234577559008288361
0.548000000000000265,-4.196685503658558858
0.549000000000000377,-4.159022389443125078
0.550000000000000266,-4.121589550721252770
0.551000000000000378,-4.084388267805391770
0.552000000000000268,-4.047419767124348589
0.553000000000000380,-4.010685221414611590
0.554000000000000270,-3.974185749939030732
0.555000000000000382,-3.937922418731756302
0.556000000000000272,-3.901896240868766963
0.557000000000000384,-3.866108176762735660
0.558000000000000274,-3.830559134481735128
0.559000000000000385,-3.795249970090468050
0.560000000000000275,-3.760181488013528472
0.561000000000000387,-3.725354441419500340
0.562000000000000277,-3.690769532625242100
0.563000000000000389,-3.656427413519387493
0.564000000000000279,-3.622328686004309795
0.565000000000000391,-3.588473902455612041
0.566000000000000281,-3.554863566198458891
0.567000000000000393,-3.521498131999809544
0.568000000000000282,-3.488378006575926005
0.569000000000000394,-3.455503549114173900
0.570000000000000284,-3.422875071808591407
0.571000000000000396,-3.390492840408251052
0.572000000000000286,-3.358357074777917894
0.573000000000000398,-3.326467949470008900
0.574000000000000288,-3.294825594307441374
0.575000000000000400,-3.263430094976468077
0.576000000000000290,-3.232281493628941238
0.577000000000000401,-3.201379789493285166
0.578000000000000291,-3.170724939493604122
0.579000000000000403,-3.140316858876206485
0.580000000000000293,-3.110155421843063372
0.581000000000000405,-3.080240462191422779
0.582000000000000295,-3.050571773959245725
0.583000000000000407,-3.021149112075621979
0.584000000000000297,-2.991972193015862480
0.585000000000000409,-2.963040695460541496
0.586000000000000298,-2.934354260958143890
0.587000000000000410,-2.905912494590618067
0.588000000000000300,-2.877714965641562372
0.589000000000000412,-2.849761208266335721
0.590000000000000302,-2.822050722163845116
0.591000000000000414,-2.794582973249429170
0.592000000000000304,-2.767357394328464615
0.593000000000000416,-2.740373385770211279
0.594000000000000306,-2.713630316181620206
0.595000000000000417,-2.687127523080549363
0.596000000000000307,-2.660864313568153783
0.597000000000000419,-2.634839964999976303
0.598000000000000309,-2.609053725655499534
0.599000000000000421,-2.583504815405669675
0.600000000000000311,-2.558192426378257167
0.601000000000000423,-2.533115723620535498
0.602000000000000313,-2.508273845759196430
0.603000000000000425,-2.483665905656955886
0.604000000000000314,-2.459290991065883780
0.605000000000000426,-2.435148165276854293
0.606000000000000316,-2.411236467765180969
0.607000000000000428,-2.387554914831924613
0.608000000000000318,-2.364102500240869542
0.609000000000000430,-2.340878195850740529
0.610000000000000320,-2.317880952242648895
0.611000000000000432,-2.295109699342371634
0.612000000000000322,-2.272563347037455994
0.613000000000000433,-2.250240785788817366
0.614000000000000323,-2.228140887236768286
0.615000000000000435,-2.206262504801238311
0.616000000000000325,-2.184604474276102604
0.617000000000000437,-2.163165614417398075
0.618000000000000327,-2.141944727525380010
0.619000000000000439,-2.120940600020187361
0.620000000000000329,-2.100152003011108270
0.621000000000000441,-2.079577692859245985
0.622000000000000330,-2.059216411733545193
0.623000000000000442,-2.039066888160021129
0.624000000000000332,-2.019127837564175021
0.625000000000000444,-1.999397962806445106
0.626000000000000334,-1.979875954710682340
0.627000000000000446,-1.960560492585515791
0.628000000000000336,-1.941450244738619046
0.629000000000000448,-1.922543868983748627
0.630000000000000338,-1.903840013140595699
0.631000000000000449,-1.885337315527288338
0.632000000000000339,-1.867034405445640033
0.633000000000000451,-1.848929903658996565
0.634000000000000341,-1.831022422862750521
0.635000000000000453,-1.813310568147417756
0.636000000000000343,-1.795792937454329774
0.637000000000000455,-1.778468122023880271
0.638000000000000345,-1.761334706836373387
0.639000000000000457,-1.744391271045375502
0.640000000000000346,-1.727636388403723799
0.641000000000000458,-1.711068627682015730
0.642000000000000348,-1.694686553079772562
0.643000000000000460,-1.678488724629120465
0.644000000000000350,-1.662473698591169224
0.645000000000000462,-1.646640027844950449
0.646000000000000352,-1.630986262269102038
0.647000000000000464,-1.615510949116151007
0.648000000000000353,-1.600212633379636484
0.649000000000000465,-1.585089858153856390
0.650000000000000355,-1.570141164986540439
0.651000000000000467,-1.555365094224245848
0.652000000000000357,-1.540760185350723344
0.653000000000000469,-1.526324977318123555
0.654000000000000359,-1.512058008871252746
0.655000000000000471,-1.497957818864764645
0.656000000000000361,-1.484022946573511526
0.657000000000000473,-1.470251931995930850
0.658000000000000362,-1.456643316150691536
0.659000000000000474,-1.443195641366515458
0.660000000000000364,-1.429907451565354037
0.661000000000000476,-1.416777292538858202
