# ZnO10m10BOND_CS-12229-AC
# h[nm],U(h)[kJ/mol]
0.200000000000000011,87.797634609255595706
0.201000000000000012,86.994670191187395858
0.202000000000000013,85.705838936179802090
0.203000000000000014,84.200630116430772887
0.204000000000000015,82.631317103394309243
0.205000000000000016,81.075838612424348639
0.206000000000000016,79.566982875329586022
0.207000000000000017,78.111810184162763449
0.208000000000000018,76.704208038078164122
0.209000000000000019,75.332690311390877014
0.210000000000000020,73.984966407790068388
0.211000000000000021,72.650371119323708058
0.212000000000000022,71.320924529983059870
0.213000000000000023,69.991555862653470399
0.214000000000000024,68.659854262342250308
0.215000000000000024,67.325586791514496099
0.216000000000000025,65.990136946298264320
0.217000000000000026,64.655956359172634507
0.218000000000000027,63.326080924642511150
0.219000000000000028,62.003735034883163735
0.220000000000000029,60.692029964146264831
0.221000000000000030,59.393751747684930820
0.222000000000000031,58.111227998931305194
0.223000000000000032,56.846260423200462242
0.224000000000000032,55.600109185067921658
0.225000000000000033,54.373515967039701025
0.226000000000000034,53.166753960167831394
0.227000000000000035,51.979694772513042267
0.228000000000000036,50.811884078094337269
0.229000000000000037,49.662619599359956624
0.230000000000000038,48.531026627909433557
0.231000000000000039,47.416127694095173695
0.232000000000000040,46.316904179564943433
0.233000000000000040,45.232348630804565914
0.234000000000000041,44.161507291364479499
0.235000000000000042,43.103512947417563339
0.236000000000000043,42.057608600260543597
0.237000000000000044,41.023162765498106808
0.238000000000000045,39.999677376016464336
0.239000000000000046,38.986789356547134844
0.240000000000000047,37.984266961226481385
0.241000000000000048,36.992001939007636224
0.242000000000000048,36.009998529356479935
0.243000000000000049,35.038360204153541133
0.244000000000000050,34.077274970654322317
0.245000000000000051,33.126999942231222462
0.246000000000000052,32.187845774208028615
0.247000000000000053,31.260161455682140996
0.248000000000000054,30.344319847872093021
0.249000000000000055,29.440704267275737749
0.250000000000000056,28.549696329018683372
0.251000000000000056,27.671665192818817758
0.252000000000000057,26.806958291108536230
0.253000000000000058,25.955893565799243561
0.254000000000000059,25.118753196433580399
0.255000000000000060,24.295778767373839457
0.256000000000000061,23.487167794424589573
0.257000000000000062,22.693071511041338795
0.258000000000000063,21.913593800169600456
0.259000000000000064,21.148791148944191320
0.260000000000000064,20.398673499145061783
0.261000000000000065,19.663205865696408381
0.262000000000000066,18.942310597909944647
0.263000000000000067,18.235870162985779785
0.264000000000000068,17.543730337931400243
0.265000000000000069,16.865703704050364564
0.266000000000000070,16.201573347064034181
0.267000000000000071,15.551096675397468871
0.268000000000000071,14.914009278883375131
0.269000000000000072,14.290028759864190633
0.270000000000000073,13.678858478200732307
0.271000000000000074,13.080191160867959965
0.272000000000000075,12.493712335511460765
0.273000000000000076,11.919103555465980548
0.274000000000000077,11.356045391237334030
0.275000000000000078,10.804220170285557145
0.276000000000000079,10.263314453104083412
0.277000000000000079,9.733021239063798902
0.278000000000000080,9.213041900299195675
0.279000000000000081,8.703087846073682243
0.280000000000000082,8.202881923608668302
0.281000000000000083,7.712159564328314509
0.282000000000000084,7.230669686902926330
0.283000000000000085,6.758175370409854388
0.284000000000000086,6.294454312415298958
0.285000000000000087,5.839299087861216542
0.286000000000000087,5.392517225357927657
0.287000000000000088,4.953931117881433366
0.288000000000000089,4.523377784993534156
0.289000000000000090,4.100708503581366848
0.290000000000000091,3.685788323788528054
0.291000000000000092,3.278495486313171448
0.292000000000000093,2.878720756613436293
0.293000000000000094,2.486366690812884972
0.294000000000000095,2.101346847265069151
0.295000000000000095,1.723584956838077886
0.296000000000000096,1.353014064039544495
0.297000000000000097,0.989575650134804974
0.298000000000000098,0.633218748433787892
0.299000000000000099,0.283899060946945447
0.300000000000000100,-0.058421915349707462
0.301000000000000101,-0.393777745338382335
0.302000000000000102,-0.722197889275070892
0.303000000000000103,-1.043708507469483182
0.304000000000000103,-1.358333231426762655
0.305000000000000104,-1.666093897528935219
0.306000000000000105,-1.967011240064793443
0.307000000000000106,-2.261105541097300886
0.308000000000000107,-2.548397235286914420
0.309000000000000108,-2.828907468366484323
0.310000000000000109,-3.102658608490459269
0.311000000000000110,-3.369674710156363773
0.312000000000000111,-3.629981930825364689
0.313000000000000111,-3.883608900747934634
0.314000000000000112,-4.130587046836637910
0.315000000000000113,-4.370950871720117092
0.316000000000000114,-4.604738189364305789
0.317000000000000115,-4.831990318860285072
0.318000000000000116,-5.052752238156477560
0.319000000000000117,-5.267072699657583179
0.320000000000000118,-5.475004309727015794
0.321000000000000119,-5.676603574216256831
0.322000000000000119,-5.871930912204938124
0.323000000000000120,-6.061050640172990889
0.324000000000000121,-6.244030928843402606
0.325000000000000122,-6.420943734931492841
0.326000000000000123,-6.591864710018365159
0.327000000000000124,-6.756873088732936239
0.328000000000000125,-6.916051558381150599
0.329000000000000126,-7.069486112103898101
0.330000000000000127,-7.217265887579325856
0.331000000000000127,-7.359482993210987090
0.332000000000000128,-7.496232323663017283
0.333000000000000129,-7.627611366518263658
0.334000000000000130,-7.753720001745435297
0.335000000000000131,-7.874660295569817947
0.336000000000000132,-7.990536290247180595
0.337000000000000133,-8.101453791145967642
0.338000000000000134,-8.207520152447404627
0.339000000000000135,-8.308844062677717801
0.340000000000000135,-8.405535331193723536
0.341000000000000136,-8.497704676649830091
0.342000000000000137,-8.585463518385047621
0.343000000000000138,-8.668923771580123727
0.344000000000000139,-8.748197646950647055
0.345000000000000140,-8.823397455659344857
0.346000000000000141,-8.894635420052541264
0.347000000000000142,-8.962023490750175014
0.348000000000000143,-9.025673170547360513
0.349000000000000143,-9.085695345517189381
0.350000000000000144,-9.142200123640387588
0.351000000000000145,-9.195296681226647451
0.352000000000000146,-9.245093117335867916
0.353000000000000147,-9.291696316354210339
0.354000000000000148,-9.335211818830684294
0.355000000000000149,-9.375743700633940136
0.356000000000000150,-9.413394460446806278
0.357000000000000151,-9.448264915577176737
0.358000000000000151,-9.480454106028362915
0.359000000000000152,-9.510059206739562399
0.360000000000000153,-9.537175447878201595
0.361000000000000154,-9.561896043039146420
0.362000000000000155,-9.584312125182753661
0.363000000000000156,-9.604512690122771090
0.364000000000000157,-9.622584547356805018
0.365000000000000158,-9.638612278016633894
0.366000000000000159,-9.652678199701609785
0.367000000000000159,-9.664862337947504045
0.368000000000000160,-9.675242404073490121
0.369000000000000161,-9.683893779142506375
0.370000000000000162,-9.690889503764541502
0.371000000000000163,-9.696300273468278164
0.372000000000000164,-9.700194439363571064
0.373000000000000165,-9.702638013816496709
0.374000000000000166,-9.703694680858189869
0.375000000000000167,-9.703425811049985583
0.376000000000000167,-9.701890480529737459
0.377000000000000168,-9.699145493967025189
0.378000000000000169,-9.695245411159095994
0.379000000000000170,-9.690242577004088531
0.380000000000000171,-9.684187154593486113
0.381000000000000172,-9.677127161171746650
0.382000000000000173,-9.669108506717476459
0.383000000000000174,-9.660175034907755531
0.384000000000000175,-9.650368566234188705
0.385000000000000175,-9.639728943047138898
0.386000000000000176,-9.628294076312586824
0.387000000000000177,-9.616099993873842067
0.388000000000000178,-9.603180890019064719
0.389000000000000179,-9.589569176163497133
0.390000000000000180,-9.575295532464057402
0.391000000000000181,-9.560388960192305774
0.392000000000000182,-9.544876834700245283
0.393000000000000183,-9.528784958821860940
0.394000000000000183,-9.512137616561741282
0.395000000000000184,-9.494957626930224492
0.396000000000000185,-9.477266397792817543
0.397000000000000186,-9.459083979609522075
0.398000000000000187,-9.440429118947642806
0.399000000000000188,-9.421319311659242857
0.400000000000000189,-9.401770855621904843
0.401000000000000190,-9.381798902948826679
0.402000000000000191,-9.361417511581249684
0.403000000000000191,-9.340639696183060892
0.404000000000000192,-9.319477478264179382
0.405000000000000193,-9.297941935465535934
0.406000000000000194,-9.276043249944759594
0.407000000000000195,-9.253790755807564494
0.408000000000000196,-9.231192985535443540
0.409000000000000197,-9.208257715365844476
0.410000000000000198,-9.184992009586116168
0.411000000000000199,-9.161402263707376648
0.412000000000000199,-9.137494246489504590
0.413000000000000200,-9.113273140792474081
0.414000000000000201,-9.088743583234009549
0.415000000000000202,-9.063909702637085175
0.416000000000000203,-9.038775157255042103
0.417000000000000204,-9.013343170765296009
0.418000000000000205,-8.987616567026307735
0.419000000000000206,-8.961597803595431344
0.420000000000000207,-8.935289004008264868
0.421000000000000207,-8.908691988823102648
0.422000000000000208,-8.881808305436219797
0.423000000000000209,-8.854639256676653858
0.424000000000000210,-8.827185928190980135
0.425000000000000211,-8.799449214630675087
0.426000000000000212,-8.771429844656827512
0.427000000000000213,-8.743128404778229168
0.428000000000000214,-8.714545362040849952
0.429000000000000214,-8.685681085587898309
0.430000000000000215,-8.656535867111042393
0.431000000000000216,-8.627109940214538142
0.432000000000000217,-8.597403498714962566
0.433000000000000218,-8.567416713900204428
0.434000000000000219,-8.537149750772218937
0.435000000000000220,-8.506602783298667703
0.436000000000000221,-8.475776008699131836
0.437000000000000222,-8.444669660792145649
0.438000000000000222,-8.413284022429664333
0.439000000000000223,-8.381619437045911170
0.440000000000000224,-8.349676319347711484
0.441000000000000225,-8.317455165173624820
0.442000000000000226,-8.284956560549415983
0.443000000000000227,-8.252181189966982799
0.444000000000000228,-8.219129843914490863
0.445000000000000229,-8.185803425684683887
0.446000000000000230,-8.152202957488588808
0.447000000000000230,-8.118329585901634005
0.448000000000000231,-8.084184586668714090
0.449000000000000232,-8.049769368894562405
0.450000000000000233,-8.015085478645714190
0.451000000000000234,-7.980134601989409937
0.452000000000000235,-7.944918567495065531
0.453000000000000236,-7.909439348222889521
0.454000000000000237,-7.873699063224367301
0.455000000000000238,-7.837699978578290150
0.456000000000000238,-7.801444507985979548
0.457000000000000239,-7.764935212948610221
0.458000000000000240,-7.728174802549058420
0.459000000000000241,-7.691166132860109528
0.460000000000000242,-7.653912206000541119
0.461000000000000243,-7.616416168859641900
0.462000000000000244,-7.578681311510665708
0.463000000000000245,-7.540711065332502017
0.464000000000000246,-7.502509000859089561
0.465000000000000246,-7.464078825374686588
0.466000000000000247,-7.425424380273151215
0.467000000000000248,-7.386549638198472323
0.468000000000000249,-7.347458699983389074
0.469000000000000250,-7.308155791402235479
0.470000000000000251,-7.268645259753688137
0.471000000000000252,-7.228931570288374076
0.472000000000000253,-7.189019302496051367
0.473000000000000254,-7.148913146266018259
0.474000000000000254,-7.108617897934438545
0.475000000000000255,-7.068138456231184641
0.476000000000000256,-7.027479818138741230
0.477000000000000257,-6.986647074674840141
0.478000000000000258,-6.945645406610152506
0.479000000000000259,-6.904480080131858877
0.480000000000000260,-6.863156442463375306
0.481000000000000261,-6.821679917450002684
0.482000000000000262,-6.780056001119918463
0.483000000000000262,-6.738290257229363256
0.484000000000000263,-6.696388312800385378
0.485000000000000264,-6.654355853659258635
0.486000000000000265,-6.612198619983045589
0.487000000000000266,-6.569922401861457040
0.488000000000000267,-6.527533034880804053
0.489000000000000268,-6.485036395736363701
0.490000000000000269,-6.442438397879101331
0.491000000000000270,-6.399744987202442559
0.492000000000000270,-6.356962137774192279
0.493000000000000271,-6.314095847618658830
0.494000000000000272,-6.271152134553453550
0.495000000000000273,-6.228137032085183655
0.496000000000000274,-6.185056585368071680
0.497000000000000275,-6.141916847229028420
0.498000000000000276,-6.098723874262556244
0.499000000000000277,-6.055483722998582508
0.500000000000000222,-6.012202446145893830
0.501000000000000334,-5.968886088913871291
0.502000000000000224,-5.925540685414683928
0.503000000000000336,-5.882172255147989581
0.504000000000000226,-5.838786799570114816
0.505000000000000338,-5.795390298749059532
0.506000000000000227,-5.751988708107012904
0.507000000000000339,-5.708587955251314128
0.508000000000000229,-5.665193936895072113
0.509000000000000341,-5.621812515868066740
0.510000000000000231,-5.578449518218863368
0.511000000000000343,-5.535110730408268509
0.512000000000000233,-5.491801896594816768
0.513000000000000345,-5.448528716012155826
0.514000000000000234,-5.405296840438722938
0.515000000000000346,-5.362111871759194237
0.516000000000000236,-5.318979359617943992
0.517000000000000348,-5.275904799163800618
0.518000000000000238,-5.232893628885962656
0.519000000000000350,-5.189951228540258477
0.520000000000000240,-5.147082917165317184
0.521000000000000352,-5.104293951187790945
0.522000000000000242,-5.061589522615865810
0.523000000000000353,-5.018974757320075142
0.524000000000000243,-4.976454713400534580
0.525000000000000355,-4.934034379639476775
0.526000000000000245,-4.891718674038032511
0.527000000000000357,-4.849512442435951698
0.528000000000000247,-4.807420457213261500
0.529000000000000359,-4.765447416072320586
0.530000000000000249,-4.723597940899165515
0.531000000000000361,-4.681876576702610926
0.532000000000000250,-4.640287790629857412
0.533000000000000362,-4.598835971057004812
0.534000000000000252,-4.557525426753140430
0.535000000000000364,-4.516360386116387460
0.536000000000000254,-4.475344996480574267
0.537000000000000366,-4.434483323490667317
0.538000000000000256,-4.393779350545855777
0.539000000000000368,-4.353236978308230753
0.540000000000000258,-4.312860024275948945
0.541000000000000369,-4.272652222418834356
0.542000000000000259,-4.232617222875278529
0.543000000000000371,-4.192758591708416915
0.544000000000000261,-4.153079810720296194
0.545000000000000373,-4.113584277322248184
0.546000000000000263,-4.074275304460017288
0.547000000000000375,-4.035156120591785189
0.548000000000000265,-3.996229869717964789
0.549000000000000377,-3.957499611460602917
0.550000000000000266,-3.918968321191382387
0.551000000000000378,-3.880638890206226765
0.552000000000000268,-3.842514125945257319
0.553000000000000380,-3.804596752256371506
0.554000000000000270,-3.766889409701108971
0.555000000000000382,-3.729394655901069111
0.556000000000000272,-3.692114965923708692
0.557000000000000384,-3.655052732705671215
0.558000000000000274,-3.618210267512620426
0.559000000000000385,-3.581589800433738535
0.560000000000000275,-3.545193480909844652
0.561000000000000387,-3.509023378293471218
0.562000000000000277,-3.473081482439706491
0.563000000000000389,-3.437369704326369568
0.564000000000000279,-3.401889876702276272
0.565000000000000391,-3.366643754762191687
0.566000000000000281,-3.331633016847332041
0.567000000000000393,-3.296859265170019260
0.568000000000000282,-3.262324026561458368
0.569000000000000394,-3.228028753241173554
0.570000000000000284,-3.193974823607230284
0.571000000000000396,-3.160163543045818368
0.572000000000000286,-3.126596144759319795
0.573000000000000398,-3.093273790611502871
0.574000000000000288,-3.060197571989025533
0.575000000000000400,-3.027368510678003499
0.576000000000000290,-2.994787559754747086
0.577000000000000401,-2.962455604489564909
0.578000000000000291,-2.930373463262766709
0.579000000000000403,-2.898541888491807939
0.580000000000000293,-2.866961567568783842
0.581000000000000405,-2.835633123807185907
0.582000000000000295,-2.804557117397306065
0.583000000000000407,-2.773734046369143780
0.584000000000000297,-2.743164347562251582
0.585000000000000409,-2.712848397601525186
0.586000000000000298,-2.682786513878315571
0.587000000000000410,-2.652978955535949535
0.588000000000000300,-2.623425924459098280
0.589000000000000412,-2.594127566266097418
0.590000000000000302,-2.565083971303725896
0.591000000000000414,-2.536295175643622724
0.592000000000000304,-2.507761162079820139
0.593000000000000416,-2.479481861126627606
0.594000000000000306,-2.451457152016477625
0.595000000000000417,-2.423686863696921101
0.596000000000000307,-2.396170775826410360
0.597000000000000419,-2.368908619768196555
0.598000000000000309,-2.341900079581939131
0.599000000000000421,-2.315144793012389623
0.600000000000000311,-2.288642352474856256
0.601000000000000423,-2.262392306036775658
0.602000000000000313,-2.236394158395184739
0.603000000000000425,-2.210647371849403520
0.604000000000000314,-2.185151367268844069
0.605000000000000426,-2.159905525055201725
0.606000000000000316,-2.134909186099001488
0.607000000000000428,-2.110161652729846793
0.608000000000000318,-2.085662189660304477
0.609000000000000430,-2.061410024922834872
0.610000000000000320,-2.037404350799733699
0.611000000000000432,-2.013644324745532899
0.612000000000000322,-1.990129070301816183
0.613000000000000433,-1.966857678004005239
0.614000000000000323,-1.943829206279998889
0.615000000000000435,-1.921042682340341257
0.616000000000000325,-1.898497103059775259
0.617000000000000437,-1.876191435849883904
0.618000000000000327,-1.854124619522748763
0.619000000000000439,-1.832295565145282579
0.620000000000000329,-1.810703156884235110
0.621000000000000441,-1.789346252841585327
0.622000000000000330,-1.768223685880242924
0.623000000000000442,-1.747334264439878382
0.624000000000000332,-1.726676773342807225
0.625000000000000444,-1.706249974589753027
0.626000000000000334,-1.686052608145451881
0.627000000000000446,-1.666083392713922917
0.628000000000000336,-1.646341026503401084
0.629000000000000448,-1.626824187980781433
0.630000000000000338,-1.607531536615591561
0.631000000000000449,-1.588461713613319892
0.632000000000000339,-1.569613342638167763
0.633000000000000451,-1.550985030525084074
0.634000000000000341,-1.532575367981129144
0.635000000000000453,-1.514382930276061856
0.636000000000000343,-1.496406277922197381
0.637000000000000455,-1.478643957343462656
0.638000000000000345,-1.461094501533720891
0.639000000000000457,-1.443756430704234095
0.640000000000000346,-1.426628252920451256
0.641000000000000458,-1.409708464727929211
0.642000000000000348,-1.392995551767600926
0.643000000000000460,-1.376487989380234644
0.644000000000000350,-1.360184243200270648
0.645000000000000462,-1.344082769738931704
0.646000000000000352,-1.328182016956765299
0.647000000000000464,-1.312480424825529512
0.648000000000000353,-1.296976425879645900
0.649000000000000465,-1.281668445757043973
0.650000000000000355,-1.266554903729693260
0.651000000000000467,-1.251634213223662639
0.652000000000000357,-1.236904782328962060
0.653000000000000469,-1.222365014299057862
0.654000000000000359,-1.208013308040293721
0.655000000000000471,-1.193848058591137962
0.656000000000000361,-1.179867657591483043
0.657000000000000473,-1.166070493741918623
0.658000000000000362,-1.152454953253219561
0.659000000000000474,-1.139019420285983575
0.660000000000000364,-1.125762277380646159
0.661000000000000476,-1.112681905877815680
0.662000000000000366,-1.099776686329154263
0.663000000000000478,-1.087044998898802683
