# ZnO10m10BOND_CS-12814-AC
# h[nm],U(h)[kJ/mol]
0.200000000000000011,108.871770497576832781
0.201000000000000012,107.785832889305794424
0.202000000000000013,106.306494900433904149
0.203000000000000014,104.651009707107533586
0.204000000000000015,102.942925975806289784
0.205000000000000016,101.246109553144393089
0.206000000000000016,99.587970126840119178
0.207000000000000017,97.974977296205196353
0.208000000000000018,96.402738064338819868
0.209000000000000019,94.862296255718007387
0.210000000000000020,93.343856439346183151
0.211000000000000021,91.838794010962274683
0.212000000000000022,90.340560942806476419
0.213000000000000023,88.844911644790158789
0.214000000000000024,87.349738753913229061
0.215000000000000024,85.854711757265476990
0.216000000000000025,84.360842467708579306
0.217000000000000026,82.870053159202115012
0.218000000000000027,81.384790079189954781
0.219000000000000028,79.907702917600857973
0.220000000000000029,78.441396510476380399
0.221000000000000030,76.988252279780482468
0.222000000000000031,75.550311958293548287
0.223000000000000032,74.129213778936374979
0.224000000000000032,72.726170626558513277
0.225000000000000033,71.341980020462685275
0.226000000000000034,69.977056772307690835
0.227000000000000035,68.631480441718551333
0.228000000000000036,67.305051088364137968
0.229000000000000037,65.997348165400055109
0.230000000000000038,64.707788638016637606
0.231000000000000039,63.435681501538546456
0.232000000000000040,62.180276799742998151
0.233000000000000040,60.940808005459928154
0.234000000000000041,59.716527231693625311
0.235000000000000042,58.506733207718028211
0.236000000000000043,57.310792298794503097
0.237000000000000044,56.128153089001806109
0.238000000000000045,54.958355202227529901
0.239000000000000046,53.801033123382708823
0.240000000000000047,52.655915815316674866
0.241000000000000048,51.522822919742296222
0.242000000000000048,50.401658293776463893
0.243000000000000049,49.292401576636173388
0.244000000000000050,48.195098411077097467
0.245000000000000051,47.109849867244818711
0.246000000000000052,46.036801537341808910
0.247000000000000053,44.976132691351978110
0.248000000000000054,43.928045809528022403
0.249000000000000055,42.892756738160400687
0.250000000000000056,41.870485652408298449
0.251000000000000056,40.861448954275701340
0.252000000000000057,39.865852185367664617
0.253000000000000058,38.883883992777654726
0.254000000000000059,37.915711152036934095
0.255000000000000060,36.961474623056169264
0.256000000000000061,36.021286592867760135
0.257000000000000062,35.095228442136438218
0.258000000000000063,34.183349560233061482
0.259000000000000064,33.285666925545470463
0.260000000000000064,32.402165363039351575
0.261000000000000065,31.532798389324067756
0.262000000000000066,30.677489556100077550
0.263000000000000067,29.836134205404015063
0.264000000000000068,29.008601554095509556
0.265000000000000069,28.194737030178735893
0.266000000000000070,27.394364789498563795
0.267000000000000071,26.607290347815080622
0.268000000000000071,25.833303270010510744
0.269000000000000072,25.072179865022825140
0.270000000000000073,24.323685841870887003
0.271000000000000074,23.587578888712677383
0.272000000000000075,22.863611143159737082
0.273000000000000076,22.151531527986733749
0.274000000000000077,21.451087931870407743
0.275000000000000078,20.762029219835131499
0.276000000000000079,20.084107062653551168
0.277000000000000079,19.417077578542702554
0.278000000000000080,18.760702784117167852
0.279000000000000081,18.114751854717834334
0.280000000000000082,17.479002196952411197
0.281000000000000083,16.853240338580548041
0.282000000000000084,16.237262642783797162
0.283000000000000085,15.630875855404417152
0.284000000000000086,15.033897494949240325
0.285000000000000087,14.446156096067932495
0.286000000000000087,13.867491317856755373
0.287000000000000088,13.297753928742675811
0.288000000000000089,12.736805679895802257
0.289000000000000090,12.184519079128417474
0.290000000000000091,11.640777077094378811
0.291000000000000092,11.105472677323950492
0.292000000000000093,10.578508481243128259
0.293000000000000094,10.059796178850440640
0.294000000000000095,9.549255995178828726
0.295000000000000095,9.046816102070090793
0.296000000000000096,8.552412004153003622
0.297000000000000097,8.065985907252596121
0.298000000000000098,7.587486076782711919
0.299000000000000099,7.116866192993737350
0.300000000000000100,6.654084709273699438
0.301000000000000101,6.199104219037970154
0.302000000000000102,5.751890836100700177
0.303000000000000103,5.312413592799361872
0.304000000000000103,4.880643859552693087
0.305000000000000104,4.456554788969069314
0.306000000000000105,4.040120787093203880
0.307000000000000106,3.631317013883755607
0.308000000000000107,3.230118914554064524
0.309000000000000108,2.836501782984159892
0.310000000000000109,2.450440358022262899
0.311000000000000110,2.071908453141432460
0.312000000000000111,1.700878619595673102
0.313000000000000111,1.337321842934934724
0.314000000000000112,0.981207272483219817
0.315000000000000113,0.632501983160560832
0.316000000000000114,0.291170768834834948
0.317000000000000115,-0.042824033777698833
0.318000000000000116,-0.369522691786139890
0.319000000000000117,-0.688968194613243434
0.320000000000000118,-1.001206345634043871
0.321000000000000119,-1.306285828375682412
0.322000000000000119,-1.604258248745186632
0.323000000000000120,-1.895178154790782443
0.324000000000000121,-2.179103035526559040
0.325000000000000122,-2.456093300359213139
0.326000000000000123,-2.726212240653097751
0.327000000000000124,-2.989525974955970611
0.328000000000000125,-3.246103379384373433
0.329000000000000126,-3.496016004635391194
0.330000000000000127,-3.739337981052792692
0.331000000000000127,-3.976145913129800924
0.332000000000000128,-4.206518764780585506
0.333000000000000129,-4.430537736657919723
0.334000000000000130,-4.648286136736142993
0.335000000000000131,-4.859849245318740962
0.336000000000000132,-5.065314175566518529
0.337000000000000133,-5.264769730579574869
0.338000000000000134,-5.458306258001972999
0.339000000000000135,-5.646015503052977280
0.340000000000000135,-5.827990460825965613
0.341000000000000136,-6.004325228631827827
0.342000000000000137,-6.175114859102226461
0.343000000000000138,-6.340455214706918419
0.344000000000000139,-6.500442824280762366
0.345000000000000140,-6.655174742098338925
0.346000000000000141,-6.804748409979308299
0.347000000000000142,-6.949261522854458306
0.348000000000000143,-7.088811898171888615
0.349000000000000143,-7.223497349474361506
0.350000000000000144,-7.353415564433248619
0.351000000000000145,-7.478663987580745243
0.352000000000000146,-7.599339707941735966
0.353000000000000147,-7.715539351727800366
0.354000000000000148,-7.827358980220364693
0.355000000000000149,-7.934893992936402185
0.356000000000000150,-8.038239036138996596
0.357000000000000151,-8.137487916726593440
0.358000000000000151,-8.232733521508105667
0.359000000000000152,-8.324067741847001045
0.360000000000000153,-8.411581403635519649
0.361000000000000154,-8.495364202539768428
0.362000000000000155,-8.575504644438870727
0.363000000000000156,-8.652089990964848099
0.364000000000000157,-8.725206210035450383
0.365000000000000158,-8.794937931259978470
0.366000000000000159,-8.861368406086226557
0.367000000000000159,-8.924579472547870651
0.368000000000000160,-8.984651524462945460
0.369000000000000161,-9.041663484927445538
0.370000000000000162,-9.095692783942457282
0.371000000000000163,-9.146815340008785711
0.372000000000000164,-9.195105545519664858
0.373000000000000165,-9.240636255779767438
0.374000000000000166,-9.283478781477482400
0.375000000000000167,-9.323702884436375626
0.376000000000000167,-9.361376776472436489
0.377000000000000168,-9.396567121184244087
0.378000000000000169,-9.429339038504732429
0.379000000000000170,-9.459756111845365467
0.380000000000000171,-9.487880397666227594
0.381000000000000172,-9.513772437308157137
0.382000000000000173,-9.537491270927024090
0.383000000000000174,-9.559094453373685241
0.384000000000000175,-9.578638071867384696
0.385000000000000175,-9.596176765314575974
0.386000000000000176,-9.611763745130147640
0.387000000000000177,-9.625450817422052552
0.388000000000000178,-9.637288406406190333
0.389000000000000179,-9.647325578922501421
0.390000000000000180,-9.655610069929013051
0.391000000000000181,-9.662188308855487406
0.392000000000000182,-9.667105446703413207
0.393000000000000183,-9.670405383784515863
0.394000000000000183,-9.672130797995023954
0.395000000000000184,-9.672323173528145190
0.396000000000000185,-9.671022829932237386
0.397000000000000186,-9.668268951427293700
0.398000000000000187,-9.664099616397304970
0.399000000000000188,-9.658551826980993127
0.400000000000000189,-9.651661538687923425
0.401000000000000190,-9.643463689972131547
0.402000000000000191,-9.633992231699512132
0.403000000000000191,-9.623280156449832035
0.404000000000000192,-9.611359527598548169
0.405000000000000193,-9.598261508127588826
0.406000000000000194,-9.584016389118554358
0.407000000000000195,-9.568653617885265916
0.408000000000000196,-9.552201825706708505
0.409000000000000197,-9.534688855124684892
0.410000000000000198,-9.516141786774152678
0.411000000000000199,-9.496586965717231266
0.412000000000000199,-9.476050027255350727
0.413000000000000200,-9.454555922196552942
0.414000000000000201,-9.432128941558335811
0.415000000000000202,-9.408792740688529221
0.416000000000000203,-9.384570362789808939
0.417000000000000204,-9.359484261835468999
0.418000000000000205,-9.333556324866544074
0.419000000000000206,-9.306807893662584874
0.420000000000000207,-9.279259785780119785
0.421000000000000207,-9.250932314955235825
0.422000000000000208,-9.221845310867850642
0.423000000000000209,-9.192018138267560090
0.424000000000000210,-9.161469715462008168
0.425000000000000211,-9.130218532170363943
0.426000000000000212,-9.098282666745912906
0.427000000000000213,-9.065679802772681484
0.428000000000000214,-9.032427245042560671
0.429000000000000214,-8.998541934920108787
0.430000000000000215,-8.964040465103238375
0.431000000000000216,-8.928939093789050929
0.432000000000000217,-8.893253758254525465
0.433000000000000218,-8.857000087862710203
0.434000000000000219,-8.820193416505674122
0.435000000000000220,-8.782848794495944134
0.436000000000000221,-8.744980999918663400
0.437000000000000222,-8.706604549457164666
0.438000000000000222,-8.667733708705043227
0.439000000000000223,-8.628382501978039798
0.440000000000000224,-8.588564721639347255
0.441000000000000225,-8.548293936952147121
0.442000000000000226,-8.507583502473428538
0.443000000000000227,-8.466446566002995056
0.444000000000000228,-8.424896076102040610
0.445000000000000229,-8.382944789195331481
0.446000000000000230,-8.340605276271187307
0.447000000000000230,-8.297889929193479119
0.448000000000000231,-8.254810966639754000
0.449000000000000232,-8.211380439679292209
0.450000000000000233,-8.167610237005273888
0.451000000000000234,-8.123512089834431293
0.452000000000000235,-8.079097576488081245
0.453000000000000236,-8.034378126667601094
0.454000000000000237,-7.989365025437813017
0.455000000000000238,-7.944069416930953587
0.456000000000000238,-7.898502307784118770
0.457000000000000239,-7.852674570322579761
0.458000000000000240,-7.806596945501199869
0.459000000000000241,-7.760280045615783884
0.460000000000000242,-7.713734356796204672
0.461000000000000243,-7.666970241292443866
0.462000000000000244,-7.619997939564870038
0.463000000000000245,-7.572827572189209100
0.464000000000000246,-7.525469141587043609
0.465000000000000246,-7.477932533591740594
0.466000000000000247,-7.430227518859742197
0.467000000000000248,-7.382363754136844314
0.468000000000000249,-7.334350783388606132
0.469000000000000250,-7.286198038803893162
0.470000000000000251,-7.237914841680156641
0.471000000000000252,-7.189510403198705824
0.472000000000000253,-7.140993825098189696
0.473000000000000254,-7.092374100253716840
0.474000000000000254,-7.043660113169300629
0.475000000000000255,-6.994860640390553108
0.476000000000000256,-6.945984350844575772
0.477000000000000257,-6.897039806113579807
0.478000000000000258,-6.848035460648411288
0.479000000000000259,-6.798979661928105322
0.480000000000000260,-6.749880650571095764
0.481000000000000261,-6.700746560403523233
0.482000000000000262,-6.651585418489891488
0.483000000000000262,-6.602405145131010400
0.484000000000000263,-6.553213553833795224
0.485000000000000264,-6.504018351257572661
0.486000000000000265,-6.454827137140929594
0.487000000000000266,-6.405647404213151042
0.488000000000000267,-6.356486538094027416
0.489000000000000268,-6.307351817185565146
0.490000000000000269,-6.258250412558896691
0.491000000000000270,-6.209189387839596286
0.492000000000000270,-6.160175699094232016
0.493000000000000271,-6.111216194720991091
0.494000000000000272,-6.062317615346937139
0.495000000000000273,-6.013486593734134189
0.496000000000000274,-5.964729654697096706
0.497000000000000275,-5.916053215033358903
0.498000000000000276,-5.867463583469234578
0.499000000000000277,-5.818966960622416806
0.500000000000000222,-5.770569438982973587
0.501000000000000334,-5.722277002914280430
0.502000000000000224,-5.674095528675148437
0.503000000000000336,-5.626030784464259860
0.504000000000000226,-5.578088430488147509
0.505000000000000338,-5.530274019053409873
0.506000000000000227,-5.482592994684273080
0.507000000000000339,-5.435050694265933124
0.508000000000000229,-5.387652347214538118
0.509000000000000341,-5.340403075674077904
0.510000000000000231,-5.293307894740953756
0.511000000000000343,-5.246371712716124236
0.512000000000000233,-5.199599331385497791
0.513000000000000345,-5.152995446328399787
0.514000000000000234,-5.106564647254576705
0.515000000000000346,-5.060311418369290770
0.516000000000000236,-5.014240138767013022
0.517000000000000348,-4.968355082853097571
0.518000000000000238,-4.922660420793736336
0.519000000000000350,-4.877160218993557450
0.520000000000000240,-4.831858440600941940
0.521000000000000352,-4.786758946040555074
0.522000000000000242,-4.741865493572796630
0.523000000000000353,-4.697181739879740192
0.524000000000000243,-4.652711240677147586
0.525000000000000355,-4.608457451352077960
0.526000000000000245,-4.564423727625603000
0.527000000000000357,-4.520613326239993235
0.528000000000000247,-4.477029405669997963
0.529000000000000359,-4.433675026857401669
0.530000000000000249,-4.390553153968453692
0.531000000000000361,-4.347666655173364703
0.532000000000000250,-4.305018303447381456
0.533000000000000362,-4.262610777392617400
0.534000000000000252,-4.220446662080067135
0.535000000000000364,-4.178528449911061315
0.536000000000000254,-4.136858541497543840
0.537000000000000366,-4.095439246560228952
0.538000000000000256,-4.054272784844301647
0.539000000000000368,-4.013361287051503190
0.540000000000000258,-3.972706795788293554
0.541000000000000369,-3.932311266528955684
0.542000000000000259,-3.892176568593316510
0.543000000000000371,-3.852304486137976713
0.544000000000000261,-3.812696719160609149
0.545000000000000373,-3.773354884516430197
0.546000000000000263,-3.734280516946241413
0.547000000000000375,-3.695475070115102678
0.548000000000000265,-3.656939917661321093
0.549000000000000377,-3.618676354254546368
0.550000000000000266,-3.580685596662741776
0.551000000000000378,-3.542968784826992845
0.552000000000000268,-3.505526982943666159
0.553000000000000380,-3.468361180553144685
0.554000000000000270,-3.431472293634591608
0.555000000000000382,-3.394861165705848727
0.556000000000000272,-3.358528568928197622
0.557000000000000384,-3.322475205214898697
0.558000000000000274,-3.286701707343352208
0.559000000000000385,-3.251208640069831457
0.560000000000000275,-3.215996501246574102
0.561000000000000387,-3.181065722940352281
0.562000000000000277,-3.146416672552128091
0.563000000000000389,-3.112049653937149607
0.564000000000000279,-3.077964908524991383
0.565000000000000391,-3.044162616438939928
0.566000000000000281,-3.010642897614306701
0.567000000000000393,-2.977405812915014938
0.568000000000000282,-2.944451365248177854
0.569000000000000394,-2.911779500675915511
0.570000000000000284,-2.879390109524250452
0.571000000000000396,-2.847283027488329399
0.572000000000000286,-2.815458036733848868
0.573000000000000398,-2.783914866993916437
0.574000000000000288,-2.752653196661250856
0.575000000000000400,-2.721672653875130798
0.576000000000000290,-2.690972817602796496
0.577000000000000401,-2.660553218714874824
0.578000000000000291,-2.630413341054555154
0.579000000000000403,-2.600552622500075017
0.580000000000000293,-2.570970456020308603
0.581000000000000405,-2.541666190722964735
0.582000000000000295,-2.512639132895344574
0.583000000000000407,-2.483888547037087946
0.584000000000000297,-2.455413656884855467
0.585000000000000409,-2.427213646428546756
0.586000000000000298,-2.399287660918901111
0.587000000000000410,-2.371634807866123573
0.588000000000000300,-2.344254158029459134
0.589000000000000412,-2.317144746397304722
0.590000000000000302,-2.290305573157861652
0.591000000000000414,-2.263735604659989686
0.592000000000000304,-2.237433774364146366
0.593000000000000416,-2.211398983783159800
0.594000000000000306,-2.185630103412843361
0.595000000000000417,-2.160125973652075704
0.596000000000000307,-2.134885405712398043
0.597000000000000419,-2.109907182516875590
0.598000000000000309,-2.085190059588202693
0.599000000000000421,-2.060732765925788357
0.600000000000000311,-2.036534004871938919
0.601000000000000423,-2.012592454966797728
0.602000000000000313,-1.988906770792205680
0.603000000000000425,-1.965475583804137782
0.604000000000000314,-1.942297503153968652
0.605000000000000426,-1.919371116498144847
0.606000000000000316,-1.896694990796566227
0.607000000000000428,-1.874267673099333509
0.608000000000000318,-1.852087691322071406
0.609000000000000430,-1.830153555009578215
0.610000000000000320,-1.808463756087996144
0.611000000000000432,-1.787016769605269673
0.612000000000000322,-1.765811054460088680
0.613000000000000433,-1.744845054119148031
0.614000000000000323,-1.724117197322838635
0.615000000000000435,-1.703625898779321357
0.616000000000000325,-1.683369559847023300
0.617000000000000437,-1.663346569205556902
0.618000000000000327,-1.643555303515147115
0.619000000000000439,-1.623994128064485398
0.620000000000000329,-1.604661397407177947
0.621000000000000441,-1.585555455986745965
0.622000000000000330,-1.566674638750245041
0.623000000000000442,-1.548017271750554258
0.624000000000000332,-1.529581672737406750
0.625000000000000444,-1.511366151737187691
0.626000000000000334,-1.493369011621607845
0.627000000000000446,-1.475588548665253352
0.628000000000000336,-1.458023053092162069
0.629000000000000448,-1.440670809611430458
0.630000000000000338,-1.423530097941983596
0.631000000000000449,-1.406599193326531383
0.632000000000000339,-1.389876367034851068
0.633000000000000451,-1.373359886856432066
0.634000000000000341,-1.357048017582620059
0.635000000000000453,-1.340939021478304571
0.636000000000000343,-1.325031158743271265
0.637000000000000455,-1.309322687963301535
0.638000000000000345,-1.293811866551153322
0.639000000000000457,-1.278496951177426677
0.640000000000000346,-1.263376198191569433
0.641000000000000458,-1.248447864032940391
0.642000000000000348,-1.233710205632229551
0.643000000000000460,-1.219161480803156339
0.644000000000000350,-1.204799948624706740
0.645000000000000462,-1.190623869813907776
0.646000000000000352,-1.176631507089332951
0.647000000000000464,-1.162821125525350219
0.648000000000000353,-1.149190992897383579
0.649000000000000465,-1.135739380018078837
0.650000000000000355,-1.122464561064731026
0.651000000000000467,-1.109364813897864233
0.652000000000000357,-1.096438420371273370
0.653000000000000469,-1.083683666633468379
0.654000000000000359,-1.071098843420799751
0.655000000000000471,-1.058682246342224076
0.656000000000000361,-1.046432176155986049
0.657000000000000473,-1.034346939038168323
0.658000000000000362,-1.022424846843386526
0.659000000000000474,-1.010664217357607697
0.660000000000000364,-0.999063374543329941
0.661000000000000476,-0.987620648777116528
0.662000000000000366,-0.976334377079723148
0.663000000000000478,-0.965202903338841400
