# ZnO10m10BOND_CS-13420-AC
# h[nm],U(h)[kJ/mol]
0.200000000000000011,54.541330550268320110
0.201000000000000012,53.588912140077695767
0.202000000000000013,52.623251059111382233
0.203000000000000014,51.651684477148911867
0.204000000000000015,50.678401561099704509
0.205000000000000016,49.705946983486526847
0.206000000000000016,48.736073113550183677
0.207000000000000017,47.770184940926995409
0.208000000000000018,46.809541464812312483
0.209000000000000019,45.855320785628059355
0.210000000000000020,44.908616945119888442
0.211000000000000021,43.970409833211775208
0.212000000000000022,43.041531639022785782
0.213000000000000023,42.122641743369101164
0.214000000000000024,41.214214717207923400
0.215000000000000024,40.316541822070249168
0.216000000000000025,39.429744115374006697
0.217000000000000026,38.553794246423549907
0.218000000000000027,37.688543800857125632
0.219000000000000028,36.833753279253116375
0.220000000000000029,35.989122257132088123
0.221000000000000030,35.154317824868989817
0.222000000000000031,34.328999958255408842
0.223000000000000032,33.512842972670128461
0.224000000000000032,32.705552640498630979
0.225000000000000033,31.906878893623474625
0.226000000000000034,31.116624291815970338
0.227000000000000035,30.334648621003026392
0.228000000000000036,29.560870102977247598
0.229000000000000037,28.795263761579207085
0.230000000000000038,28.037857510976010644
0.231000000000000039,27.288726519797204872
0.232000000000000040,26.547986369730693923
0.233000000000000040,25.815785476487370431
0.234000000000000041,25.092297181172217080
0.235000000000000042,24.377711856089696596
0.236000000000000043,23.672229304713546583
0.237000000000000044,22.976051673793346453
0.238000000000000045,22.289377038311375401
0.239000000000000046,21.612393768498769475
0.240000000000000047,20.945275743054786233
0.241000000000000048,20.288178434341830325
0.242000000000000048,19.641235859570308264
0.243000000000000049,19.004558366528264912
0.244000000000000050,18.378231202779410580
0.245000000000000051,17.762313802868490598
0.246000000000000052,17.156839718316980736
0.247000000000000053,16.561817109415422067
0.248000000000000054,15.977229715397195164
0.249000000000000055,15.403038219910451190
0.250000000000000056,14.839181931238522694
0.251000000000000056,14.285580700950536226
0.252000000000000057,13.742137010149633625
0.253000000000000058,13.208738158838064791
0.254000000000000059,12.685258500803348269
0.255000000000000060,12.171561673572298901
0.256000000000000061,11.667502780149495933
0.257000000000000062,11.172930486272353079
0.258000000000000063,10.687689003633249030
0.259000000000000064,10.211619935834139739
0.260000000000000064,9.744563969674279846
0.261000000000000065,9.286362399679491730
0.262000000000000066,8.836858478531613770
0.263000000000000067,8.395898590244216919
0.264000000000000068,7.963333246557843026
0.265000000000000069,7.539017910113483545
0.266000000000000070,7.122813650533467822
0.267000000000000071,6.714587641625207937
0.268000000000000071,6.314213509563996851
0.269000000000000072,5.921571543144653837
0.270000000000000073,5.536548778059996678
0.271000000000000074,5.159038967707841650
0.272000000000000075,4.788942453287555523
0.273000000000000076,4.426165945961956893
0.274000000000000077,4.070622233666512990
0.275000000000000078,3.722229824780975527
0.276000000000000079,3.380912540370450525
0.277000000000000079,3.046599066082133156
0.278000000000000080,2.719222474078859086
0.279000000000000081,2.398719724622384586
0.280000000000000082,2.085031156111177619
0.281000000000000083,1.778099971546023950
0.282000000000000084,1.477871728558947551
0.283000000000000085,1.184293839309498164
0.284000000000000086,0.897315085738236484
0.285000000000000087,0.616885154881151032
0.286000000000000087,0.342954198195790982
0.287000000000000088,0.075472418137839808
0.288000000000000089,-0.185610315440931817
0.289000000000000090,-0.440344817123133780
0.290000000000000091,-0.688782904604962831
0.291000000000000092,-0.930977683366003284
0.292000000000000093,-1.166983796941542861
0.293000000000000094,-1.396857642830373392
0.294000000000000095,-1.620657554443210469
0.295000000000000095,-1.838443949822719858
0.296000000000000096,-2.050279448146436145
0.297000000000000097,-2.256228955262466584
0.298000000000000098,-2.456359719705936140
0.299000000000000099,-2.650741360805542790
0.300000000000000100,-2.839445870615892709
0.301000000000000101,-3.022547591506788756
0.302000000000000102,-3.200123171306221703
0.303000000000000103,-3.372251497934716014
0.304000000000000103,-3.539013615484731368
0.305000000000000104,-3.700492623695330163
0.306000000000000105,-3.856773562749963080
0.307000000000000106,-4.007943285287032253
0.308000000000000107,-4.154090317461279547
0.309000000000000108,-4.295304710830625261
0.310000000000000109,-4.431677886770419406
0.311000000000000110,-4.563302475035867722
0.312000000000000111,-4.690272148007259112
0.313000000000000111,-4.812681452060444620
0.314000000000000112,-4.930625637410664730
0.315000000000000113,-5.044200487680821965
0.316000000000000114,-5.153502150347644140
0.317000000000000115,-5.258626969121218409
0.318000000000000116,-5.359671319216705143
0.319000000000000117,-5.456731446381597017
0.320000000000000118,-5.549903310448812910
0.321000000000000119,-5.639282434095838070
0.322000000000000119,-5.724963757402901976
0.323000000000000120,-5.807041498719652139
0.324000000000000121,-5.885609022270616109
0.325000000000000122,-5.960758712853842844
0.326000000000000123,-6.032581857916285983
0.327000000000000124,-6.101168537222465105
0.328000000000000125,-6.166607520270893872
0.329000000000000126,-6.228986171554566909
0.330000000000000127,-6.288390363708609598
0.331000000000000127,-6.344904398539020107
0.332000000000000128,-6.398610935881676731
0.333000000000000129,-6.449590930200275629
0.334000000000000130,-6.497923574795194668
0.335000000000000131,-6.543686253462972502
0.336000000000000132,-6.586954499416822095
0.337000000000000133,-6.627801961253696916
0.338000000000000134,-6.666300375731438521
0.339000000000000135,-6.702519547100735053
0.340000000000000135,-6.736527332721317762
0.341000000000000136,-6.768389634678774414
0.342000000000000137,-6.798170397108457053
0.343000000000000138,-6.825931608925105643
0.344000000000000139,-6.851733311651725167
0.345000000000000140,-6.875633612037790776
0.346000000000000141,-6.897688699155617442
0.347000000000000142,-6.917952865664132034
0.348000000000000143,-6.936478532931422691
0.349000000000000143,-6.953316279710736403
0.350000000000000144,-6.968514874069538401
0.351000000000000145,-6.982121308276970417
0.352000000000000146,-6.994180836362073883
0.353000000000000147,-7.004737014062881073
0.354000000000000148,-7.013831740894957534
0.355000000000000149,-7.021505304077281906
0.356000000000000150,-7.027796424062911385
0.357000000000000151,-7.032742301432167054
0.358000000000000151,-7.036378664916504988
0.359000000000000152,-7.038739820331914920
0.360000000000000153,-7.039858700211874876
0.361000000000000154,-7.039766913940629145
0.362000000000000155,-7.038494798198908775
0.363000000000000156,-7.036071467545151670
0.364000000000000157,-7.032524864966329226
0.365000000000000158,-7.027881812243505166
0.366000000000000159,-7.022168059987774491
0.367000000000000159,-7.015408337213008494
0.368000000000000160,-7.007626400322047644
0.369000000000000161,-6.998845081393040068
0.370000000000000162,-6.989086335662489269
0.371000000000000163,-6.978371288110999160
0.372000000000000164,-6.966720279066855426
0.373000000000000165,-6.954152908751511930
0.374000000000000166,-6.940688080699418450
0.375000000000000167,-6.926344043992793686
0.376000000000000167,-6.911138434259781249
0.377000000000000168,-6.895088313391734225
0.378000000000000169,-6.878210207942423438
0.379000000000000170,-6.860520146178748391
0.380000000000000171,-6.842033693758645896
0.381000000000000172,-6.822765988018007377
0.382000000000000173,-6.802731770853857718
0.383000000000000174,-6.781945420196430874
0.384000000000000175,-6.760420980067531893
0.385000000000000175,-6.738172189227168651
0.386000000000000176,-6.715212508414777126
0.387000000000000177,-6.691555146195012682
0.388000000000000178,-6.667213083422024233
0.389000000000000179,-6.642199096339067133
0.390000000000000180,-6.616525778333633312
0.391000000000000181,-6.590205560370797855
0.392000000000000182,-6.563250730130102184
0.393000000000000183,-6.535673449873357299
0.394000000000000183,-6.507485773072922086
0.395000000000000184,-6.478699659831565150
0.396000000000000185,-6.449326991126651976
0.397000000000000186,-6.419379581912716404
0.398000000000000187,-6.388869193117528766
0.399000000000000188,-6.357807542567793568
0.400000000000000189,-6.326206314881259729
0.401000000000000190,-6.294077170362748497
0.402000000000000191,-6.261431752941923889
0.403000000000000191,-6.228281697191027533
0.404000000000000192,-6.194638634460866378
0.405000000000000193,-6.160514198173433265
0.406000000000000194,-6.125920028309456811
0.407000000000000195,-6.090867775129015449
0.408000000000000196,-6.055369102162924122
0.409000000000000197,-6.019435688512453808
0.410000000000000198,-5.983079230494312561
0.411000000000000199,-5.946311442667280289
0.412000000000000199,-5.909144058276435629
0.413000000000000200,-5.871588829150078404
0.414000000000000201,-5.833657525083880024
0.415000000000000202,-5.795361932745855427
0.416000000000000203,-5.756713854135169228
0.417000000000000204,-5.717725104626716792
0.418000000000000205,-5.678407510632678346
0.419000000000000206,-5.638772906911355243
0.420000000000000207,-5.598833133552497010
0.421000000000000207,-5.558600032667684765
0.422000000000000208,-5.518085444812982132
0.423000000000000209,-5.477301205170520326
0.424000000000000210,-5.436259139514372229
0.425000000000000211,-5.394971059985218531
0.426000000000000212,-5.353448760697434139
0.427000000000000213,-5.311704013200968966
0.428000000000000214,-5.269748561819779908
0.429000000000000214,-5.227594118887265218
0.430000000000000215,-5.185252359898410823
0.431000000000000216,-5.142734918597396288
0.432000000000000217,-5.100053382018336023
0.433000000000000218,-5.057219285496074690
0.434000000000000219,-5.014244107662946703
0.435000000000000220,-4.971139265446629985
0.436000000000000221,-4.927916109083222196
0.437000000000000222,-4.884585917158922541
0.438000000000000222,-4.841159891692872641
0.439000000000000223,-4.797649153272865341
0.440000000000000224,-4.754064736254858481
0.441000000000000225,-4.710417584036454386
0.442000000000000226,-4.666718544413902769
0.443000000000000227,-4.622978365031189973
0.444000000000000228,-4.579207688929402664
0.445000000000000229,-4.535417050203691680
0.446000000000000230,-4.491616869774510690
0.447000000000000230,-4.447817451279346912
0.448000000000000231,-4.404028977090404418
0.449000000000000232,-4.360261504463119664
0.450000000000000233,-4.316524961820073614
0.451000000000000234,-4.272829145173949073
0.452000000000000235,-4.229183714693098395
0.453000000000000236,-4.185598191412436719
0.454000000000000237,-4.142081954092220464
0.455000000000000238,-4.098644236226566484
0.456000000000000238,-4.055294123203406542
0.457000000000000239,-4.012040549616923357
0.458000000000000240,-3.968892296733405267
0.459000000000000241,-3.925857990110794393
0.460000000000000242,-3.882946097372231176
0.461000000000000243,-3.840164926133197376
0.462000000000000244,-3.797522622081941357
0.463000000000000245,-3.755027167212183770
0.464000000000000246,-3.712686378207295412
0.465000000000000246,-3.670507904974471991
0.466000000000000247,-3.628499229327477593
0.467000000000000248,-3.586667663816195617
0.468000000000000249,-3.545020350701078904
0.469000000000000250,-3.503564261070368779
0.470000000000000251,-3.462306194097831913
0.471000000000000252,-3.421252776438506338
0.472000000000000253,-3.380410461760030127
0.473000000000000254,-3.339785530406675029
0.474000000000000254,-3.299384089193415637
0.475000000000000255,-3.259212071327001858
0.476000000000000256,-3.219275236451093924
0.477000000000000257,-3.179579170812335320
0.478000000000000258,-3.140129287544163539
0.479000000000000259,-3.100930827065182971
0.480000000000000260,-3.061988857588777257
0.481000000000000261,-3.023308275740610007
0.482000000000000262,-2.984893807280697864
0.483000000000000262,-2.946750007926645321
0.484000000000000263,-2.908881264274563172
0.485000000000000264,-2.871291794814351039
0.486000000000000265,-2.833985651035814346
0.487000000000000266,-2.796966718622210912
0.488000000000000267,-2.760238718727799689
0.489000000000000268,-2.723805209335988575
0.490000000000000269,-2.687669586694599211
0.491000000000000270,-2.651835086824996690
0.492000000000000270,-2.616304787101570106
0.493000000000000271,-2.581081607898377595
0.494000000000000272,-2.546168314299583457
0.495000000000000273,-2.511567517870413546
0.496000000000000274,-2.477281678485513616
0.497000000000000275,-2.443313106211418173
0.498000000000000276,-2.409663963240091356
0.499000000000000277,-2.376336265870452102
0.500000000000000222,-2.343331886534804731
0.501000000000000334,-2.310652555867288793
0.502000000000000224,-2.278299864811412778
0.503000000000000336,-2.246275266763741563
0.504000000000000226,-2.214580079751104602
0.505000000000000338,-2.183215488638389434
0.506000000000000227,-2.152182547364474008
0.507000000000000339,-2.121482181203471207
0.508000000000000229,-2.091115189048930567
0.509000000000000341,-2.061082245718349526
0.510000000000000231,-2.031383904275784857
0.511000000000000343,-2.002020598369967708
0.512000000000000233,-1.972992644585886968
0.513000000000000345,-1.944300244807407818
0.514000000000000234,-1.915943488589008981
0.515000000000000346,-1.887922355534271901
0.516000000000000236,-1.860236717679411012
0.517000000000000348,-1.832886341879625958
0.518000000000000238,-1.805870892196598021
0.519000000000000350,-1.779189932285145659
0.520000000000000240,-1.752842927777410242
0.521000000000000352,-1.726829248662802074
0.522000000000000242,-1.701148171662116626
0.523000000000000353,-1.675798882594217831
0.524000000000000243,-1.650780478733836265
0.525000000000000355,-1.626091971158969418
0.526000000000000245,-1.601732287086598872
0.527000000000000357,-1.577700272195259101
0.528000000000000247,-1.553994692933366339
0.529000000000000359,-1.530614238811915273
0.530000000000000249,-1.507557524680557481
0.531000000000000361,-1.484823092985828596
0.532000000000000250,-1.462409416010599150
0.533000000000000362,-1.440314898093643325
0.534000000000000252,-1.418537877828491167
0.535000000000000364,-1.397076630240597472
0.536000000000000254,-1.375929368942075959
0.537000000000000366,-1.355094248263075674
0.538000000000000256,-1.334569365359243864
0.539000000000000368,-1.314352762294376697
0.540000000000000258,-1.294442428097814624
0.541000000000000369,-1.274836300795760380
0.542000000000000259,-1.255532269416179902
0.543000000000000371,-1.236528175966566057
0.544000000000000261,-1.217821817384224348
0.545000000000000373,-1.199410947458559917
0.546000000000000263,-1.181293278725029650
0.547000000000000375,-1.163466484330273110
0.548000000000000265,-1.145928199868291086
0.549000000000000377,-1.128676025187139942
0.550000000000000266,-1.111707526166085369
0.551000000000000378,-1.095020236462850516
0.552000000000000268,-1.078611659230834352
0.553000000000000380,-1.062479268806086674
0.554000000000000270,-1.046620512363958699
0.555000000000000382,-1.031032811545232297
0.556000000000000272,-1.015713564051764273
0.557000000000000384,-1.000660145211442309
0.558000000000000274,-0.985869909512591014
0.559000000000000385,-0.971340192107644440
0.560000000000000275,-0.957068310286262935
0.561000000000000387,-0.943051564917817942
0.562000000000000277,-0.929287241863356983
0.563000000000000389,-0.915772613357119125
0.564000000000000279,-0.902504939357714919
0.565000000000000391,-0.889481468869057990
0.566000000000000281,-0.876699441231220788
0.567000000000000393,-0.864156087381334315
0.568000000000000282,-0.851848631084758390
0.569000000000000394,-0.839774290136617196
0.570000000000000284,-0.827930277534008163
0.571000000000000396,-0.816313802619001216
0.572000000000000286,-0.804922072192751137
0.573000000000000398,-0.793752291600853255
0.574000000000000288,-0.782801665790300971
0.575000000000000400,-0.772067400338246945
0.576000000000000290,-0.761546702452852275
0.577000000000000401,-0.751236781946518106
0.578000000000000291,-0.741134852181790205
0.579000000000000403,-0.731238130990217172
0.580000000000000293,-0.721543841564515787
0.581000000000000405,-0.712049213324303709
0.582000000000000295,-0.702751482755783252
0.583000000000000407,-0.693647894225651762
0.584000000000000297,-0.684735700769609990
0.585000000000000409,-0.676012164855800735
0.586000000000000298,-0.667474559123519051
0.587000000000000410,-0.659120167097549059
0.588000000000000300,-0.650946283878489740
0.589000000000000412,-0.642950216809397235
0.590000000000000302,-0.635129286119146430
0.591000000000000414,-0.627480825542861664
0.592000000000000304,-0.620002182919758504
0.593000000000000416,-0.612690720768788610
0.594000000000000306,-0.605543816842475158
0.595000000000000417,-0.598558864659261114
0.596000000000000307,-0.591733274014776933
0.597000000000000419,-0.585064471472401260
0.598000000000000309,-0.578549900833482789
0.599000000000000421,-0.572187023587563459
0.600000000000000311,-0.565973319343047732
0.601000000000000423,-0.559906286238606610
0.602000000000000313,-0.553983441335772375
0.603000000000000425,-0.548202320992991154
0.604000000000000314,-0.542560481221635804
0.605000000000000426,-0.537055498024202604
0.606000000000000316,-0.531684967715182810
0.607000000000000428,-0.526446507224872629
0.608000000000000318,-0.521337754386573260
0.609000000000000430,-0.516356368207459226
0.610000000000000320,-0.511500029123532429
0.611000000000000432,-0.506766439238984789
0.612000000000000322,-0.502153322550329517
0.613000000000000433,-0.497658425155653450
0.614000000000000323,-0.493279515449334127
0.615000000000000435,-0.489014384302561833
0.616000000000000325,-0.484860845230008830
0.617000000000000437,-0.480816734542977464
0.618000000000000327,-0.476879911489377306
0.619000000000000439,-0.473048258380823317
0.620000000000000329,-0.469319680707222298
0.621000000000000441,-0.465692107239148279
0.622000000000000330,-0.462163490118317088
0.623000000000000442,-0.458731804936495791
0.624000000000000332,-0.455395050803129919
0.625000000000000444,-0.452151250402029636
0.626000000000000334,-0.448998450037373265
0.627000000000000446,-0.445934719669368096
0.628000000000000336,-0.442958152939830208
0.629000000000000448,-0.440066867187987598
0.630000000000000338,-0.437259003456792417
0.631000000000000449,-0.434532726490017285
0.632000000000000339,-0.431886224720411771
0.633000000000000451,-0.429317710249194906
0.634000000000000341,-0.426825418817149971
0.635000000000000453,-0.424407609767593896
0.636000000000000343,-0.422062566001447870
0.637000000000000455,-0.419788593924717901
0.638000000000000345,-0.417584023388583692
0.639000000000000457,-0.415447207622367976
0.640000000000000346,-0.413376523159631026
0.641000000000000458,-0.411370369757609378
0.642000000000000348,-0.409427170310252109
0.643000000000000460,-0.407545370755063807
0.644000000000000350,-0.405723439973998012
0.645000000000000462,-0.403959869688605200
0.646000000000000352,-0.402253174349657960
0.647000000000000464,-0.400601891021466261
0.648000000000000353,-0.399004579261090397
0.649000000000000465,-0.397459820992644597
0.650000000000000355,-0.395966220376911482
0.651000000000000467,-0.394522403676431876
0.652000000000000357,-0.393127019116297827
0.653000000000000469,-0.391778736740797773
0.654000000000000359,-0.390476248266132919
0.655000000000000471,-0.389218266929343082
0.656000000000000361,-0.388003527333663722
0.657000000000000473,-0.386830785290439183
0.658000000000000362,-0.385698817657797233
0.659000000000000474,-0.384606422176216822
0.660000000000000364,-0.383552417301176896
0.661000000000000476,-0.382535642033019263
0.662000000000000366,-0.381554955744184854
0.663000000000000478,-0.380609238003985606
