# ZnO10m10BOND_CS-16629-AC
# h[nm],U(h)[kJ/mol]
0.200000000000000011,91.975901427655912812
0.201000000000000012,91.053125218229794768
0.202000000000000013,89.660926190373643863
0.203000000000000014,88.052535393533162278
0.204000000000000015,86.373809088594057926
0.205000000000000016,84.701696439790083559
0.206000000000000016,83.070633533652227243
0.207000000000000017,81.490281517494224772
0.208000000000000018,79.957133834882000656
0.209000000000000019,78.461843867458213708
0.210000000000000020,76.993618499253813070
0.211000000000000021,75.542645493798701750
0.212000000000000022,74.101242435615873205
0.213000000000000023,72.664208690789791945
0.214000000000000024,71.228711214074763802
0.215000000000000024,69.793926150055042967
0.216000000000000025,68.360580413641102382
0.217000000000000026,66.930482706684273353
0.218000000000000027,65.506095611372359144
0.219000000000000028,64.090174885017773931
0.220000000000000029,62.685485409016777680
0.221000000000000030,61.294592844471878834
0.222000000000000031,59.919724017323645171
0.223000000000000032,58.562686004578687005
0.224000000000000032,57.224832811280450073
0.225000000000000033,55.907068693156375616
0.226000000000000034,54.609878083748512267
0.227000000000000035,53.333373376193051740
0.228000000000000036,52.077353252695480990
0.229000000000000037,50.841365696439588362
0.230000000000000038,49.624771167777055325
0.231000000000000039,48.426802627228283882
0.232000000000000040,47.246620118689655499
0.233000000000000040,46.083358482749268603
0.234000000000000041,44.936167459592333273
0.235000000000000042,43.804243978104281609
0.236000000000000043,42.686856830555157671
0.237000000000000044,41.583364220078649964
0.238000000000000045,40.493224860210389693
0.239000000000000046,39.416003420023372428
0.240000000000000047,38.351371161158127165
0.241000000000000048,37.299102618596435832
0.242000000000000048,36.259069147617005058
0.243000000000000049,35.231230105276672759
0.244000000000000050,34.215622364420653412
0.245000000000000051,33.212348778404226834
0.246000000000000052,32.221566130734544231
0.247000000000000053,31.243473019763371212
0.248000000000000054,30.278298047383422897
0.249000000000000055,29.326288604517145586
0.250000000000000056,28.387700476436918962
0.251000000000000056,27.462788428442763689
0.252000000000000057,26.551797877524087710
0.253000000000000058,25.654957708375938807
0.254000000000000059,24.772474252302522757
0.255000000000000060,23.904526414716656291
0.256000000000000061,23.051261910604786465
0.257000000000000062,22.212794546870306078
0.258000000000000063,21.389202475255292057
0.259000000000000064,20.580527328923079011
0.260000000000000064,19.786774149129339406
0.261000000000000065,19.007912005111641918
0.262000000000000066,18.243875209820068051
0.263000000000000067,17.494565035878380854
0.264000000000000068,16.759851839735315338
0.265000000000000069,16.039577506920899452
0.266000000000000070,15.333558137300679292
0.267000000000000071,14.641586895899109777
0.268000000000000071,13.963436961976404049
0.269000000000000072,13.298864516360328736
0.270000000000000073,12.647611714369514146
0.271000000000000074,12.009409598866241708
0.272000000000000075,11.383980914921915328
0.273000000000000076,10.771042794178592672
0.274000000000000077,10.170309283173789794
0.275000000000000078,9.581493695618544137
0.276000000000000079,9.004310773850923155
0.277000000000000079,8.438478649412029853
0.278000000000000080,7.883720596911858891
0.279000000000000081,7.339766579069726404
0.280000000000000082,6.806354584049529421
0.281000000000000083,6.283231758981562720
0.282000000000000084,5.770155345898797528
0.283000000000000085,5.266893428244296516
0.284000000000000086,4.773225497658610372
0.285000000000000087,4.288942851966972114
0.286000000000000087,3.813848836184154489
0.287000000000000088,3.347758938976476806
0.288000000000000089,2.890500757394756981
0.289000000000000090,2.441913842849745109
0.290000000000000091,2.001849441273224173
0.291000000000000092,1.570170140217237664
0.292000000000000093,1.146749435319881938
0.293000000000000094,0.731471228129244699
0.294000000000000095,0.324229266750157674
0.295000000000000095,-0.075073459820656691
0.296000000000000096,-0.466525363457007458
0.297000000000000097,-0.850206925240711842
0.298000000000000098,-1.226191381566615224
0.299000000000000099,-1.594545419936539421
0.300000000000000100,-1.955329877093660240
0.301000000000000101,-2.308600432873947561
0.302000000000000102,-2.654408293860421431
0.303000000000000103,-2.992800861617443520
0.304000000000000103,-3.323822380945534949
0.305000000000000104,-3.647514564233312662
0.306000000000000105,-3.963917188585443174
0.307000000000000106,-4.273068662973069642
0.308000000000000107,-4.575006563184500052
0.309000000000000108,-4.869768132847251074
0.310000000000000109,-5.157390749248806472
0.311000000000000110,-5.437912353100226248
0.312000000000000111,-5.711371841768529301
0.313000000000000111,-5.977809425846385416
0.314000000000000112,-6.237266949236705216
0.315000000000000113,-6.489788173203580257
0.316000000000000114,-6.735419025082629574
0.317000000000000115,-6.974207812553901320
0.318000000000000116,-7.206205404561804251
0.319000000000000117,-7.431465380119722575
0.320000000000000118,-7.650044146364737507
0.321000000000000119,-7.862001027331911196
0.322000000000000119,-8.067398324999185633
0.323000000000000120,-8.266301354215203290
0.324000000000000121,-8.458778453166221567
0.325000000000000122,-8.644900971063753659
0.326000000000000123,-8.824743234746240006
0.327000000000000124,-8.998382495885675070
0.328000000000000125,-9.165898860475794052
0.329000000000000126,-9.327375202253493924
0.330000000000000127,-9.482897061671179628
0.331000000000000127,-9.632552531995477452
0.332000000000000128,-9.776432134059003687
0.333000000000000129,-9.914628681137402921
0.334000000000000130,-10.047237135364209593
0.335000000000000131,-10.174354457033791377
0.336000000000000132,-10.296079448075825979
0.337000000000000133,-10.412512590917341271
0.338000000000000134,-10.523755883878783024
0.339000000000000135,-10.629912674179690768
0.340000000000000135,-10.731087489559870463
0.341000000000000136,-10.827385869450896649
0.342000000000000137,-10.918914196563623165
0.343000000000000138,-11.005779529688528129
0.344000000000000139,-11.088089438438988310
0.345000000000000140,-11.165951840601916700
0.346000000000000141,-11.239474842696850487
0.347000000000000142,-11.308766584283246104
0.348000000000000143,-11.373935086497009905
0.349000000000000143,-11.435088105240510004
0.350000000000000144,-11.492332989396627951
0.351000000000000145,-11.545776544385963902
0.352000000000000146,-11.595524901337864065
0.353000000000000147,-11.641683392099775318
0.354000000000000148,-11.684356430266660709
0.355000000000000149,-11.723647398371250361
0.356000000000000150,-11.759658541338492199
0.357000000000000151,-11.792490866272142824
0.358000000000000151,-11.822244048609007905
0.359000000000000152,-11.849016344646010168
0.360000000000000153,-11.872904510418068824
0.361000000000000154,-11.894003726878972671
0.362000000000000155,-11.912407531314830322
0.363000000000000156,-11.928207754898739523
0.364000000000000157,-11.941494466276477482
0.365000000000000158,-11.952355921056676991
0.366000000000000159,-11.960878517063687099
0.367000000000000159,-11.967146755198706742
0.368000000000000160,-11.971243205743324012
0.369000000000000161,-11.973248479929848642
0.370000000000000162,-11.973241206594931185
0.371000000000000163,-11.971298013725910181
0.372000000000000164,-11.967493514704097279
0.373000000000000165,-11.961900299045048257
0.374000000000000166,-11.954588927432750367
0.375000000000000167,-11.945627930842638520
0.376000000000000167,-11.935083813547551657
0.377000000000000168,-11.923021059800436916
0.378000000000000169,-11.909502143988431655
0.379000000000000170,-11.894587544054402883
0.380000000000000171,-11.878335757984157084
0.381000000000000172,-11.860803323160308054
0.382000000000000173,-11.842044838386993177
0.383000000000000174,-11.822112988393637778
0.384000000000000175,-11.801058570629885836
0.385000000000000175,-11.778930524168576000
0.386000000000000176,-11.755775960538702662
0.387000000000000177,-11.731640196315009206
0.388000000000000178,-11.706566787296948107
0.389000000000000179,-11.680597564114762577
0.390000000000000180,-11.653772669106587045
0.391000000000000181,-11.626130594316316902
0.392000000000000182,-11.597708220467765727
0.393000000000000183,-11.568540856777001835
0.394000000000000183,-11.538662281470481119
0.395000000000000184,-11.508104782883025408
0.396000000000000185,-11.476899201015456242
0.397000000000000186,-11.445074969437801116
0.398000000000000187,-11.412660157430131846
0.399000000000000188,-11.379681512258709830
0.400000000000000189,-11.346164501491021070
0.401000000000000190,-11.312133355259058831
0.402000000000000191,-11.277611108385706018
0.403000000000000191,-11.242619642294446436
0.404000000000000192,-11.207179726628133665
0.405000000000000193,-11.171311060507523649
0.406000000000000194,-11.135032313365449852
0.407000000000000195,-11.098361165297333741
0.408000000000000196,-11.061314346873350800
0.409000000000000197,-11.023907678362258267
0.410000000000000198,-10.986156108321242897
0.411000000000000199,-10.948073751510172258
0.412000000000000199,-10.909673926093025997
0.413000000000000200,-10.870969190092770518
0.414000000000000201,-10.831971377070075846
0.415000000000000202,-10.792691630999312835
0.416000000000000203,-10.753140440319199911
0.417000000000000204,-10.713327671138221930
0.418000000000000205,-10.673262599578249521
0.419000000000000206,-10.632953943242693384
0.420000000000000207,-10.592409891797997190
0.421000000000000207,-10.551638136660397294
0.422000000000000208,-10.510645899781584589
0.423000000000000209,-10.469439961529950267
0.424000000000000210,-10.428026687665749250
0.425000000000000211,-10.386412055410641386
0.426000000000000212,-10.344601678614196771
0.427000000000000213,-10.302600832021303390
0.428000000000000214,-10.260414474646466942
0.429000000000000214,-10.218047272262143821
0.430000000000000215,-10.175503619009941048
0.431000000000000216,-10.132787658144657428
0.432000000000000217,-10.089903301922291234
0.433000000000000218,-10.046854250644310369
0.434000000000000219,-10.003644010871450831
0.435000000000000220,-9.960275912821192179
0.436000000000000221,-9.916753126963779863
0.437000000000000222,-9.873078679832499205
0.438000000000000222,-9.829255469064486661
0.439000000000000223,-9.785286277688928891
0.440000000000000224,-9.741173787679981544
0.441000000000000225,-9.696920592792080740
0.442000000000000226,-9.652529210695954376
0.443000000000000227,-9.608002094433418350
0.444000000000000228,-9.563341643209913201
0.445000000000000229,-9.518550212543333444
0.446000000000000230,-9.473630123788135293
0.447000000000000230,-9.428583673053847036
0.448000000000000231,-9.383413139536866510
0.449000000000000232,-9.338120793284586441
0.450000000000000233,-9.292708902411007443
0.451000000000000234,-9.247179739782451335
0.452000000000000235,-9.201535589192411990
0.453000000000000236,-9.155778751043957442
0.454000000000000237,-9.109911547558343869
0.455000000000000238,-9.063936327527878589
0.456000000000000238,-9.017855470631198855
0.457000000000000239,-8.971671391328655432
0.458000000000000240,-8.925386542355365549
0.459000000000000241,-8.879003417829000711
0.460000000000000242,-8.832524555989452963
0.461000000000000243,-8.785952541586654618
0.462000000000000244,-8.739290007933188775
0.463000000000000245,-8.692539638637118316
0.464000000000000246,-8.645704169031120045
0.465000000000000246,-8.598786387312680191
0.466000000000000247,-8.551789135410459153
0.467000000000000248,-8.504715309591121652
0.468000000000000249,-8.457567860820841332
0.469000000000000250,-8.410349794895065401
0.470000000000000251,-8.363064172349941927
0.471000000000000252,-8.315714108168183571
0.472000000000000253,-8.268302771292210807
0.473000000000000254,-8.220833383956358986
0.474000000000000254,-8.173309220850240919
0.475000000000000255,-8.125733608124400931
0.476000000000000256,-8.078109922249478103
0.477000000000000257,-8.030441588739360981
0.478000000000000258,-7.982732080748659698
0.479000000000000259,-7.934984917554355199
0.480000000000000260,-7.887203662931182357
0.481000000000000261,-7.839391923429806397
0.482000000000000262,-7.791553346566732152
0.483000000000000262,-7.743691618934332332
0.484000000000000263,-7.695810464239025706
0.485000000000000264,-7.647913641275560614
0.486000000000000265,-7.600004941844666462
0.487000000000000266,-7.552088188621278952
0.488000000000000267,-7.504167232980123003
0.489000000000000268,-7.456245952785144127
0.490000000000000269,-7.408328250148949579
0.491000000000000270,-7.360418049168195864
0.492000000000000270,-7.312519293640447060
0.493000000000000271,-7.264635944767893427
0.494000000000000272,-7.216771978852984937
0.495000000000000273,-7.168931384990630207
0.496000000000000274,-7.121118162761691295
0.497000000000000275,-7.073336319931823546
0.498000000000000276,-7.025589870159857142
0.499000000000000277,-6.977882830719434715
0.500000000000000222,-6.930219220237437305
0.501000000000000334,-6.882603056452618162
0.502000000000000224,-6.835038353997532568
0.503000000000000336,-6.787529122206618304
0.504000000000000226,-6.740079362953325770
0.505000000000000338,-6.692693068518546617
0.506000000000000227,-6.645374219493033863
0.507000000000000339,-6.598126782715610261
0.508000000000000229,-6.550954709249479535
0.509000000000000341,-6.503861932398180556
0.510000000000000231,-6.456852365763168677
0.511000000000000343,-6.409929901344182390
0.512000000000000233,-6.363098407684089963
0.513000000000000345,-6.316361728059164626
0.514000000000000234,-6.269723678716212945
0.515000000000000346,-6.223188047157091063
0.516000000000000236,-6.176758590471903787
0.517000000000000348,-6.130439033721236441
0.518000000000000238,-6.084233068368353869
0.519000000000000350,-6.038144350761569967
0.520000000000000240,-5.992176500667448558
0.521000000000000352,-5.946333099855009685
0.522000000000000242,-5.900617690731216669
0.523000000000000353,-5.855033775027814968
0.524000000000000243,-5.809584812539664078
0.525000000000000355,-5.764274219914453212
0.526000000000000245,-5.719105369493794555
0.527000000000000357,-5.674081588205358351
0.528000000000000247,-5.629206156506072034
0.529000000000000359,-5.584482307375791876
0.530000000000000249,-5.539913225361368099
0.531000000000000361,-5.495502045670456859
0.532000000000000250,-5.451251853314852625
0.533000000000000362,-5.407165682302613519
0.534000000000000252,-5.363246514878598603
0.535000000000000364,-5.319497280812711004
0.536000000000000254,-5.275920856735385023
0.537000000000000366,-5.232520065519337571
0.538000000000000256,-5.189297675707335245
0.539000000000000368,-5.146256400984785095
0.540000000000000258,-5.103398899696840019
0.541000000000000369,-5.060727774408790403
0.542000000000000259,-5.018245571509418745
0.543000000000000371,-4.975954780856065796
0.544000000000000261,-4.933857835460883301
0.545000000000000373,-4.891957111217248411
0.546000000000000263,-4.850254926665607869
0.547000000000000375,-4.808753542797630232
0.548000000000000265,-4.767455162898206922
0.549000000000000377,-4.726361932423873924
0.550000000000000266,-4.685475938917248229
0.551000000000000378,-4.644799211956188500
0.552000000000000268,-4.604333723137035150
0.553000000000000380,-4.564081386090832027
0.554000000000000270,-4.524044056531772107
0.555000000000000382,-4.484223532336748086
0.556000000000000272,-4.444621553655394131
0.557000000000000384,-4.405239803049319391
0.558000000000000274,-4.366079905660037674
0.559000000000000385,-4.327143429404307184
0.560000000000000275,-4.288431885196319016
0.561000000000000387,-4.249946727195562879
0.562000000000000277,-4.211689353079672848
0.563000000000000389,-4.173661104341268135
0.564000000000000279,-4.135863266608009070
0.565000000000000391,-4.098297069984885965
0.566000000000000281,-4.060963689418043643
0.567000000000000393,-4.023864245079114887
0.568000000000000282,-3.986999802769479295
0.569000000000000394,-3.950371374343303987
0.570000000000000284,-3.913979918148922543
0.571000000000000396,-3.877826339487415730
0.572000000000000286,-3.841911491087923736
0.573000000000000398,-3.806236173598598782
0.574000000000000288,-3.770801136092756245
0.575000000000000400,-3.735607076589230413
0.576000000000000290,-3.700654642586376664
0.577000000000000401,-3.665944431608861631
0.578000000000000291,-3.631476991766684925
0.579000000000000403,-3.597252822325590849
0.580000000000000293,-3.563272374288362077
0.581000000000000405,-3.529536050986123108
0.582000000000000295,-3.496044208679278675
0.583000000000000407,-3.462797157167167850
0.584000000000000297,-3.429795160406047927
0.585000000000000409,-3.397038437134642486
0.586000000000000298,-3.364527161506822406
0.587000000000000410,-3.332261463730646689
0.588000000000000300,-3.300241430713436674
0.589000000000000412,-3.268467106712088288
0.590000000000000302,-3.236938493988327004
0.591000000000000414,-3.205655553468218066
0.592000000000000304,-3.174618205405541183
0.593000000000000416,-3.143826330048406614
0.594000000000000306,-3.113279768308849782
0.595000000000000417,-3.082978322434689389
0.596000000000000307,-3.052921756683422139
0.597000000000000419,-3.023109797997567849
0.598000000000000309,-2.993542136681158539
0.599000000000000421,-2.964218427076839468
0.600000000000000311,-2.935138288243342775
0.601000000000000423,-2.906301304632774585
0.602000000000000313,-2.877707026767550857
0.603000000000000425,-2.849354971916366885
0.604000000000000314,-2.821244624769197351
0.605000000000000426,-2.793375438110590192
0.606000000000000316,-2.765746833491339984
0.607000000000000428,-2.738358201897888922
0.608000000000000318,-2.711208904419433185
0.609000000000000430,-2.684298272912205796
0.610000000000000320,-2.657625610660919513
0.611000000000000432,-2.631190193036825331
0.612000000000000322,-2.604991268152408779
0.613000000000000433,-2.579028057512255501
0.614000000000000323,-2.553299756660025288
0.615000000000000435,-2.527805535821183280
0.616000000000000325,-2.502544540541384421
0.617000000000000437,-2.477515892320203417
0.618000000000000327,-2.452718689240150685
0.619000000000000439,-2.428152006590619028
0.620000000000000329,-2.403814897486774349
0.621000000000000441,-2.379706393483068450
0.622000000000000330,-2.355825505181332158
0.623000000000000442,-2.332171222833198332
0.624000000000000332,-2.308742516936828970
0.625000000000000444,-2.285538338827696414
0.626000000000000334,-2.262557621263408869
0.627000000000000446,-2.239799279002351096
0.628000000000000336,-2.217262209376139825
0.629000000000000448,-2.194945292855688734
0.630000000000000338,-2.172847393610910061
0.631000000000000449,-2.150967360063805511
0.632000000000000339,-2.129304025435044601
0.633000000000000451,-2.107856208283790611
0.634000000000000341,-2.086622713040841681
0.635000000000000453,-2.065602330534919595
0.636000000000000343,-2.044793838512120043
0.637000000000000455,-2.024196002148427986
0.638000000000000345,-2.003807574555316773
0.639000000000000457,-1.983627297278260926
0.640000000000000346,-1.963653900788327800
0.641000000000000458,-1.943886104966591644
0.642000000000000348,-1.924322619581558813
0.643000000000000460,-1.904962144759391407
0.644000000000000350,-1.885803371447099419
0.645000000000000462,-1.866844981868502229
0.646000000000000352,-1.848085649973143507
0.647000000000000464,-1.829524041877949925
0.648000000000000353,-1.811158816301886798
0.649000000000000465,-1.792988624993314462
0.650000000000000355,-1.775012113150361781
0.651000000000000467,-1.757227919834061236
0.652000000000000357,-1.739634678374483157
0.653000000000000469,-1.722231016769689704
0.654000000000000359,-1.705015558077718651
0.655000000000000471,-1.687986920801443302
0.656000000000000361,-1.671143719266510175
0.657000000000000473,-1.654484563992203450
0.658000000000000362,-1.638008062055458014
0.659000000000000474,-1.621712817447879429
0.660000000000000364,-1.605597431425972443
0.661000000000000476,-1.589660502854451485
