# ZnO10m10BOND_METHANAL-AC
# h[nm],U(h)[kJ/mol]
0.200000000000000011,42.132438673617869540
0.201000000000000012,41.016910387993519294
0.202000000000000013,40.282894170138298762
0.203000000000000014,39.715914491905429884
0.204000000000000015,39.196509826431721990
0.205000000000000016,38.665181827774333101
0.206000000000000016,38.098592768125243424
0.207000000000000017,37.493769904406597959
0.208000000000000018,36.857934722397303062
0.209000000000000019,36.202220730346880373
0.210000000000000020,35.538026143404863433
0.211000000000000021,34.875106417548337845
0.212000000000000022,34.220776206674436537
0.213000000000000023,33.579784018255040223
0.214000000000000024,32.954563319007604605
0.215000000000000024,32.345664596888468623
0.216000000000000025,31.752244191619581670
0.217000000000000026,31.172535343965051879
0.218000000000000027,30.604260750326034213
0.219000000000000028,30.044968342969660569
0.220000000000000029,29.492286325990402673
0.221000000000000030,28.944102109289634228
0.222000000000000031,28.398674478306560331
0.223000000000000032,27.854690410280227297
0.224000000000000032,27.311278328182702069
0.225000000000000033,26.767988929335693626
0.226000000000000034,26.224753494639067242
0.227000000000000035,25.681828086842038772
0.228000000000000036,25.139730486373494500
0.229000000000000037,24.599175218691847533
0.230000000000000038,24.061010672025336277
0.231000000000000039,23.526161125857022682
0.232000000000000040,22.995575520860292329
0.233000000000000040,22.470183996509245361
0.234000000000000041,21.950862589868638253
0.235000000000000042,21.438406009408048192
0.236000000000000043,20.933508050106212295
0.237000000000000044,20.436748979361119893
0.238000000000000045,19.948589077043635598
0.239000000000000046,19.469367438915192281
0.240000000000000047,18.999305134184385935
0.241000000000000048,18.538511831075446423
0.242000000000000048,18.086995057020327948
0.243000000000000049,17.644671332655526896
0.244000000000000050,17.211378503300966969
0.245000000000000051,16.786888681788948219
0.246000000000000052,16.370921307629934915
0.247000000000000053,15.963155916000578927
0.248000000000000054,15.563244293404697061
0.249000000000000055,15.170821773406448330
0.250000000000000056,14.785517494557291585
0.251000000000000056,14.406963503048293873
0.252000000000000057,14.034802634635624941
0.253000000000000058,13.668695154226714550
0.254000000000000059,13.308324167607068489
0.255000000000000060,12.953399848710215991
0.256000000000000061,12.603662548247420716
0.257000000000000062,12.258884866130303593
0.258000000000000063,11.918872781656785875
0.259000000000000064,11.583465942596962606
0.260000000000000064,11.252537217784263746
0.261000000000000065,10.925991618220402657
0.262000000000000066,10.603764689616966166
0.263000000000000067,10.285820475246316263
0.264000000000000068,9.972149142421745438
0.265000000000000069,9.662764359278952497
0.266000000000000070,9.357700501139223803
0.267000000000000071,9.057009757896091529
0.268000000000000071,8.760759205833725360
0.269000000000000072,8.469027899260177961
0.270000000000000073,8.181904029489041719
0.271000000000000074,7.899482191157916944
0.272000000000000075,7.621860788730475456
0.273000000000000076,7.349139609362805636
0.274000000000000077,7.081417582171752656
0.275000000000000078,6.818790738353428083
0.276000000000000079,6.561350381575292268
0.277000000000000079,6.309181473605122825
0.278000000000000080,6.062361236233980932
0.279000000000000081,5.820957967176390468
0.280000000000000082,5.585030064765215130
0.281000000000000083,5.354625253868462664
0.282000000000000084,5.129780003507397268
0.283000000000000085,4.910519125113573580
0.284000000000000086,4.696855539189044748
0.285000000000000087,4.488790197293357487
0.286000000000000087,4.286312145735027279
0.287000000000000088,4.089398717059749444
0.288000000000000089,3.898015835368421111
0.289000000000000090,3.712118421633171295
0.290000000000000091,3.531650885479738378
0.291000000000000092,3.356547690340993650
0.292000000000000093,3.186733979435211861
0.293000000000000094,3.022126250659564306
0.294000000000000095,2.862633069194418844
0.295000000000000095,2.708155807367853107
0.296000000000000096,2.558589402117094291
0.297000000000000097,2.413823121188634957
0.298000000000000098,2.273741330030192298
0.299000000000000099,2.138224252133853476
0.300000000000000100,2.007148716382308073
0.301000000000000101,1.880388885720678971
0.302000000000000102,1.757816962219855839
0.303000000000000103,1.639303864307158687
0.304000000000000103,1.524719872614384020
0.305000000000000104,1.413935241527244369
0.306000000000000105,1.306820774113287342
0.307000000000000106,1.203248358655561789
0.308000000000000107,1.103091465526303327
0.309000000000000108,1.006225603598826623
0.310000000000000109,0.912528735816805492
0.311000000000000110,0.821881653919845689
0.312000000000000111,0.734168312662685119
0.313000000000000111,0.649276124165675927
0.314000000000000112,0.567096213296544360
0.315000000000000113,0.487523635210815265
0.316000000000000114,0.410457556372147869
0.317000000000000115,0.335801400536547168
0.318000000000000116,0.263462961317928901
0.319000000000000117,0.193354483059160642
0.320000000000000118,0.125392711814463181
0.321000000000000119,0.059498918308129457
0.322000000000000119,-0.004401105227031276
0.323000000000000120,-0.066377072408224394
0.324000000000000121,-0.126494252331978085
0.325000000000000122,-0.184813539559701201
0.326000000000000123,-0.241391542569920292
0.327000000000000124,-0.296280688824082650
0.328000000000000125,-0.349529344639270934
0.329000000000000126,-0.401181948115852172
0.330000000000000127,-0.451279153430302338
0.331000000000000127,-0.499857984871224903
0.332000000000000128,-0.546951999069297257
0.333000000000000129,-0.592591453948259739
0.334000000000000130,-0.636803483003079984
0.335000000000000131,-0.679612273592563376
0.336000000000000132,-0.721039248015546419
0.337000000000000133,-0.761103246222424756
0.338000000000000134,-0.799820709095987126
0.339000000000000135,-0.837205861316835942
0.340000000000000135,-0.873270892909083329
0.341000000000000136,-0.908026138640333991
0.342000000000000137,-0.941480254526569360
0.343000000000000138,-0.973640390766581043
0.344000000000000139,-1.004512360502278767
0.345000000000000140,-1.034100803869840490
0.346000000000000141,-1.062409346872544180
0.347000000000000142,-1.089440754668772104
0.348000000000000143,-1.115197078928317875
0.349000000000000143,-1.139679798966325874
0.350000000000000144,-1.162889956417375137
0.351000000000000145,-1.184828283261875059
0.352000000000000146,-1.205495323063625168
0.353000000000000147,-1.224891545320601072
0.354000000000000148,-1.243017452871311823
0.355000000000000149,-1.259873682336080103
0.356000000000000150,-1.275461097606719552
0.357000000000000151,-1.289780876429252432
0.358000000000000151,-1.302834590152616601
0.359000000000000152,-1.314624276741950037
0.360000000000000153,-1.325152507178149142
0.361000000000000154,-1.334422445385778699
0.362000000000000155,-1.342437901849778736
0.363000000000000156,-1.349203381097215493
0.364000000000000157,-1.354724123234136934
0.365000000000000158,-1.359006139739545427
0.366000000000000159,-1.362056243728195115
0.367000000000000159,-1.363882074902281971
0.368000000000000160,-1.364492119418512228
0.369000000000000161,-1.363895724902023598
0.370000000000000162,-1.362103110842216580
0.371000000000000163,-1.359125374607813130
0.372000000000000164,-1.354974493319451412
0.373000000000000165,-1.349663321818123540
0.374000000000000166,-1.343205586966678799
0.375000000000000167,-1.335615878519547772
0.376000000000000167,-1.326909636793165870
0.377000000000000168,-1.317103137365887688
0.378000000000000169,-1.306213473032003858
0.379000000000000170,-1.294258533229696750
0.380000000000000171,-1.281256981157365082
0.381000000000000172,-1.267228228787048439
0.382000000000000173,-1.252192409977416654
0.383000000000000174,-1.236170351882440732
0.384000000000000175,-1.219183544844937517
0.385000000000000175,-1.201254110957306720
0.386000000000000176,-1.182404771464596438
0.387000000000000177,-1.162658813177678940
0.388000000000000178,-1.142040054057090970
0.389000000000000179,-1.120572808120460673
0.390000000000000180,-1.098281849819220835
0.391000000000000181,-1.075192378022687745
0.392000000000000182,-1.051329979740340814
0.393000000000000183,-1.026720593705718443
0.394000000000000183,-1.001390473938183145
0.395000000000000184,-0.975366153391683199
0.396000000000000185,-0.948674407792589824
0.397000000000000186,-0.921342219761964842
0.398000000000000187,-0.893396743310819197
0.399000000000000188,-0.864865268790482533
0.400000000000000189,-0.835775188373876099
0.401000000000000190,-0.806153962137275970
0.402000000000000191,-0.776029084806376890
0.403000000000000191,-0.745428053224517884
0.404000000000000192,-0.714378334595619280
0.405000000000000193,-0.682907335548923911
0.406000000000000194,-0.651042372067607955
0.407000000000000195,-0.618810640318467109
0.408000000000000196,-0.586239188415126677
0.409000000000000197,-0.553354889142873452
0.410000000000000198,-0.520184413668961954
0.411000000000000199,-0.486754206258130762
0.412000000000000199,-0.453090460009370921
0.413000000000000200,-0.419219093626316153
0.414000000000000201,-0.385165729230246667
0.415000000000000202,-0.350955671221431509
0.416000000000000203,-0.316613886191651261
0.417000000000000204,-0.282164983887740140
0.418000000000000205,-0.247633199223522199
0.419000000000000206,-0.213042375334960787
0.420000000000000207,-0.178415947671006020
0.421000000000000207,-0.143776929110697838
0.422000000000000208,-0.109147896094835578
0.423000000000000209,-0.074550975759030108
0.424000000000000210,-0.040007834053063449
0.425000000000000211,-0.005539664830089807
0.426000000000000212,0.028832820112154024
0.427000000000000213,0.063089400057278408
0.428000000000000214,0.097210353483446171
0.429000000000000214,0.131176465285110511
0.430000000000000215,0.164969033125332343
0.431000000000000216,0.198569872941459419
0.432000000000000217,0.231961323627751792
0.433000000000000218,0.265126250918924444
0.434000000000000219,0.298048050499175210
0.435000000000000220,0.330710650361570047
0.436000000000000221,0.363098512443006449
0.437000000000000222,0.395196633560175981
0.438000000000000222,0.426990545672064736
0.439000000000000223,0.458466315494654331
0.440000000000000224,0.489610543493472439
0.441000000000000225,0.520410362279631111
0.442000000000000226,0.550853434434784961
0.443000000000000227,0.580927949790456477
0.444000000000000228,0.610622622186808739
0.445000000000000229,0.639926685735812018
0.446000000000000230,0.668829890613414135
0.447000000000000230,0.697322498404999935
0.448000000000000231,0.725395277028100027
0.449000000000000232,0.753039495255907521
0.450000000000000233,0.780246916864704043
0.451000000000000234,0.807009794427947069
0.452000000000000235,0.833320862779200366
0.453000000000000236,0.859173332165723336
0.454000000000000237,0.884560881113904296
0.455000000000000238,0.909477649027352397
0.456000000000000238,0.933918228537792272
0.457000000000000239,0.957877657628511514
0.458000000000000240,0.981351411549404085
0.459000000000000241,1.004335394542294591
0.460000000000000242,1.026825931394440561
0.461000000000000243,1.048819758837784555
0.462000000000000244,1.070314016810733460
0.463000000000000245,1.091306239598908379
0.464000000000000246,1.111794346870514705
0.465000000000000246,1.131776634621586952
0.466000000000000247,1.151251766045735092
0.467000000000000248,1.170218762342464469
0.468000000000000249,1.188676993477570498
0.469000000000000250,1.206626168908622843
0.470000000000000251,1.224066328287937155
0.471000000000000252,1.240997832154970393
0.472000000000000253,1.257421352629468414
0.473000000000000254,1.273337864116267815
0.474000000000000254,1.288748634032069962
0.475000000000000255,1.303655213564041571
0.476000000000000256,1.318059428469608774
0.477000000000000257,1.331963369926298268
0.478000000000000258,1.345369385440058574
0.479000000000000259,1.358280069819992608
0.480000000000000260,1.370698256227004030
0.481000000000000261,1.382627007303443900
0.482000000000000262,1.394069606390347271
0.483000000000000262,1.405029548838536479
0.484000000000000263,1.415510533419382044
0.485000000000000264,1.425516453840664388
0.486000000000000265,1.435051390372578117
0.487000000000000266,1.444119601588577106
0.488000000000000267,1.452725516225387592
0.489000000000000268,1.460873725166148773
0.490000000000000269,1.468568973550384182
0.491000000000000270,1.475816153014069210
0.492000000000000270,1.482620294062880317
0.493000000000000271,1.488986558581296915
0.494000000000000272,1.494920232480017486
0.495000000000000273,1.500426718483850230
0.496000000000000274,1.505511529061941634
0.497000000000000275,1.510180279502027156
0.498000000000000276,1.514438681130042097
0.499000000000000277,1.518292534676298988
0.500000000000000222,1.521747723789137030
0.501000000000000334,1.524810208696770308
0.502000000000000224,1.527486020017850166
0.503000000000000336,1.529781252721063911
0.504000000000000226,1.531702060233896656
0.505000000000000338,1.533254648700528744
0.506000000000000227,1.534445271388620080
0.507000000000000339,1.535280223244664732
0.508000000000000229,1.535765835597349582
0.509000000000000341,1.535908471008271103
0.510000000000000231,1.535714518269195361
0.511000000000000343,1.535190387544956403
0.512000000000000233,1.534342505660930112
0.513000000000000345,1.533177311533922005
0.514000000000000234,1.531701251745192893
0.515000000000000346,1.529920776254292791
0.516000000000000236,1.527842334252205836
0.517000000000000348,1.525472370152270774
0.518000000000000238,1.522817319717278739
0.519000000000000350,1.519883606321003500
0.520000000000000240,1.516677637342452867
0.521000000000000352,1.513205800690948122
0.522000000000000242,1.509474461460210692
0.523000000000000353,1.505489958709445020
0.524000000000000243,1.501258602369504924
0.525000000000000355,1.496786670272038933
0.526000000000000245,1.492080405299600621
0.527000000000000357,1.487146012654582572
0.528000000000000247,1.481989657244864755
0.529000000000000359,1.476617461184003055
0.530000000000000249,1.471035501403771928
0.531000000000000361,1.465249807376869384
0.532000000000000250,1.459266358947564735
0.533000000000000362,1.453091084268037125
0.534000000000000252,1.446729857838227939
0.535000000000000364,1.440188498646856052
0.536000000000000254,1.433472768411474085
0.537000000000000366,1.426588369915206211
0.538000000000000256,1.419540945437999913
0.539000000000000368,1.412336075280091752
0.540000000000000258,1.404979276375504016
0.541000000000000369,1.397476000993283174
0.542000000000000259,1.389831635524339415
0.543000000000000371,1.382051499351610646
0.544000000000000261,1.374140843801410217
0.545000000000000373,1.366104851173760126
0.546000000000000263,1.357948633849587861
0.547000000000000375,1.349677233472584392
0.548000000000000265,1.341295620203705186
0.549000000000000377,1.332808692046111299
0.550000000000000266,1.324221274238593704
0.551000000000000378,1.315538118715319005
0.552000000000000268,1.306763903629988732
0.553000000000000380,1.297903232942317464
0.554000000000000270,1.288960636064942378
0.555000000000000382,1.279940567568762066
0.556000000000000272,1.270847406944842328
0.557000000000000384,1.261685458420969574
0.558000000000000274,1.252458950831021101
0.559000000000000385,1.243172037535318797
0.560000000000000275,1.233828796390187277
0.561000000000000387,1.224433229764922304
0.562000000000000277,1.214989264604504182
0.563000000000000389,1.205500752536272202
0.564000000000000279,1.195971470018979632
0.565000000000000391,1.186405118532517511
0.566000000000000281,1.176805324806785125
0.567000000000000393,1.167175641088051385
0.568000000000000282,1.157519545441352049
0.569000000000000394,1.147840442087342483
0.570000000000000284,1.138141661772216873
0.571000000000000396,1.128426462169155542
0.572000000000000286,1.118698028309982551
0.573000000000000398,1.108959473045596278
0.574000000000000288,1.099213837533876248
0.575000000000000400,1.089464091753684194
0.576000000000000290,1.079713135043788741
0.577000000000000401,1.069963796665329259
0.578000000000000291,1.060218836386724206
0.579000000000000403,1.050480945089751206
0.580000000000000293,1.040752745395700618
0.581000000000000405,1.031036792310405348
0.582000000000000295,1.021335573887155235
0.583000000000000407,1.011651511906300538
0.584000000000000297,1.001986962570639239
0.585000000000000409,0.992344217215448743
0.586000000000000298,0.982725503032315650
0.587000000000000410,0.973132983805669816
0.588000000000000300,0.963568760661239976
0.589000000000000412,0.954034872825405778
0.590000000000000302,0.944533298394688359
0.591000000000000414,0.935065955114428582
0.592000000000000304,0.925634701165939378
0.593000000000000416,0.916241335961254677
0.594000000000000306,0.906887600944764727
0.595000000000000417,0.897575180400956518
0.596000000000000307,0.888305702267588315
0.597000000000000419,0.879080738953548213
0.598000000000000309,0.869901808160765233
0.599000000000000421,0.860770373709527470
0.600000000000000311,0.851687846366559698
0.601000000000000423,0.842655584675259584
0.602000000000000313,0.833674895787553938
0.603000000000000425,0.824747036296743063
0.604000000000000314,0.815873213070873682
0.605000000000000426,0.807054584086043469
0.606000000000000316,0.798292259259219983
0.607000000000000428,0.789587301280015863
0.608000000000000318,0.780940726441026078
0.609000000000000430,0.772353505466231161
0.610000000000000320,0.763826564337100722
0.611000000000000432,0.755360785115919198
0.612000000000000322,0.746957006766033826
0.613000000000000433,0.738616025968561907
0.614000000000000323,0.730338597935277889
0.615000000000000435,0.722125437217281507
0.616000000000000325,0.713977218509186828
0.617000000000000437,0.705894577448448302
0.618000000000000327,0.697878111409604984
0.619000000000000439,0.689928380293108101
0.620000000000000329,0.682045907308501453
0.621000000000000441,0.674231179751679455
0.622000000000000330,0.666484649776013294
0.623000000000000442,0.658806735157072887
0.624000000000000332,0.651197820050808174
0.625000000000000444,0.643658255744888885
0.626000000000000334,0.636188361403121183
0.627000000000000446,0.628788424802671608
0.628000000000000336,0.621458703063999640
0.629000000000000448,0.614199423373295472
0.630000000000000338,0.607010783697331968
0.631000000000000449,0.599892953490517411
0.632000000000000339,0.592846074394123401
0.633000000000000451,0.585870260927477959
0.634000000000000341,0.578965601171100741
0.635000000000000453,0.572132157441595846
0.636000000000000343,0.565369966958322534
0.637000000000000455,0.558679042501640799
0.638000000000000345,0.552059373062778747
0.639000000000000457,0.545510924485157589
0.640000000000000346,0.539033640097198452
0.641000000000000458,0.532627441336492202
0.642000000000000348,0.526292228365356607
0.643000000000000460,0.520027880677677912
0.644000000000000350,0.513834257697077024
0.645000000000000462,0.507711199366306820
0.646000000000000352,0.501658526727936538
0.647000000000000464,0.495676042496236147
0.648000000000000353,0.489763531620336257
0.649000000000000465,0.483920761838577740
0.650000000000000355,0.478147484224142993
0.651000000000000467,0.472443433721903450
0.652000000000000357,0.466808329676549061
0.653000000000000469,0.461241876351991487
0.654000000000000359,0.455743763442082450
0.655000000000000471,0.450313666572656146
0.656000000000000361,0.444951247794951599
0.657000000000000473,0.439656156070420301
0.658000000000000362,0.434428027746990686
0.659000000000000474,0.429266487026804811
0.660000000000000364,0.424171146425496748
0.661000000000000476,0.419141607223029067
0.662000000000000366,0.414177459906188150
0.663000000000000478,0.409278284602736797
0.664000000000000368,0.404443651507336799
0.665000000000000480,0.399673121299246759
0.666000000000000369,0.394966245551913175
0.667000000000000481,0.390322567134467668
0.668000000000000371,0.385741620605243973
0.669000000000000483,0.381222932597338693
0.670000000000000373,0.376766022196327988
