# ZnO10m10BOND_FURAN-AC
# h[nm],U(h)[kJ/mol]
0.149999999999999994,130.554588374109641791
0.150999999999999995,129.335330080092688831
0.151999999999999996,128.073959733214280732
0.152999999999999997,126.817336679283627632
0.153999999999999998,125.575983032573049059
0.154999999999999999,124.346889883707788726
0.156000000000000000,123.124190277935781523
0.157000000000000001,121.903353602659620947
0.158000000000000002,120.682188803247754549
0.159000000000000002,119.460485324394880990
0.160000000000000003,118.239245480366889751
0.161000000000000004,117.019954937422681951
0.162000000000000005,115.804058476876804207
0.163000000000000006,114.592665474215863242
0.164000000000000007,113.386446038936057334
0.165000000000000008,112.185658780217593744
0.166000000000000009,110.990253108979345598
0.167000000000000010,109.800000297939575944
0.168000000000000010,108.614621282742660924
0.169000000000000011,107.433891919416936389
0.170000000000000012,106.257716652984868233
0.171000000000000013,105.086168956585311207
0.172000000000000014,103.919501698435936987
0.173000000000000015,102.758133257700208674
0.174000000000000016,101.602616271483412902
0.175000000000000017,100.453595848505784716
0.176000000000000018,99.311763345454593832
0.177000000000000018,98.177810692625683942
0.178000000000000019,97.052389011641452043
0.179000000000000020,95.936074049647459105
0.180000000000000021,94.829339860564715536
0.181000000000000022,93.732541247560789088
0.182000000000000023,92.645904761466212562
0.183000000000000024,91.569527524357425818
0.184000000000000025,90.503382798811045973
0.185000000000000026,89.447331026495604078
0.186000000000000026,88.401134986764162704
0.187000000000000027,87.364477748664029377
0.188000000000000028,86.336982182198880764
0.189000000000000029,85.318230933787305048
0.190000000000000030,84.307785937328063142
0.191000000000000031,83.305206710516785051
0.192000000000000032,82.310066864026822486
0.193000000000000033,81.321968420042722414
0.194000000000000034,80.340553690369119977
0.195000000000000034,79.365514599192763967
0.196000000000000035,78.396599449672265791
0.197000000000000036,77.433617226437092995
0.198000000000000037,76.476439598430047795
0.199000000000000038,75.525000839721172952
0.200000000000000039,74.579295921839261041
0.201000000000000040,73.639377051973809785
0.202000000000000041,72.705348939372143491
0.203000000000000042,71.777363069658377981
0.204000000000000042,70.855611255791245640
0.205000000000000043,69.940318716957818879
0.206000000000000044,69.031736914658765158
0.207000000000000045,68.130136350152369573
0.208000000000000046,67.235799500630889725
0.209000000000000047,66.349014044121261691
0.210000000000000048,65.470066496042448989
0.211000000000000049,64.599236354325142884
0.212000000000000050,63.736790825542911421
0.213000000000000050,62.882980182004018843
0.214000000000000051,62.038033779459581751
0.215000000000000052,61.202156747138225512
0.216000000000000053,60.375527346269208806
0.217000000000000054,59.558294980080447090
0.218000000000000055,58.750578827370986801
0.219000000000000056,57.952467063036976924
0.220000000000000057,57.164016622214333552
0.221000000000000058,56.385253459820589228
0.222000000000000058,55.616173254033775208
0.223000000000000059,54.856742500455673905
0.224000000000000060,54.106899943169288747
0.225000000000000061,53.366558289434237849
0.226000000000000062,52.635606156191215632
0.227000000000000063,51.913910198700463638
0.228000000000000064,51.201317374369331503
0.229000000000000065,50.497657297989270830
0.230000000000000066,49.802744648082331480
0.231000000000000066,49.116381587739560644
0.232000000000000067,48.438360167125203759
0.233000000000000068,47.768464678639446674
0.234000000000000069,47.106473939510046023
0.235000000000000070,46.452163480262548489
0.236000000000000071,45.805307621055263212
0.237000000000000072,45.165681421220455150
0.238000000000000073,44.533062490503283470
0.239000000000000073,43.907232653413210244
0.240000000000000074,43.287979460786402797
0.241000000000000075,42.675097545097216312
0.242000000000000076,42.068389818248739687
0.243000000000000077,41.467668512518628177
0.244000000000000078,40.872756067045685313
0.245000000000000079,40.283485863719604936
0.246000000000000080,39.699702817595280635
0.247000000000000081,39.121263828004018137
0.248000000000000081,38.548038097392016255
0.249000000000000082,37.979907325594496115
0.250000000000000111,37.416765787768724749
0.251000000000000112,36.858520304572934378
0.252000000000000113,36.305090113407942454
0.253000000000000114,35.756406649647999529
0.254000000000000115,35.212413246789623145
0.255000000000000115,34.673064764357427237
0.256000000000000116,34.138327152235220296
0.257000000000000117,33.608176959851462584
0.258000000000000118,33.082600798352181926
0.259000000000000119,32.561594763550900211
0.260000000000000120,32.045163827063603890
0.261000000000000121,31.533321202627366375
0.262000000000000122,31.026087694169053322
0.263000000000000123,30.523491031745258795
0.264000000000000123,30.025565201020413042
0.265000000000000124,29.532349771493322521
0.266000000000000125,29.043889228228046306
0.267000000000000126,28.560232311396561045
0.268000000000000127,28.081431367501732410
0.269000000000000128,27.607541715723634468
0.270000000000000129,27.138621032421202273
0.271000000000000130,26.674728756427111165
0.272000000000000131,26.215925517399437439
0.273000000000000131,25.762272589137563017
0.274000000000000132,25.313831369435952467
0.275000000000000133,24.870662887735694113
0.276000000000000134,24.432827341541518251
0.277000000000000135,24.000383662302567700
0.278000000000000136,23.573389111205006685
0.279000000000000137,23.151898905097130665
0.280000000000000138,22.735965872560257139
0.281000000000000139,22.325640139950376550
0.282000000000000139,21.920968847067715757
0.283000000000000140,21.521995891961005043
0.284000000000000141,21.128761704240847763
0.285000000000000142,20.741303046160801671
0.286000000000000143,20.359652840624558934
0.287000000000000144,19.983840025192684209
0.288000000000000145,19.613889431090335336
0.289000000000000146,19.249821686159783951
0.290000000000000147,18.891653140653779985
0.291000000000000147,18.539395814731541634
0.292000000000000148,18.193057366492524807
0.293000000000000149,17.852641079367959520
0.294000000000000150,17.518145867681671035
0.295000000000000151,17.189566299192033938
0.296000000000000152,16.866892633433110404
0.297000000000000153,16.550110874686367879
0.298000000000000154,16.239202838431872067
0.299000000000000155,15.934146230151304380
0.300000000000000155,15.634914735381723716
0.301000000000000156,15.341478119950062720
0.302000000000000157,15.053802339351255668
0.303000000000000158,14.771849656269633755
0.304000000000000159,14.495578765280901834
0.305000000000000160,14.224944923812097741
0.306000000000000161,13.959900088477644076
0.307000000000000162,13.700393055951789023
0.308000000000000163,13.446369607579947925
0.309000000000000163,13.197772656974404271
0.310000000000000164,12.954542399882432946
0.311000000000000165,12.716616465657510915
0.312000000000000166,12.483930069706378418
0.313000000000000167,12.256416166326152606
0.314000000000000168,12.034005601386557061
0.315000000000000169,11.816627264352034032
0.316000000000000170,11.604208239177216555
0.317000000000000171,11.396673953647150412
0.318000000000000171,11.193948326769881163
0.319000000000000172,10.995953913864180862
0.320000000000000173,10.802612049019179707
0.321000000000000174,10.613842984634942468
0.322000000000000175,10.429566027784131776
0.323000000000000176,10.249699673164551328
0.324000000000000177,10.074161732440362726
0.325000000000000178,9.902869459796807661
0.326000000000000179,9.735739673558159168
0.327000000000000179,9.572688873742865923
0.328000000000000180,9.413633355452137863
0.329000000000000181,9.258489318009328173
0.330000000000000182,9.107172969787356465
0.331000000000000183,8.959600628679648793
0.332000000000000184,8.815688818187421560
0.333000000000000185,8.675354359111988600
0.334000000000000186,8.538514456855455848
0.335000000000000187,8.405086784346870843
0.336000000000000187,8.274989560623030371
0.337000000000000188,8.148141625105157715
0.338000000000000189,8.024462507622279972
0.339000000000000190,7.903872494242072833
0.340000000000000191,7.786292688978240228
0.341000000000000192,7.671645071451086650
0.342000000000000193,7.559852550584589714
0.343000000000000194,7.450839014429374352
0.344000000000000195,7.344529376206283544
0.345000000000000195,7.240849616669322586
0.346000000000000196,7.139726822891181435
0.347000000000000197,7.041089223577242429
0.348000000000000198,6.944866221016958718
0.349000000000000199,6.850988419783385908
0.350000000000000200,6.759387652293338711
0.351000000000000201,6.669997001341724463
0.352000000000000202,6.582750819724322078
0.353000000000000203,6.497584747063498867
0.354000000000000203,6.414435723951311452
0.355000000000000204,6.333242003524084396
0.356000000000000205,6.253943160581682648
0.357000000000000206,6.176480098363724025
0.358000000000000207,6.100795053093838405
0.359000000000000208,6.026831596401403424
0.360000000000000209,5.954534635728512271
0.361000000000000210,5.883850412828178555
0.362000000000000210,5.814726500457484626
0.363000000000000211,5.747111797367434605
0.364000000000000212,5.680956521688719008
0.365000000000000213,5.616212202810307197
0.366000000000000214,5.552831671845206429
0.367000000000000215,5.490769050775146098
0.368000000000000216,5.429979740363158669
0.369000000000000217,5.370420406920562328
0.370000000000000218,5.312048968011771066
0.371000000000000218,5.254824577177910072
0.372000000000000219,5.198707607757123483
0.373000000000000220,5.143659635876835168
0.374000000000000221,5.089643422690362407
0.375000000000000222,5.036622895927605370
0.376000000000000223,4.984563130826431987
0.377000000000000224,4.933430330509108508
0.378000000000000225,4.883191805864967705
0.379000000000000226,4.833815954998181397
0.380000000000000226,4.785272242296488621
0.381000000000000227,4.737531177174575170
0.382000000000000228,4.690564292542818592
0.383000000000000229,4.644344123049936712
0.384000000000000230,4.598844183145478937
0.385000000000000231,4.554038945005736139
0.386000000000000232,4.509903816364375650
0.387000000000000233,4.466415118286751529
0.388000000000000234,4.423550062924775261
0.389000000000000234,4.381286731286930802
0.390000000000000235,4.339604051056096701
0.391000000000000236,4.298481774485715334
0.392000000000000237,4.257900456403003631
0.393000000000000238,4.217841432345929675
0.394000000000000239,4.178286796858968088
0.395000000000000240,4.139219381970816514
0.396000000000000241,4.100622735875612435
0.397000000000000242,4.062481101837606801
0.398000000000000242,4.024779397337601594
0.399000000000000243,3.987503193478120433
0.400000000000000244,3.950638694662685246
0.401000000000000245,3.914172718563291742
0.402000000000000246,3.878092676388972926
0.403000000000000247,3.842386553466806909
0.404000000000000248,3.807042890145853953
0.405000000000000249,3.772050763033154119
0.406000000000000250,3.737399766569956761
0.407000000000000250,3.703079994955220222
0.408000000000000251,3.669082024422563482
0.409000000000000252,3.635396895875828704
0.410000000000000253,3.602016097887583701
0.411000000000000254,3.568931550064055269
0.412000000000000255,3.536135586779225459
0.413000000000000256,3.503620941279993239
0.414000000000000257,3.471380730163777795
0.415000000000000258,3.439408438229038190
0.416000000000000258,3.407697903698901687
0.417000000000000259,3.376243303817129338
0.418000000000000260,3.345039140815478707
0.419000000000000261,3.314080228250718019
0.420000000000000262,3.283361677709323967
0.421000000000000263,3.252878885877224402
0.422000000000000264,3.222627521971797471
0.423000000000000265,3.192603515532728142
0.424000000000000266,3.162803044568091249
0.425000000000000266,3.133222524051792135
0.426000000000000267,3.103858594767976431
0.427000000000000268,3.074708112498012014
0.428000000000000269,3.045768137545245668
0.429000000000000270,3.017035924592495810
0.430000000000000271,2.988508912887247959
0.431000000000000272,2.960184716749045819
0.432000000000000273,2.932061116393688938
0.433000000000000274,2.904136049068537950
0.434000000000000274,2.876407600493171568
0.435000000000000275,2.848873996599540881
0.436000000000000276,2.821533595565647534
0.437000000000000277,2.794384880136717264
0.438000000000000278,2.767426450227814083
0.439000000000000279,2.740657015801708951
0.440000000000000280,2.714075390015879385
0.441000000000000281,2.687680482632450740
0.442000000000000282,2.661471293684832595
0.443000000000000282,2.635446907394949356
0.444000000000000283,2.609606486334744346
0.445000000000000284,2.583949265825927988
0.446000000000000285,2.558474548571739504
0.447000000000000286,2.533181699514615026
0.448000000000000287,2.508070140913763346
0.449000000000000288,2.483139347636533767
0.450000000000000289,2.458388842657726947
0.451000000000000290,2.433818192760851318
0.452000000000000290,2.409427004435515052
0.453000000000000291,2.385214919965245706
0.454000000000000292,2.361181613699950610
0.455000000000000293,2.337326788507473552
0.456000000000000294,2.313650172398717508
0.457000000000000295,2.290151515320812514
0.458000000000000296,2.266830586113087520
0.459000000000000297,2.243687169620481647
0.460000000000000298,2.220721063959270047
0.461000000000000298,2.197932077930013328
0.462000000000000299,2.175320028572734987
0.463000000000000300,2.152884738859486724
0.464000000000000301,2.130626035519445516
0.465000000000000302,2.108543746991917711
0.466000000000000303,2.086637701502643605
0.467000000000000304,2.064907725258892768
0.468000000000000305,2.043353640759012713
0.469000000000000306,2.021975265212127670
0.470000000000000306,2.000772409063765522
0.471000000000000307,1.979744874623419859
0.472000000000000308,1.958892454790002402
0.473000000000000309,1.938214931871309998
0.474000000000000310,1.917712076493766293
0.475000000000000311,1.897383646598719720
0.476000000000000312,1.877229386521749088
0.477000000000000313,1.857249026151440274
0.478000000000000314,1.837442280164331310
0.479000000000000314,1.817808847332636590
0.480000000000000315,1.798348409901629807
0.481000000000000316,1.779060633033523020
0.482000000000000317,1.759945164314880683
0.483000000000000318,1.741001633324595232
0.484000000000000319,1.722229651259611583
0.485000000000000320,1.703628810615672950
0.486000000000000321,1.685198684920378387
0.487000000000000322,1.666938828516006055
0.488000000000000322,1.648848776389633120
0.489000000000000323,1.630928044048063130
0.490000000000000324,1.613176127435298923
0.491000000000000325,1.595592502890283981
0.492000000000000326,1.578176627142710675
0.493000000000000327,1.560927937344827710
0.494000000000000328,1.543845851137178204
0.495000000000000329,1.526929766746347283
0.496000000000000330,1.510179063112815356
0.497000000000000330,1.493593100047042155
0.498000000000000331,1.477171218412174802
0.499000000000000332,1.460912740331501203
0.500000000000000333,1.444816969419145725
0.501000000000000334,1.428883191032459532
0.502000000000000335,1.413110672544485080
0.503000000000000336,1.397498663635184268
0.504000000000000337,1.382046396599943439
0.505000000000000338,1.366753086674084239
0.506000000000000338,1.351617932372075392
0.507000000000000339,1.336640115840213694
0.508000000000000340,1.321818803221656236
0.509000000000000341,1.307153145032574182
0.510000000000000342,1.292642276548479519
0.511000000000000343,1.278285318199584353
0.512000000000000344,1.264081375974291266
0.513000000000000345,1.250029541829838609
0.514000000000000346,1.236128894109170817
0.515000000000000346,1.222378497963273913
0.516000000000000347,1.208777405778062919
0.517000000000000348,1.195324657605092655
0.518000000000000349,1.182019281595353855
0.519000000000000350,1.168860294435431602
0.520000000000000351,1.155846701785397723
0.521000000000000352,1.142977498717725693
0.522000000000000353,1.130251670156739774
0.523000000000000353,1.117668191317922943
0.524000000000000354,1.105226028146611972
0.525000000000000355,1.092924137755536318
0.526000000000000356,1.080761468860757857
0.527000000000000357,1.068736962215498965
0.528000000000000358,1.056849551041507684
0.529000000000000359,1.045098161457463704
0.530000000000000360,1.033481712904181338
0.531000000000000361,1.021999118566104148
0.532000000000000361,1.010649285788881580
0.533000000000000362,0.999431116492647931
0.534000000000000363,0.988343507580776048
0.535000000000000364,0.977385351343756370
0.536000000000000365,0.966555535858045212
0.537000000000000366,0.955852945379581320
0.538000000000000367,0.945276460731816592
0.539000000000000368,0.934824959687995394
0.540000000000000369,0.924497317347598324
0.541000000000000369,0.914292406506670652
0.542000000000000370,0.904209098022038638
0.543000000000000371,0.894246261169118539
0.544000000000000372,0.884402763993323959
0.545000000000000373,0.874677473654897897
0.546000000000000374,0.865069256767108774
0.547000000000000375,0.855576979727710851
0.548000000000000376,0.846199509043603859
0.549000000000000377,0.836935711648646885
0.550000000000000377,0.827784455214536807
0.551000000000000378,0.818744608454781697
0.552000000000000379,0.809815041421660831
0.553000000000000380,0.800994625796202064
0.554000000000000381,0.792282235171172022
0.555000000000000382,0.783676745327005708
0.556000000000000383,0.775177034500783346
0.557000000000000384,0.766781983648147758
0.558000000000000385,0.758490476698306049
0.559000000000000385,0.750301400802017127
0.560000000000000386,0.742213646572680963
0.561000000000000387,0.734226108320525706
0.562000000000000388,0.726337684279964924
0.563000000000000389,0.718547276830103110
0.564000000000000390,0.710853792708536991
0.565000000000000391,0.703256143218425334
0.566000000000000392,0.695753244428940931
0.567000000000000393,0.688344017369117323
0.568000000000000393,0.681027388215214913
0.569000000000000394,0.673802288471631039
0.570000000000000395,0.666667655145442462
0.571000000000000396,0.659622430914676872
0.572000000000000397,0.652665564290333178
0.573000000000000398,0.645796009772316548
0.574000000000000399,0.639012727999289210
0.575000000000000400,0.632314685892582551
0.576000000000000401,0.625700856794236704
0.577000000000000401,0.619170220599219667
0.578000000000000402,0.612721763881991510
0.579000000000000403,0.606354480017457842
0.580000000000000404,0.600067369296378716
0.581000000000000405,0.593859439035412273
0.582000000000000406,0.587729703681783455
0.583000000000000407,0.581677184912772205
0.584000000000000408,0.575700911730037679
0.585000000000000409,0.569799920548922367
0.586000000000000409,0.563973255282822938
0.587000000000000410,0.558219967422698415
0.588000000000000411,0.552539116111875339
0.589000000000000412,0.546929768216152468
0.590000000000000413,0.541390998389407185
0.591000000000000414,0.535921889134724827
0.592000000000000415,0.530521530861168267
0.593000000000000416,0.525189021936305234
0.594000000000000417,0.519923468734577843
0.595000000000000417,0.514723985681560858
0.596000000000000418,0.509589695294317302
0.597000000000000419,0.504519728217809993
0.598000000000000420,0.499513223257583072
0.599000000000000421,0.494569327408716231
0.600000000000000422,0.489687195881193638
0.601000000000000423,0.484865992121784717
0.602000000000000424,0.480104887832478233
0.603000000000000425,0.475403062985601477
0.604000000000000425,0.470759705835718301
0.605000000000000426,0.466174012928368853
0.606000000000000427,0.461645189105714615
0.607000000000000428,0.457172447509294089
0.608000000000000429,0.452755009579756895
0.609000000000000430,0.448392105053934731
0.610000000000000431,0.444082971959066430
0.611000000000000432,0.439826856604446259
0.612000000000000433,0.435623013570503481
0.613000000000000433,0.431470705695364998
0.614000000000000434,0.427369204059038998
0.615000000000000435,0.423317787965266035
0.616000000000000436,0.419315744921127276
0.617000000000000437,0.415362370614426990
0.618000000000000438,0.411456968889013730
0.619000000000000439,0.407598851718070587
