# ZnO10m10BOND_TANNIC-ARM-NEUTRAL-AC
# h[nm],U(h)[kJ/mol]
0.200000000000000011,100.773196660467576180
0.201000000000000012,99.345048650509170329
0.202000000000000013,97.663299432757597174
0.203000000000000014,95.884109118717816500
0.204000000000000015,94.092976937283978600
0.205000000000000016,92.331088631421749824
0.206000000000000016,90.613193723593298046
0.207000000000000017,88.939442562655159463
0.208000000000000018,87.302974403453106333
0.209000000000000019,85.694566059737184105
0.210000000000000020,84.105289271225302627
0.211000000000000021,82.527855423774056476
0.212000000000000022,80.957126677629318579
0.213000000000000023,79.390125934127325991
0.214000000000000024,77.825771360330179505
0.215000000000000024,76.264484391074546465
0.216000000000000025,74.707765597039625050
0.217000000000000026,73.157794731643804198
0.218000000000000027,71.617085245720829789
0.219000000000000028,70.088206269905313661
0.220000000000000029,68.573574026469259479
0.221000000000000030,67.075307997733474963
0.222000000000000031,65.595143584466967468
0.223000000000000032,64.134391439291078996
0.224000000000000032,62.693933437959586286
0.225000000000000033,61.274245843461940808
0.226000000000000034,59.875441266032886745
0.227000000000000035,58.497322281584118286
0.228000000000000036,57.139440879740007517
0.229000000000000037,55.801159168091849949
0.230000000000000038,54.481707901276806183
0.231000000000000039,53.180240401234030401
0.232000000000000040,51.895880277599431452
0.233000000000000040,50.627762046780730998
0.234000000000000041,49.375064294946028554
0.235000000000000042,48.137035448610504318
0.236000000000000043,46.913012523435938306
0.237000000000000044,45.702433434418338720
0.238000000000000045,44.504843585344971757
0.239000000000000046,43.319897527506711299
0.240000000000000047,42.147356500770804644
0.241000000000000048,40.987082656129594227
0.242000000000000048,39.839030717831320771
0.243000000000000049,38.703237783586345699
0.244000000000000050,37.579811889998872232
0.245000000000000051,36.468919892772063918
0.246000000000000052,35.370775131659684121
0.247000000000000053,34.285625271814602399
0.248000000000000054,33.213740638484182455
0.249000000000000055,32.155403292560166051
0.250000000000000056,31.110897031363140997
0.251000000000000056,30.080498442809574300
0.252000000000000057,29.064469091994716621
0.253000000000000058,28.063048877167506845
0.254000000000000059,27.076450556806843650
0.255000000000000060,26.104855420626080331
0.256000000000000061,25.148410054325573526
0.257000000000000062,24.207224130221273839
0.258000000000000063,23.281369142911646719
0.259000000000000064,22.370878000315158829
0.260000000000000064,21.475745375140981253
0.261000000000000065,20.595928719601317880
0.262000000000000066,19.731349846419902860
0.263000000000000067,18.881896981476536723
0.264000000000000068,18.047427197323834491
0.265000000000000069,17.227769141945195486
0.266000000000000070,16.422725983163768859
0.267000000000000071,15.632078495769693660
0.268000000000000071,14.855588225466771490
0.269000000000000072,14.093000670940373453
0.270000000000000073,13.344048432546097516
0.271000000000000074,12.608454283175264621
0.272000000000000075,11.885934123656493711
0.273000000000000076,11.176199791519961124
0.274000000000000077,10.478961698017316806
0.275000000000000078,9.793931273912702906
0.276000000000000079,9.120823209712231261
0.277000000000000079,8.459357480663229012
0.278000000000000080,7.809261151033250137
0.279000000000000081,7.170269955872520029
0.280000000000000082,6.542129661691556741
0.281000000000000083,5.924597210263491398
0.282000000000000084,5.317441652115503459
0.283000000000000085,4.720444878230359187
0.284000000000000086,4.133402160066319553
0.285000000000000087,3.556122509255334130
0.286000000000000087,2.988428869280673528
0.287000000000000088,2.430158152101514979
0.288000000000000089,1.881161133110724748
0.289000000000000090,1.341302218012081937
0.290000000000000091,0.810459095214594472
0.291000000000000092,0.288522287186061377
0.292000000000000093,-0.224605386085165254
0.293000000000000094,-0.729009418782768259
0.294000000000000095,-1.224764293879223143
0.295000000000000095,-1.711934209032169418
0.296000000000000096,-2.190573842759610645
0.297000000000000097,-2.660729150583387881
0.298000000000000098,-3.122438181549547664
0.299000000000000099,-3.575731906273389882
0.300000000000000100,-4.020635048402145806
0.301000000000000101,-4.457166912134029602
0.302000000000000102,-4.885342199166009536
0.303000000000000103,-5.305171809163359953
0.304000000000000103,-5.716663618539547187
0.305000000000000104,-6.119823233006924212
0.306000000000000105,-6.514654709999125437
0.307000000000000106,-6.901161247674076904
0.308000000000000107,-7.279345837779753303
0.309000000000000108,-7.649211880201505664
0.310000000000000109,-8.010763757509986149
0.311000000000000110,-8.364007368289716027
0.312000000000000111,-8.708950618454787573
0.313000000000000111,-9.045603870144462988
0.314000000000000112,-9.373980348144073105
0.315000000000000113,-9.694096504092694744
0.316000000000000114,-10.005972339021877104
0.317000000000000115,-10.309631685019606806
0.318000000000000116,-10.605102447032896507
0.319000000000000117,-10.892416806012146679
0.320000000000000118,-11.171611384762330843
0.321000000000000119,-11.442727378002746974
0.322000000000000119,-11.705810648248663242
0.323000000000000120,-11.960911789217860246
0.324000000000000121,-12.208086158534566579
0.325000000000000122,-12.447393881552818229
0.326000000000000123,-12.678899828154218454
0.327000000000000124,-12.902673564392079797
0.328000000000000125,-13.118789280857077628
0.329000000000000126,-13.327325699629398059
0.330000000000000127,-13.528365961661634742
0.331000000000000127,-13.721997496405649031
0.332000000000000128,-13.908311875456822904
0.333000000000000129,-14.087404651942350142
0.334000000000000130,-14.259375187326018164
0.335000000000000131,-14.424326467243911765
0.336000000000000132,-14.582364907920986496
0.337000000000000133,-14.733600154652261693
0.338000000000000134,-14.878144873762707334
0.339000000000000135,-15.016114539387098503
0.340000000000000135,-15.147627216339433431
0.341000000000000136,-15.272803340266170480
0.342000000000000137,-15.391765496204300234
0.343000000000000138,-15.504638196590539323
0.344000000000000139,-15.611547659695299117
0.345000000000000140,-15.712621589382347764
0.346000000000000141,-15.807988957024187826
0.347000000000000142,-15.897779786334123031
0.348000000000000143,-15.982124941808402596
0.349000000000000143,-16.061155921406623293
0.350000000000000144,-16.135004654035586924
0.351000000000000145,-16.203803302340958226
0.352000000000000146,-16.267684071253434297
0.353000000000000147,-16.326779022679971831
0.354000000000000148,-16.381219896678452130
0.355000000000000149,-16.431137939403491544
0.356000000000000150,-16.476663738063770381
0.357000000000000151,-16.517927063086766282
0.358000000000000151,-16.555056717644195174
0.359000000000000152,-16.588180394652493277
0.360000000000000153,-16.617424541325881648
0.361000000000000154,-16.642914231324802188
0.362000000000000155,-16.664773044511512978
0.363000000000000156,-16.683122954294852036
0.364000000000000157,-16.698084222519174347
0.365000000000000158,-16.709775301828518224
0.366000000000000159,-16.718312745413506093
0.367000000000000159,-16.723811124029175801
0.368000000000000160,-16.726382950152856921
0.369000000000000161,-16.726138609135240642
0.370000000000000162,-16.723186297182884630
0.371000000000000163,-16.717631965997931331
0.372000000000000164,-16.709579273889122675
0.373000000000000165,-16.699129543159020983
0.374000000000000166,-16.686381723564000623
0.375000000000000167,-16.671432361636441044
0.376000000000000167,-16.654375575653737940
0.377000000000000168,-16.635303036033729285
0.378000000000000169,-16.614303950933337006
0.379000000000000170,-16.591465056824990398
0.380000000000000171,-16.566870613824143277
0.381000000000000172,-16.540602405540923314
0.382000000000000173,-16.512739743229452927
0.383000000000000174,-16.483359474009645851
0.384000000000000175,-16.452535992938262410
0.385000000000000175,-16.420341258708287313
0.386000000000000176,-16.386844812759353118
0.387000000000000177,-16.352113801584817310
0.388000000000000178,-16.316213002025836687
0.389000000000000179,-16.279204849346690764
0.390000000000000180,-16.241149467890785729
0.391000000000000181,-16.202104704121602197
0.392000000000000182,-16.162126161858402895
0.393000000000000183,-16.121267239521891668
0.394000000000000183,-16.079579169211001499
0.395000000000000184,-16.037111057437666517
0.396000000000000185,-15.993909927352666145
0.397000000000000186,-15.950020762301537758
0.398000000000000187,-15.905486550555878011
0.399000000000000188,-15.860348331071552508
0.400000000000000189,-15.814645240131302018
0.401000000000000190,-15.768414558735846853
0.402000000000000191,-15.721691760613367705
0.403000000000000191,-15.674510560723579289
0.404000000000000192,-15.626902964138650987
0.405000000000000193,-15.578899315189033814
0.406000000000000194,-15.530528346768459613
0.407000000000000195,-15.481817229697790950
0.408000000000000196,-15.432791622053297687
0.409000000000000197,-15.383475718370458907
0.410000000000000198,-15.333892298639772989
0.411000000000000199,-15.284062777016131918
0.412000000000000199,-15.234007250168948744
0.413000000000000200,-15.183744545204561405
0.414000000000000201,-15.133292267097946393
0.415000000000000202,-15.082666845574735248
0.416000000000000203,-15.031883581389777760
0.417000000000000204,-14.980956691952224347
0.418000000000000205,-14.929899356251720377
0.419000000000000206,-14.878723759044230945
0.420000000000000207,-14.827441134259647271
0.421000000000000207,-14.776061807597660192
0.422000000000000208,-14.724595238281116494
0.423000000000000209,-14.673050059940297984
0.424000000000000210,-14.621434120604254403
0.425000000000000211,-14.569754521778644829
0.426000000000000212,-14.518017656592622444
0.427000000000000213,-14.466229246999665392
0.428000000000000214,-14.414394380020562281
0.429000000000000214,-14.362517543018643806
0.430000000000000215,-14.310602658000158627
0.431000000000000216,-14.258653114934876527
0.432000000000000217,-14.206671804093897293
0.433000000000000218,-14.154661147403919230
0.434000000000000219,-14.102623128818942533
0.435000000000000220,-14.050559323712196402
0.436000000000000221,-13.998470927292689936
0.437000000000000222,-13.946358782052252323
0.438000000000000222,-13.894223404250510612
0.439000000000000223,-13.842065009446475443
0.440000000000000224,-13.789883537086549126
0.441000000000000225,-13.737678674160013870
0.442000000000000226,-13.685449877934138030
0.443000000000000227,-13.633196397781679465
0.444000000000000228,-13.580917296114908055
0.445000000000000229,-13.528611468440610466
0.446000000000000230,-13.476277662551385816
0.447000000000000230,-13.423914496869381097
0.448000000000000231,-13.371520477958847906
0.449000000000000232,-13.319094017224546889
0.450000000000000233,-13.266633446813605346
0.451000000000000234,-13.214137034738453025
0.452000000000000235,-13.161602999239192968
0.453000000000000236,-13.109029522403563561
0.454000000000000237,-13.056414763063463269
0.455000000000000238,-13.003756868986439343
0.456000000000000238,-12.951053988381337589
0.457000000000000239,-12.898304280736947902
0.458000000000000240,-12.845505927012752068
0.459000000000000241,-12.792657139200668936
0.460000000000000242,-12.739756169276972741
0.461000000000000243,-12.686801317563091374
0.462000000000000244,-12.633790940514392886
0.463000000000000245,-12.580723457955226507
0.464000000000000246,-12.527597359779340636
0.465000000000000246,-12.474411212133519555
0.466000000000000247,-12.421163663102976926
0.467000000000000248,-12.367853447916289156
0.468000000000000249,-12.314479393687713937
0.469000000000000250,-12.261040423714309355
0.470000000000000251,-12.207535561345073560
0.471000000000000252,-12.153963933439015932
0.472000000000000253,-12.100324773428955183
0.473000000000000254,-12.046617424007106223
0.474000000000000254,-11.992841339448800042
0.475000000000000255,-11.938996087589737627
0.476000000000000256,-11.885081351472390310
0.477000000000000257,-11.831096930676451962
0.478000000000000258,-11.777042742348061921
0.479000000000000259,-11.722918821942188927
0.480000000000000260,-11.668725323692177298
0.481000000000000261,-11.614462520820008962
0.482000000000000262,-11.560130805500715923
0.483000000000000262,-11.505730688593834188
0.484000000000000263,-11.451262799154424243
0.485000000000000264,-11.396727883736007314
0.486000000000000265,-11.342126805497235509
0.487000000000000266,-11.287460543123804868
0.488000000000000267,-11.232730189576836111
0.489000000000000268,-11.177936950678567740
0.490000000000000269,-11.123082143545783396
0.491000000000000270,-11.068167194881219473
0.492000000000000270,-11.013193639132632384
0.493000000000000271,-10.958163116529149761
0.494000000000000272,-10.903077371003959684
0.495000000000000273,-10.847938248012152229
0.496000000000000274,-10.792747692252330438
0.497000000000000275,-10.737507745300018058
0.498000000000000276,-10.682220543160894977
0.499000000000000277,-10.626888313751376103
0.500000000000000222,-10.571513374313770584
0.501000000000000334,-10.516098128773119669
0.502000000000000224,-10.460645065042342594
0.503000000000000336,-10.405156752282096022
0.504000000000000226,-10.349635838121626463
0.505000000000000338,-10.294085045846287585
0.506000000000000227,-10.238507171557634123
0.507000000000000339,-10.182905081311130147
0.508000000000000229,-10.127281708236942848
0.509000000000000341,-10.071640049648321380
0.510000000000000231,-10.015983164142667761
0.511000000000000343,-9.960314168699218484
0.512000000000000233,-9.904636235777964259
0.513000000000000345,-9.848952590423426301
0.514000000000000234,-9.793266507377442309
0.515000000000000346,-9.737581308204067199
0.516000000000000236,-9.681900358430446829
0.517000000000000348,-9.626227064706345260
0.518000000000000238,-9.570564871985855149
0.519000000000000350,-9.514917260733504634
0.520000000000000240,-9.459287744157951039
0.521000000000000352,-9.403679865475357502
0.522000000000000242,-9.348097195204932319
0.523000000000000353,-9.292543328498707567
0.524000000000000243,-9.237021882507624682
0.525000000000000355,-9.181536493785682040
0.526000000000000245,-9.126090815734022144
0.527000000000000357,-9.070688516086281794
0.528000000000000247,-9.015333274436970967
0.529000000000000359,-8.960028779813871580
0.530000000000000249,-8.904778728296005141
0.531000000000000361,-8.849586820677878052
0.532000000000000250,-8.794456760181398991
0.533000000000000362,-8.739392250215932023
0.534000000000000252,-8.684396992187584985
0.535000000000000364,-8.629474683358157705
0.536000000000000254,-8.574629014754609813
0.537000000000000366,-8.519863669129120964
0.538000000000000256,-8.465182318970693842
0.539000000000000368,-8.410588624568045901
0.540000000000000258,-8.356086232124605218
0.541000000000000369,-8.301678771925223188
0.542000000000000259,-8.247369856555266665
0.543000000000000371,-8.193163079171634777
0.544000000000000261,-8.139062011826016629
0.545000000000000373,-8.085070203840134084
0.546000000000000263,-8.031191180232962523
0.547000000000000375,-7.977428440199437532
0.548000000000000265,-7.923785455640977027
0.549000000000000377,-7.870265669746745907
0.550000000000000266,-7.816872495626126849
0.551000000000000378,-7.763609314991363419
0.552000000000000268,-7.710479476890407469
0.553000000000000380,-7.657486296489198985
0.554000000000000270,-7.604633053903199880
0.555000000000000382,-7.551922993077250013
0.556000000000000272,-7.499359320713713473
0.557000000000000384,-7.446945205247719635
0.558000000000000274,-7.394683775869570930
0.559000000000000385,-7.342578121592987728
0.560000000000000275,-7.290631290369174344
0.561000000000000387,-7.238846288245535554
0.562000000000000277,-7.187226078568665244
0.563000000000000389,-7.135773581230729690
0.564000000000000279,-7.084491671958637937
0.565000000000000391,-7.033383181645120885
0.566000000000000281,-6.982450895721150630
0.567000000000000393,-6.931697553568707981
0.568000000000000282,-6.881125847973443399
0.569000000000000394,-6.830738424616039417
0.570000000000000284,-6.780537881601946815
0.571000000000000396,-6.730526769028267964
0.572000000000000286,-6.680707588587421419
0.573000000000000398,-6.631082793206329207
0.574000000000000288,-6.581654786720756434
0.575000000000000400,-6.532425923583706329
0.576000000000000290,-6.483398508607232991
0.577000000000000401,-6.434574796736733049
0.578000000000000291,-6.385956992857080294
0.579000000000000403,-6.337547251629613854
0.580000000000000293,-6.289347677359421240
0.581000000000000405,-6.241360323891784745
0.582000000000000295,-6.193587194537451879
0.583000000000000407,-6.146030242025463330
0.584000000000000297,-6.098691368483172504
0.585000000000000409,-6.051572425442357073
0.586000000000000298,-6.004675213870973138
0.587000000000000410,-5.958001484229437317
0.588000000000000300,-5.911552936551058401
0.589000000000000412,-5.865331220545503932
0.590000000000000302,-5.819337935724904654
0.591000000000000414,-5.773574631551611880
0.592000000000000304,-5.728042807607067743
0.593000000000000416,-5.682743913780891276
0.594000000000000306,-5.637679350479741558
0.595000000000000417,-5.592850468854949852
0.596000000000000307,-5.548258571048558352
0.597000000000000419,-5.503904910456811628
0.598000000000000309,-5.459790692010675350
0.599000000000000421,-5.415917072472529625
0.600000000000000311,-5.372285160748617727
0.601000000000000423,-5.328896018216332742
0.602000000000000313,-5.285750659066097867
0.603000000000000425,-5.242850050656779004
0.604000000000000314,-5.200195113884573672
0.605000000000000426,-5.157786723564193210
0.606000000000000316,-5.115625708822337359
0.607000000000000428,-5.073712853502422071
0.608000000000000318,-5.032048896580414876
0.609000000000000430,-4.990634532590828343
0.610000000000000320,-4.949470412062799696
0.611000000000000432,-4.908557141965258275
0.612000000000000322,-4.867895286161116886
0.613000000000000433,-4.827485365869646827
0.614000000000000323,-4.787327860136793234
0.615000000000000435,-4.747423206312786803
0.616000000000000325,-4.707771800536736606
0.617000000000000437,-4.668373998227608901
0.618000000000000327,-4.629230114581313948
0.619000000000000439,-4.590340425073272890
0.620000000000000329,-4.551705165966257738
0.621000000000000441,-4.513324534822947598
0.622000000000000330,-4.475198691022873376
0.623000000000000442,-4.437327756283303337
0.624000000000000332,-4.399711815183806607
0.625000000000000444,-4.362350915693981257
0.626000000000000334,-4.325245069704143575
0.627000000000000446,-4.288394253558473146
0.628000000000000336,-4.251798408590437894
0.629000000000000448,-4.215457441660031002
0.630000000000000338,-4.179371225692645631
0.631000000000000449,-4.143539600219099839
0.632000000000000339,-4.107962371916726418
0.633000000000000451,-4.072639315151032058
0.634000000000000341,-4.037570172517837008
0.635000000000000453,-4.002754655385432514
0.636000000000000343,-3.968192444436688504
0.637000000000000455,-3.933883190210673231
0.638000000000000345,-3.899826513643742665
0.639000000000000457,-3.866022006609580508
0.640000000000000346,-3.832469232458346031
0.641000000000000458,-3.799167726554271152
0.642000000000000348,-3.766116996811918138
0.643000000000000460,-3.733316524230511302
0.644000000000000350,-3.700765763426490107
0.645000000000000462,-3.668464143163777891
0.646000000000000352,-3.636411066881888310
0.647000000000000464,-3.604605913221357039
0.648000000000000353,-3.573048036546755846
0.649000000000000465,-3.541736767466603819
0.650000000000000355,-3.510671413350581638
0.651000000000000467,-3.479851258843390305
0.652000000000000357,-3.449275566375521240
0.653000000000000469,-3.418943576670493201
0.654000000000000359,-3.388854509248674596
0.655000000000000471,-3.359007562927335044
0.656000000000000361,-3.329401916317061172
0.657000000000000473,-3.300036728314129419
0.658000000000000362,-3.270911138589053913
