# Muscovite-001_NC4-AC
# h[nm],U(h)[kJ/mol]
0.149999999999999994,180.583324603345602100
0.150999999999999995,179.265481755098335270
0.151999999999999996,177.819811965999576842
0.152999999999999997,176.318374556300426548
0.153999999999999998,174.797052058703371813
0.154999999999999999,173.272066752110532661
0.156000000000000000,171.749468296661461864
0.157000000000000001,170.230421970052560710
0.158000000000000002,168.714043807142331843
0.159000000000000002,167.198841150552368617
0.160000000000000003,165.683386639373679827
0.161000000000000004,164.166588758602046028
0.162000000000000005,162.647762323533726203
0.163000000000000006,161.126608282212032464
0.164000000000000007,159.603158590715025866
0.165000000000000008,158.077712505827946643
0.166000000000000009,156.550775350685171361
0.167000000000000010,155.023003452692819337
0.168000000000000010,153.495155830879127734
0.169000000000000011,151.968052182733600830
0.170000000000000012,150.442536605718089504
0.171000000000000013,148.919446673554517702
0.172000000000000014,147.399587687784645595
0.173000000000000015,145.883712035793053019
0.174000000000000016,144.372503592480910584
0.175000000000000017,142.866567028136358886
0.176000000000000018,141.366421765154143486
0.177000000000000018,139.872500194127326267
0.178000000000000019,138.385149640514157454
0.179000000000000020,136.904637482422714356
0.180000000000000021,135.431158765695698776
0.181000000000000022,133.964845645641560168
0.182000000000000023,132.505778002247097902
0.183000000000000024,131.053994621668550735
0.184000000000000025,129.609504404132223954
0.185000000000000026,128.172297139803760047
0.186000000000000026,126.742353482931704889
0.187000000000000027,125.319653844794515862
0.188000000000000028,123.904186012976055054
0.189000000000000029,122.495951384729394817
0.190000000000000030,121.094969773244685030
0.191000000000000031,119.701282806090802069
0.192000000000000032,118.314955984351854568
0.193000000000000033,116.936079509095449680
0.194000000000000034,115.564768009359681855
0.195000000000000034,114.201159323741805451
0.196000000000000035,112.845412497056571510
0.197000000000000036,111.497705155667887311
0.198000000000000037,110.158230421262601340
0.199000000000000038,108.827193514298556920
0.200000000000000039,107.504808186286894056
0.201000000000000040,106.191293105538079544
0.202000000000000041,104.886868304943419616
0.203000000000000042,103.591751783587071145
0.204000000000000042,102.306156337153879576
0.205000000000000043,101.030286675745358593
0.206000000000000044,99.764336872260770406
0.207000000000000045,98.508488170238166504
0.208000000000000046,97.262907167191329449
0.209000000000000047,96.027744378146266513
0.210000000000000048,94.803133174323903631
0.211000000000000049,93.589189083738645536
0.212000000000000050,92.386009433827979365
0.213000000000000050,91.193673311023104588
0.214000000000000051,90.012241808302491108
0.215000000000000052,88.841758529117072385
0.216000000000000053,87.682250314507825806
0.217000000000000054,86.533728159612138597
0.218000000000000055,85.396188285942315588
0.219000000000000056,84.269613336685821992
0.220000000000000057,83.153973663691658658
0.221000000000000058,82.049228676664199611
0.222000000000000058,80.955328227266633689
0.223000000000000059,79.872214003255692205
0.224000000000000060,78.799820910334787527
0.225000000000000061,77.738078422055863825
0.226000000000000062,76.686911880755275206
0.227000000000000063,75.646243735122965290
0.228000000000000064,74.615994702537562944
0.229000000000000065,73.596084846710283500
0.230000000000000066,72.586434563452371549
0.231000000000000066,71.586965469482152002
0.232000000000000067,70.597601191116467589
0.233000000000000068,69.618268051431073218
0.234000000000000069,68.648895656027789869
0.235000000000000070,67.689417378909425338
0.236000000000000071,66.739770751144391170
0.237000000000000072,65.799897756004128269
0.238000000000000073,64.869745035088897112
0.239000000000000073,63.949264010632461464
0.240000000000000074,63.038410929698365237
0.241000000000000075,62.137146836372700420
0.242000000000000076,61.245437478320333469
0.243000000000000077,60.363253154226583774
0.244000000000000078,59.490568508699155359
0.245000000000000079,58.627362281172246128
0.246000000000000080,57.773617015246017559
0.247000000000000081,56.929318734719785766
0.248000000000000081,56.094456592350205426
0.249000000000000082,55.269022497092706203
0.250000000000000111,54.453010725276179471
0.251000000000000112,53.646417520824726921
0.252000000000000113,52.849240689284876282
0.253000000000000114,52.061479190047201371
0.254000000000000115,51.283132730774674712
0.255000000000000115,50.514201367671049070
0.256000000000000116,49.754685114846040506
0.257000000000000117,49.004583565663637046
0.258000000000000118,48.263895528599149998
0.259000000000000119,47.532618679782459026
0.260000000000000120,46.810749234070101465
0.261000000000000121,46.098281636172586673
0.262000000000000122,45.395208273062358728
0.263000000000000123,44.701519208607905398
0.264000000000000123,44.017201941116816499
0.265000000000000124,43.342241184229841622
0.266000000000000125,42.676618671385178061
0.267000000000000126,42.020312983870773849
0.268000000000000127,41.373299402299025473
0.269000000000000128,40.735549781175123485
0.270000000000000129,40.107032446084886601
0.271000000000000130,39.487712112899721717
0.272000000000000131,38.877549828286632305
0.273000000000000131,38.276502930715345485
0.274000000000000132,37.684525031075807533
0.275000000000000133,37.101566011953536872
0.276000000000000134,36.527572044557594211
0.277000000000000135,35.962485622256942008
0.278000000000000136,35.406245609650980555
0.279000000000000137,34.858787306082106738
0.280000000000000138,34.320042522489160319
0.281000000000000139,33.789939670499578028
0.282000000000000139,33.268403862665181236
0.283000000000000140,32.755357022760222208
0.284000000000000141,32.250718005080038608
0.285000000000000142,31.754402721703439028
0.286000000000000143,31.266324276711248586
0.287000000000000144,30.786393106387208718
0.288000000000000145,30.314517124462888376
0.289000000000000146,29.850601871508569474
0.290000000000000147,29.394550667612257655
0.291000000000000147,28.946264767532444040
0.292000000000000148,28.505643517553892252
0.293000000000000149,28.072584513320798294
0.294000000000000150,27.646983757966658857
0.295000000000000151,27.228735819905455884
0.296000000000000152,26.817733989693891772
0.297000000000000153,26.413870435418989047
0.298000000000000154,26.017036356108985018
0.299000000000000155,25.627122132708667124
0.300000000000000155,25.244017476201758399
0.301000000000000156,24.867611572504216610
0.302000000000000157,24.497793223790527151
0.303000000000000158,24.134450985953964874
0.304000000000000159,23.777473301937146033
0.305000000000000160,23.426748630704409493
0.306000000000000161,23.082165571660240744
0.307000000000000162,22.743612984349265815
0.308000000000000163,22.410980103303163702
0.309000000000000163,22.084156647927468242
0.310000000000000164,21.763032927347659040
0.311000000000000165,21.447499940158195386
0.312000000000000166,21.137449469041388994
0.313000000000000167,20.832774170243681056
0.314000000000000168,20.533367657917267479
0.315000000000000169,20.239124583352257503
0.316000000000000170,19.949940709141827710
0.317000000000000171,19.665712978337644756
0.318000000000000171,19.386339578666557770
0.319000000000000172,19.111720001892091858
0.320000000000000173,18.841755098415262637
0.321000000000000174,18.576347127219246858
0.322000000000000175,18.315399801271023961
0.323000000000000176,18.058818328500890971
0.324000000000000177,17.806509448487187086
0.325000000000000178,17.558381464979316178
0.326000000000000179,17.314344274396642476
0.327000000000000179,17.074309390444856405
0.328000000000000180,16.838189964994221270
0.329000000000000181,16.605900805366577089
0.330000000000000182,16.377358388179217741
0.331000000000000183,16.152480869894983329
0.332000000000000184,15.931188094227996643
0.333000000000000185,15.713401596554339434
0.334000000000000186,15.499044605476191450
0.335000000000000187,15.288042041686690453
0.336000000000000187,15.080320514281197575
0.337000000000000188,14.875808314658820919
0.338000000000000189,14.674435408155366289
0.339000000000000190,14.476133423546581724
0.340000000000000191,14.280835640557503652
0.341000000000000192,14.088476975510744182
0.342000000000000193,13.898993965242954829
0.343000000000000194,13.712324749415410352
0.344000000000000195,13.528409051341224512
0.345000000000000195,13.347188157447252621
0.346000000000000196,13.168604895485705342
0.347000000000000197,12.992603611605940017
0.348000000000000198,12.819130146393248992
0.349000000000000199,12.648131809977176232
0.350000000000000200,12.479557356308106364
0.351000000000000201,12.313356956696548394
0.352000000000000202,12.149482172705708294
0.353000000000000203,11.987885928483743569
0.354000000000000203,11.828522482618151201
0.355000000000000204,11.671347399590931815
0.356000000000000205,11.516317520909032268
0.357000000000000206,11.363390935980842045
0.358000000000000207,11.212526952805854208
0.359000000000000208,11.063686068540855345
0.360000000000000209,10.916829940002159560
0.361000000000000210,10.771921354160383544
0.362000000000000210,10.628924198680364199
0.363000000000000211,10.487803432555741878
0.364000000000000212,10.348525056884430029
0.365000000000000213,10.211056085828071005
0.366000000000000214,10.075364517795559749
0.367000000000000215,9.941419306887766538
0.368000000000000216,9.809190334637746034
0.369000000000000217,9.678648382078115731
0.370000000000000218,9.549765102164554875
0.371000000000000218,9.422512992581944857
0.372000000000000219,9.296865368957210052
0.373000000000000220,9.172796338500665669
0.374000000000000221,9.050280774095446290
0.375000000000000222,8.929294288852688055
0.376000000000000223,8.809813211147622170
0.377000000000000224,8.691814560150541880
0.378000000000000225,8.575276021864222997
0.379000000000000226,8.460175925678006692
0.380000000000000226,8.346493221446880995
0.381000000000000227,8.234207457102662886
0.382000000000000228,8.123298756802618925
0.383000000000000229,8.013747799619725498
0.384000000000000230,7.905535798777437506
0.385000000000000231,7.798644481430500264
0.386000000000000232,7.693056068992445873
0.387000000000000233,7.588753258009091951
0.388000000000000234,7.485719201576673143
0.389000000000000234,7.383937491302032363
0.390000000000000235,7.283392139801627252
0.391000000000000236,7.184067563735297313
0.392000000000000237,7.085948567369959150
0.393000000000000238,6.989020326667708005
0.394000000000000239,6.893268373892361467
0.395000000000000240,6.798678582727648134
0.396000000000000241,6.705237153899967772
0.397000000000000242,6.612930601298089073
0.398000000000000242,6.521745738581676832
0.399000000000000243,6.431669666270357411
0.400000000000000244,6.342689759304439789
0.401000000000000245,6.254793655068270120
0.402000000000000246,6.167969241867107044
0.403000000000000247,6.082204647847669676
0.404000000000000248,5.997488230352944427
0.405000000000000249,5.913808565701209830
0.406000000000000250,5.831154439379417909
0.407000000000000250,5.749514836640673643
0.408000000000000251,5.668878933495823169
0.409000000000000252,5.589236088088828325
0.410000000000000253,5.510575832445683275
0.411000000000000254,5.432887864586674276
0.412000000000000255,5.356162040991766737
0.413000000000000256,5.280388369408766103
0.414000000000000257,5.205557001994362665
0.415000000000000258,5.131658228777668640
0.416000000000000258,5.058682471436517503
0.417000000000000259,4.986620277376395904
0.418000000000000260,4.915462314102372332
0.419000000000000261,4.845199363874147735
0.420000000000000262,4.775822318634881825
0.421000000000000263,4.707322175204135206
0.422000000000000264,4.639690030725829750
0.423000000000000265,4.572917078362007004
0.424000000000000266,4.506994603223370532
0.425000000000000266,4.441913978527947116
0.426000000000000267,4.377666661979032980
0.427000000000000268,4.314244192354133034
0.428000000000000269,4.251638186296514910
0.429000000000000270,4.189840335301254548
0.430000000000000271,4.128842402887960006
0.431000000000000272,4.068636221952269594
0.432000000000000273,4.009213692288755126
0.433000000000000274,3.950566778277732283
0.434000000000000274,3.892687506728873981
0.435000000000000275,3.835567964874652347
0.436000000000000276,3.779200298506781852
0.437000000000000277,3.723576710249077770
0.438000000000000278,3.668689457960352396
0.439000000000000279,3.614530853261075372
0.440000000000000280,3.561093260177769615
0.441000000000000281,3.508369093899366131
0.442000000000000282,3.456350819639681937
0.443000000000000282,3.405030951600751088
0.444000000000000283,3.354402052031493220
0.445000000000000284,3.304456730376727158
0.446000000000000285,3.255187642511533141
0.447000000000000286,3.206587490056101331
0.448000000000000287,3.158649019766595067
0.449000000000000288,3.111365022997406804
0.450000000000000289,3.064728335230669565
0.451000000000000290,3.018731835668785557
0.452000000000000290,2.973368446886003547
0.453000000000000291,2.928631134535310210
0.454000000000000292,2.884512907106841162
0.455000000000000293,2.841006815734366420
0.456000000000000294,2.798105954046449906
0.457000000000000295,2.755803458058966093
0.458000000000000296,2.714092506105998392
0.459000000000000297,2.672966318806005326
0.460000000000000298,2.632418159060487817
0.461000000000000298,2.592441332082398908
0.462000000000000299,2.553029185451689553
0.463000000000000300,2.514175109195562197
0.464000000000000301,2.475872535890958570
0.465000000000000302,2.438114940787126095
0.466000000000000303,2.400895841946081966
0.467000000000000304,2.364208800398865051
0.468000000000000305,2.328047420315767280
0.469000000000000306,2.292405349188581631
0.470000000000000306,2.257276278023145899
0.471000000000000307,2.222653941540586597
0.472000000000000308,2.188532118385646985
0.473000000000000309,2.154904631340576415
0.474000000000000310,2.121765347543301594
0.475000000000000311,2.089108178708431129
0.476000000000000312,2.056927081349980480
0.477000000000000313,2.025216057004508574
0.478000000000000314,1.993969152453735294
0.479000000000000314,1.963180459945464751
0.480000000000000315,1.932844117411969931
0.481000000000000316,1.902954308684865037
0.482000000000000317,1.873505263705697699
0.483000000000000318,1.844491258731430605
0.484000000000000319,1.815906616534126217
0.485000000000000320,1.787745706594185524
0.486000000000000321,1.760002945286488707
0.487000000000000322,1.732672796058878806
0.488000000000000322,1.705749769602566968
0.489000000000000323,1.679228424013826437
0.490000000000000324,1.653103364946696630
0.491000000000000325,1.627369245756238980
0.492000000000000326,1.602020767632035270
0.493000000000000327,1.577052679721582251
0.494000000000000328,1.552459779243350102
0.495000000000000329,1.528236911589247571
0.496000000000000330,1.504378970416333949
0.497000000000000330,1.480880897727462342
0.498000000000000331,1.457737683940979911
0.499000000000000332,1.434944367949059885
0.500000000000000333,1.412496037164763463
0.501000000000000334,1.390387827557793221
0.502000000000000335,1.368614923678717066
0.503000000000000336,1.347172558671857479
0.504000000000000337,1.326056014276663975
0.505000000000000338,1.305260620817734862
0.506000000000000338,1.284781757183432349
0.507000000000000339,1.264614850793174927
0.508000000000000340,1.244755377553548481
0.509000000000000341,1.225198861803169281
0.510000000000000342,1.205940876246596405
0.511000000000000343,1.186977041877226302
0.512000000000000344,1.168303027889461720
0.513000000000000345,1.149914551580176303
0.514000000000000346,1.131807378239650941
0.515000000000000346,1.113977321032207479
0.516000000000000347,1.096420240866634810
0.517000000000000348,1.079132046256611854
0.518000000000000349,1.062108693171320395
0.519000000000000350,1.045346184876420947
0.520000000000000351,1.028840571765645029
0.521000000000000352,1.012587951183091972
0.522000000000000353,0.996584467236597882
0.523000000000000353,0.980826310602237683
0.524000000000000354,0.965309718320285226
0.525000000000000355,0.950030973582785876
0.526000000000000356,0.934986405513037133
0.527000000000000357,0.920172388937098185
0.528000000000000358,0.905585344147676330
0.529000000000000359,0.891221736660487318
0.530000000000000360,0.877078076963489495
0.531000000000000361,0.863150920259038501
0.532000000000000361,0.849436866199332341
0.533000000000000362,0.835932558615299470
0.534000000000000363,0.822634685239241215
0.535000000000000364,0.809539977421323775
0.536000000000000365,0.796645209840334267
0.537000000000000366,0.783947200208739092
0.538000000000000367,0.771442808972464755
0.539000000000000368,0.759128939005416448
0.540000000000000369,0.747002535299173820
0.541000000000000369,0.735060584647889037
0.542000000000000370,0.723300115328793569
0.543000000000000371,0.711718196778369672
0.544000000000000372,0.700311939264510519
0.545000000000000373,0.689078493554820093
0.546000000000000374,0.678015050581309731
0.547000000000000375,0.667118841101663973
0.548000000000000376,0.656387135357289542
0.549000000000000377,0.645817242728374152
0.550000000000000377,0.635406511386077399
0.551000000000000378,0.625152327942180008
0.552000000000000379,0.615052117096232309
0.553000000000000380,0.605103341280496365
0.554000000000000381,0.595303500302853283
0.555000000000000382,0.585650130987768858
0.556000000000000383,0.576140806815647943
0.557000000000000384,0.566773137560570128
0.558000000000000385,0.557544768926767964
0.559000000000000385,0.548453382183848204
0.560000000000000386,0.539496693801000515
0.561000000000000387,0.530672455080362426
0.562000000000000388,0.521978451789673281
0.563000000000000389,0.513412503794322350
0.564000000000000390,0.504972464689040779
0.565000000000000391,0.496656221429292111
0.566000000000000392,0.488461693962558563
0.567000000000000393,0.480386834859596046
0.568000000000000393,0.472429628945876423
0.569000000000000394,0.464588092933268193
0.570000000000000395,0.456860275052117071
0.571000000000000396,0.449244254683877020
0.572000000000000397,0.441738141994302780
0.573000000000000398,0.434340077567478389
0.574000000000000399,0.427048232040633635
0.575000000000000400,0.419860805739977583
0.576000000000000401,0.412776028317598964
0.577000000000000401,0.405792158389487345
0.578000000000000402,0.398907483174891053
0.579000000000000403,0.392120318137025081
0.580000000000000404,0.385429006625170434
0.581000000000000405,0.378831919518420102
0.582000000000000406,0.372327454870949870
0.583000000000000407,0.365914037559066818
0.584000000000000408,0.359590118930002478
0.585000000000000409,0.353354176452579105
0.586000000000000409,0.347204713369823226
0.587000000000000410,0.341140258353523240
0.588000000000000411,0.335159365160945188
0.589000000000000412,0.329260612293568844
0.590000000000000413,0.323442602658103151
0.591000000000000414,0.317703963229707009
0.592000000000000415,0.312043344717498172
0.593000000000000416,0.306459421232459062
0.594000000000000417,0.300950889957722956
0.595000000000000417,0.295516470821275079
0.596000000000000418,0.290154906171234739
0.597000000000000419,0.284864960453577787
0.598000000000000420,0.279645419892520064
0.599000000000000421,0.274495092173454247
0.600000000000000422,0.269412806128568216
0.601000000000000423,0.264397411425154438
0.602000000000000424,0.259447778256611694
0.603000000000000425,0.254562797036179067
0.604000000000000425,0.249741378093496780
0.605000000000000426,0.244982451373916416
0.606000000000000427,0.240284966140599465
0.607000000000000428,0.235647890679580835
0.608000000000000429,0.231070212007498998
0.609000000000000430,0.226550935582408519
0.610000000000000431,0.222089085017321330
0.611000000000000432,0.217683701796736268
0.612000000000000433,0.213333844996087041
0.613000000000000433,0.209038591004073820
0.614000000000000434,0.204797033247971078
0.615000000000000435,0.200608281921871079
0.616000000000000436,0.196471463717907968
0.617000000000000437,0.192385721560359879
