# Muscovite-001_LYSSCA-JS
# h[nm],U(h)[kJ/mol]
0.149999999999999994,118.023624770298212638
0.150999999999999995,116.903529467132145214
0.151999999999999996,115.674949036715105422
0.152999999999999997,114.439898945509412442
0.153999999999999998,113.223666321747259644
0.154999999999999999,112.021924813161419365
0.156000000000000000,110.823323036791450136
0.157000000000000001,109.618744565578907668
0.158000000000000002,108.403834589326606874
0.159000000000000002,107.178524802764854940
0.160000000000000003,105.945549211636858900
0.161000000000000004,104.708920755831968563
0.162000000000000005,103.472763003047475650
0.163000000000000006,102.240587905458610862
0.164000000000000007,101.014967891073553119
0.165000000000000008,99.797498156681939463
0.166000000000000009,98.588939918791425043
0.167000000000000010,97.389452060538275191
0.168000000000000010,96.198842662261014880
0.169000000000000011,95.016795738561910412
0.170000000000000012,93.843048635389777701
0.171000000000000013,92.677510817502351870
0.172000000000000014,91.520325297650700236
0.173000000000000015,90.371880407853495853
0.174000000000000016,89.232782875678893220
0.175000000000000017,88.103804122339482774
0.176000000000000018,86.985811112862933214
0.177000000000000018,85.879691581876699047
0.178000000000000019,84.786281501018621043
0.179000000000000020,83.706300579286690322
0.180000000000000021,82.640299616448061215
0.181000000000000022,81.588621793820991002
0.182000000000000023,80.551378552028182867
0.183000000000000024,79.528439590523973379
0.184000000000000025,78.519435716521385871
0.185000000000000026,77.523772740133125581
0.186000000000000026,76.540654316950295311
0.187000000000000027,75.569111534292730425
0.188000000000000028,74.608037079231976918
0.189000000000000029,73.656221975021509252
0.190000000000000030,72.712393092654863835
0.191000000000000031,71.775249906479515971
0.192000000000000032,70.843499243449542746
0.193000000000000033,69.915887056408806188
0.194000000000000034,68.991226519326772859
0.195000000000000034,68.068421987380446581
0.196000000000000035,67.146488581390329387
0.197000000000000036,66.224567341366793016
0.198000000000000037,65.301936046963618310
0.199000000000000038,64.378015924254171409
0.200000000000000039,63.452374550373370710
0.201000000000000040,62.524725332896778696
0.202000000000000041,61.594923982491806669
0.203000000000000042,60.662962418713640034
0.204000000000000042,59.728960553161186908
0.205000000000000043,58.793156384783287649
0.206000000000000044,57.855894821913878445
0.207000000000000045,56.917615617336593914
0.208000000000000046,55.978840768725696364
0.209000000000000047,55.040161699255520489
0.210000000000000048,54.102226493760880999
0.211000000000000049,53.165727426009333101
0.212000000000000050,52.231388973565550771
0.213000000000000050,51.299956479290599987
0.214000000000000051,50.372185583388159102
0.215000000000000052,49.448832517560717292
0.216000000000000053,48.530645323569281402
0.217000000000000054,47.618356032460880556
0.218000000000000055,46.712673817982789615
0.219000000000000056,45.814279118192629880
0.220000000000000057,44.923818702877397868
0.221000000000000058,44.041901650944502933
0.222000000000000058,43.169096191224788583
0.223000000000000059,42.305927351905218359
0.224000000000000060,41.452875357830940573
0.225000000000000061,40.610374710935332132
0.226000000000000062,39.778813886816898560
0.227000000000000063,38.958535579743561073
0.228000000000000064,38.149837428896553604
0.229000000000000065,37.352973160249121065
0.230000000000000066,36.568154080915405757
0.231000000000000066,35.795550865915522820
0.232000000000000067,35.035295580926892001
0.233000000000000068,34.287483888580183589
0.234000000000000069,33.552177390088964160
0.235000000000000070,32.829406058363005627
0.236000000000000071,32.119170723156528879
0.237000000000000072,31.421445573162817055
0.238000000000000073,30.736180644225964187
0.239000000000000073,30.063304266945266363
0.240000000000000074,29.402725450856070921
0.241000000000000075,28.754336186057081193
0.242000000000000076,28.118013646592167731
0.243000000000000077,27.493622283072216561
0.244000000000000078,26.881015794933130536
0.245000000000000079,26.280038975365108911
0.246000000000000080,25.690529424320864393
0.247000000000000081,25.112319127120230178
0.248000000000000081,24.545235898026582788
0.249000000000000082,23.989104689787716040
0.250000000000000111,23.443748771522017194
0.251000000000000112,22.908990778507508423
0.252000000000000113,22.384653638407208120
0.253000000000000114,21.870561379260877288
0.254000000000000115,21.366539825200170810
0.255000000000000115,20.872417186322088867
0.256000000000000116,20.388024549496858384
0.257000000000000117,19.913196277106745669
0.258000000000000118,19.447770320826641921
0.259000000000000119,18.991588457577339710
0.260000000000000120,18.544496454722288803
0.261000000000000121,18.106344171449876512
0.262000000000000122,17.676985603095872079
0.263000000000000123,17.256278874925929046
0.264000000000000123,16.844086191624079163
0.265000000000000124,16.440273748428722911
0.266000000000000125,16.044711609530136087
0.267000000000000126,15.657273558999786900
0.268000000000000127,15.277836929166445756
0.269000000000000128,14.906282410995277843
0.270000000000000129,14.542493850664166999
0.271000000000000130,14.186358036174173236
0.272000000000000131,13.837764477479362668
0.273000000000000131,13.496605183278381546
0.274000000000000132,13.162774437279162854
0.275000000000000133,12.836168576429795252
0.276000000000000134,12.516685773305081142
0.277000000000000135,12.204225824550743340
0.278000000000000136,11.898689947015714807
0.279000000000000137,11.599980582948658636
0.280000000000000138,11.308001215398245876
0.281000000000000139,11.022656194736658364
0.282000000000000139,10.743850577023797754
0.283000000000000140,10.471489974743986906
0.284000000000000141,10.205480420278407294
0.285000000000000142,9.945728242323445656
0.286000000000000143,9.692139955328041623
0.287000000000000144,9.444622161900602109
0.288000000000000145,9.203081468027390244
0.289000000000000146,8.967424410849817562
0.290000000000000147,8.737557398664801411
0.291000000000000147,8.513386662742428612
0.292000000000000148,8.294818220494757810
0.293000000000000149,8.081757849480624145
0.294000000000000150,7.874111071690810704
0.295000000000000151,7.671783147526736180
0.296000000000000152,7.474679078862014769
0.297000000000000153,7.282703620560224245
0.298000000000000154,7.095761299811980116
0.299000000000000155,6.913756442650691447
0.300000000000000155,6.736593207007389950
0.301000000000000156,6.564175621671031635
0.302000000000000157,6.396407630530315025
0.303000000000000158,6.233193141486800037
0.304000000000000159,6.074436079445257874
0.305000000000000160,5.920040442806660863
0.306000000000000161,5.769910362910159130
0.307000000000000162,5.623950165893590203
0.308000000000000163,5.482064436466626667
0.309000000000000163,5.344158083116167468
0.310000000000000164,5.210136404290047096
0.311000000000000165,5.079905155132128591
0.312000000000000166,4.953370614369060121
0.313000000000000167,4.830439650976405375
0.314000000000000168,4.711019790279108221
0.315000000000000169,4.595019279168234938
0.316000000000000170,4.482347150142440562
0.317000000000000171,4.372913283908809845
0.318000000000000171,4.266628470302917364
0.319000000000000172,4.163404467312635582
0.320000000000000173,4.063154058013937586
0.321000000000000174,3.965791105250004556
0.322000000000000175,3.871230603906570256
0.323000000000000176,3.779388730657689877
0.324000000000000177,3.690182891075772798
0.325000000000000178,3.603531764018890193
0.326000000000000179,3.519355343225841981
0.327000000000000179,3.437574976066565036
0.328000000000000180,3.358113399411071676
0.329000000000000181,3.280894772594683761
0.330000000000000182,3.205844707471226851
0.331000000000000183,3.132890295558236282
0.332000000000000184,3.061960132290120207
0.333000000000000185,2.992984338405805023
0.334000000000000186,2.925894578507240773
0.335000000000000187,2.860624076833969909
0.336000000000000187,2.797107630307011483
0.337000000000000188,2.735281618902654976
0.338000000000000189,2.675084013422894813
0.339000000000000190,2.616454380735086183
0.340000000000000191,2.559333886558371240
0.341000000000000192,2.503665295878549912
0.342000000000000193,2.449392971076775005
0.343000000000000194,2.396462867860395196
0.344000000000000195,2.344822529086965979
0.345000000000000195,2.294421076573896379
0.346000000000000196,2.245209200988160791
0.347000000000000197,2.197139149911093270
0.348000000000000198,2.150164714173927738
0.349000000000000199,2.104241212560007845
0.350000000000000200,2.059325474969136760
0.351000000000000201,2.015375824139212124
0.352000000000000202,1.972352056019307742
0.353000000000000203,1.930215418887251788
0.354000000000000203,1.888928591303351112
0.355000000000000204,1.848455658990429296
0.356000000000000205,1.808762090728357919
0.357000000000000206,1.769814713349358914
0.358000000000000207,1.731581685918305080
0.359000000000000208,1.694032473179859277
0.360000000000000209,1.657137818351861913
0.361000000000000210,1.620869715342115214
0.362000000000000210,1.585201380462853304
0.363000000000000211,1.550107223714808358
0.364000000000000212,1.515562819709889819
0.365000000000000213,1.481544878298961532
0.366000000000000214,1.448031214968271918
0.367000000000000215,1.415000721065512668
0.368000000000000216,1.382433333913513973
0.369000000000000217,1.350310006867056156
0.370000000000000218,1.318612679365305018
0.371000000000000218,1.287324247029885793
0.372000000000000219,1.256428531855710906
0.373000000000000220,1.225910252539178735
0.374000000000000221,1.195754994985668951
0.375000000000000222,1.165949183035853709
0.376000000000000223,1.136480049447492480
0.377000000000000224,1.107335607167411862
0.378000000000000225,1.078504620925565094
0.379000000000000226,1.049976579181020053
0.380000000000000226,1.021741666447265606
0.381000000000000227,0.993790736022250321
0.382000000000000228,0.966115283146246284
0.383000000000000229,0.938707418608714761
0.384000000000000230,0.911559842823379762
0.385000000000000231,0.884665820388673807
0.386000000000000232,0.858019155149128743
0.387000000000000233,0.831614165771262903
0.388000000000000234,0.805445661846118433
0.389000000000000234,0.779508920528715232
0.390000000000000235,0.753799663723392799
0.391000000000000236,0.728314035822384964
0.392000000000000237,0.703048582003678368
0.393000000000000238,0.678000227092818819
0.394000000000000239,0.653166254992143314
0.395000000000000240,0.628544288679639296
0.396000000000000241,0.604132270778602654
0.397000000000000242,0.579928444698155410
0.398000000000000242,0.555931336343683524
0.399000000000000243,0.532139736395378149
0.400000000000000244,0.508552683152115548
0.401000000000000245,0.485169445937094157
0.402000000000000246,0.461989509061048409
0.403000000000000247,0.439012556337833093
0.404000000000000248,0.416238456146853508
0.405000000000000249,0.393667247035957846
0.406000000000000250,0.371299123858019220
0.407000000000000250,0.349134424433783452
0.408000000000000251,0.327173616733200390
0.409000000000000252,0.305417286566966983
0.410000000000000253,0.283866125779640599
0.411000000000000254,0.262520920935346513
0.412000000000000255,0.241382542486800272
0.413000000000000256,0.220451934418010642
0.414000000000000257,0.199730104350974103
0.415000000000000258,0.179218114106184767
0.416000000000000258,0.158917070706957098
0.417000000000000259,0.138828117817026447
0.418000000000000260,0.118952427601132962
0.419000000000000261,0.099291192997904482
0.420000000000000262,0.079845620394511110
0.421000000000000263,0.060616922692317998
0.422000000000000264,0.041606312752943748
0.423000000000000265,0.022814997213951076
0.424000000000000266,0.004244170663446128
0.425000000000000266,-0.014104989836955711
0.426000000000000267,-0.032231329891533163
0.427000000000000268,-0.050133722582721488
0.428000000000000269,-0.067811072966681471
0.429000000000000270,-0.085262322262630599
0.430000000000000271,-0.102486451746121615
0.431000000000000272,-0.119482486356509196
0.432000000000000273,-0.136249498028574528
0.433000000000000274,-0.152786608758257281
0.434000000000000274,-0.169092993412225889
0.435000000000000275,-0.185167882290889513
0.436000000000000276,-0.201010563454320390
0.437000000000000277,-0.216620384820349676
0.438000000000000278,-0.231996756043943236
0.439000000000000279,-0.247139150186825807
0.440000000000000280,-0.262047105186080764
0.441000000000000281,-0.276720225130283493
0.442000000000000282,-0.291158181351648171
0.443000000000000282,-0.305360713342222145
0.444000000000000283,-0.319327629502328514
0.445000000000000284,-0.333058807728906670
0.446000000000000285,-0.346554195851443758
0.447000000000000286,-0.359813811922959415
0.448000000000000287,-0.372837744373168634
0.449000000000000288,-0.385626152030965952
0.450000000000000289,-0.398179264022991253
0.451000000000000290,-0.410497379554945752
0.452000000000000290,-0.422580867582154351
0.453000000000000291,-0.434430166375540605
0.454000000000000292,-0.446045782989168527
0.455000000000000293,-0.457428292635187639
0.456000000000000294,-0.468578337971860770
0.457000000000000295,-0.479496628310237927
0.458000000000000296,-0.490183938744717218
0.459000000000000297,-0.500641109212708879
0.460000000000000298,-0.510869043488321628
0.461000000000000298,-0.520868708114887613
0.462000000000000299,-0.530641131280925604
0.463000000000000300,-0.540187401643984488
0.464000000000000301,-0.549508667106686444
0.465000000000000302,-0.558606133549043871
0.466000000000000303,-0.567481063521020790
0.467000000000000304,-0.576134774899178415
0.468000000000000305,-0.584568639510986143
0.469000000000000306,-0.592784081730338697
0.470000000000000306,-0.600782577047664690
0.471000000000000307,-0.608565650617739484
0.472000000000000308,-0.616134875788358793
0.473000000000000309,-0.623491872612786269
0.474000000000000310,-0.630638306348738298
0.475000000000000311,-0.637575885946622067
0.476000000000000312,-0.644306362529547982
0.477000000000000313,-0.650831527867564263
0.478000000000000314,-0.657153212848358592
0.479000000000000314,-0.663273285946712421
0.480000000000000315,-0.669193651694673042
0.481000000000000316,-0.674916249154525083
0.482000000000000317,-0.680443050396313254
0.483000000000000318,-0.685776058981762859
0.484000000000000319,-0.690917308456217460
0.485000000000000320,-0.695868860850162085
0.486000000000000321,-0.700632805191820696
0.487000000000000322,-0.705211256032207467
0.488000000000000322,-0.709606351983882666
0.489000000000000323,-0.713820254274724730
0.490000000000000324,-0.717855145317754628
0.491000000000000325,-0.721713227298120374
0.492000000000000326,-0.725396720778196835
0.493000000000000327,-0.728907863321740290
0.494000000000000328,-0.732248908137895116
0.495000000000000329,-0.735422122745876261
0.496000000000000330,-0.738429787660954906
0.497000000000000330,-0.741274195102535893
0.498000000000000331,-0.743957647724704851
0.499000000000000332,-0.746482457369998631
0.500000000000000333,-0.748850943846740336
0.501000000000000334,-0.751065433730362164
0.502000000000000335,-0.753128259189175031
0.503000000000000336,-0.755041756834830546
0.504000000000000337,-0.756808266597813084
0.505000000000000338,-0.758430130628148902
0.506000000000000338,-0.759909692221586441
0.507000000000000339,-0.761249294771361162
0.508000000000000340,-0.762451280745663817
0.509000000000000341,-0.763517990690966042
0.510000000000000342,-0.764451762261134204
0.511000000000000343,-0.765254929272476403
0.512000000000000344,-0.765929820784601145
0.513000000000000345,-0.766478760207117471
0.514000000000000346,-0.766904064432105903
0.515000000000000346,-0.767208042992208794
0.516000000000000347,-0.767392997244258801
0.517000000000000348,-0.767461219578350673
0.518000000000000349,-0.767414992652075911
0.519000000000000350,-0.767256588649863014
0.520000000000000351,-0.766988268567105003
0.521000000000000352,-0.766612281518975425
0.522000000000000353,-0.766130864073562678
0.523000000000000353,-0.765546239609174006
0.524000000000000354,-0.764860617695500733
0.525000000000000355,-0.764076193498351985
0.526000000000000356,-0.763195147207670788
0.527000000000000357,-0.762219643488564857
0.528000000000000358,-0.761151830954958197
0.529000000000000359,-0.759993841665636882
0.530000000000000360,-0.758747790642247288
0.531000000000000361,-0.757415775408999736
0.532000000000000361,-0.755999875553669098
0.533000000000000362,-0.754502152309567742
0.534000000000000363,-0.752924648158091681
0.535000000000000364,-0.751269386451536514
0.536000000000000365,-0.749538371055735175
0.537000000000000366,-0.747733586012218288
0.538000000000000367,-0.745856995219432051
0.539000000000000368,-0.743910542132757535
0.540000000000000369,-0.741896149482789591
0.541000000000000369,-0.739815719011663320
0.542000000000000370,-0.737671131226877219
0.543000000000000371,-0.735464245172359421
0.544000000000000372,-0.733196898216317949
0.545000000000000373,-0.730870905855514730
0.546000000000000374,-0.728488061535568887
0.547000000000000375,-0.726050136486909414
0.548000000000000376,-0.723558879576000513
0.549000000000000377,-0.721016017171446477
0.550000000000000377,-0.718423253024619290
0.551000000000000378,-0.715782268164384283
0.552000000000000379,-0.713094720805621307
0.553000000000000380,-0.710362246271113218
0.554000000000000381,-0.707586456926429075
0.555000000000000382,-0.704768942127527276
0.556000000000000383,-0.701911268180560599
0.557000000000000384,-0.699014978313704405
0.558000000000000385,-0.696081592660494963
0.559000000000000385,-0.693112608254442986
0.560000000000000386,-0.690109499034519791
0.561000000000000387,-0.687073715861191259
0.562000000000000388,-0.684006686542642739
0.563000000000000389,-0.680909815870924584
0.564000000000000390,-0.677784485667600300
0.565000000000000391,-0.674632054838656847
0.566000000000000392,-0.671453859438303269
0.567000000000000393,-0.668251212741395650
0.568000000000000393,-0.665025405324124463
0.569000000000000394,-0.661777705152707396
0.570000000000000395,-0.658509357679782581
0.571000000000000396,-0.655221585948173812
0.572000000000000397,-0.651915590701813263
0.573000000000000398,-0.648592550503455545
0.574000000000000399,-0.645253621858988824
0.575000000000000400,-0.641899939347997717
0.576000000000000401,-0.638532615760359912
0.577000000000000401,-0.635152742238634049
0.578000000000000402,-0.631761388425914783
0.579000000000000403,-0.628359602618950741
0.580000000000000404,-0.624948411926319003
0.581000000000000405,-0.621528822431317463
0.582000000000000406,-0.618101819359452187
0.583000000000000407,-0.614668367250195469
0.584000000000000408,-0.611229410132869133
0.585000000000000409,-0.607785871706385983
0.586000000000000409,-0.604338655522647206
0.587000000000000410,-0.600888645173421887
0.588000000000000411,-0.597436704480429293
0.589000000000000412,-0.593983677688538103
0.590000000000000413,-0.590530389661771848
0.591000000000000414,-0.587077646082013405
0.592000000000000415,-0.583626233650218151
0.593000000000000416,-0.580176920289898645
0.594000000000000417,-0.576730455352778559
0.595000000000000417,-0.573287569826442800
0.596000000000000418,-0.569848976543724128
0.597000000000000419,-0.566415370393827167
0.598000000000000420,-0.562987428534875933
0.599000000000000421,-0.559565810607851155
0.600000000000000422,-0.556151158951708968
0.601000000000000423,-0.552744098819552110
0.602000000000000424,-0.549345238595738694
0.603000000000000425,-0.545955170013771030
0.604000000000000425,-0.542574468374834473
0.605000000000000426,-0.539203692766873854
0.606000000000000427,-0.535843386284114986
0.607000000000000428,-0.532494076246798786
0.608000000000000429,-0.529156274421223038
0.609000000000000430,-0.525830477239716432
0.610000000000000431,-0.522517166020705304
0.611000000000000432,-0.519216807188570884
0.612000000000000433,-0.515929852493282937
0.613000000000000433,-0.512656739229736091
0.614000000000000434,-0.509397890456649405
0.615000000000000435,-0.506153715214943234
