# Muscovite-001_AMAN-JS
# h[nm],U(h)[kJ/mol]
0.149999999999999994,185.728237096153549146
0.150999999999999995,184.384251565160411701
0.151999999999999996,182.664123324215523780
0.152999999999999997,180.880453001030446103
0.153999999999999998,179.135439151496115073
0.154999999999999999,177.437893842306635861
0.156000000000000000,175.764468387865377963
0.157000000000000001,174.088661344556982158
0.158000000000000002,172.392120408959584665
0.159000000000000002,170.666922975574863131
0.160000000000000003,168.913837999402460355
0.161000000000000004,167.139295971127893381
0.162000000000000005,165.352427263335670204
0.163000000000000006,163.562740479421421469
0.164000000000000007,161.778583215042374377
0.165000000000000008,160.006315630915622705
0.166000000000000009,158.250041414960094244
0.167000000000000010,156.511724018287139870
0.168000000000000010,154.791533674302712598
0.169000000000000011,153.088302205273691925
0.170000000000000012,151.399996627572420493
0.171000000000000013,149.724153335337632598
0.172000000000000014,148.058239764862832999
0.173000000000000015,146.399929404226952556
0.174000000000000016,144.747289287652506573
0.175000000000000017,143.098887613728976476
0.176000000000000018,141.453833883771096680
0.177000000000000018,139.811765953133942730
0.178000000000000019,138.172798473681183395
0.179000000000000020,136.537446068493068196
0.180000000000000021,134.906532749985643704
0.181000000000000022,133.281096957465479136
0.182000000000000023,131.662299418376449012
0.183000000000000024,130.051339002914033927
0.184000000000000025,128.449379945751388732
0.185000000000000026,126.857492299853134909
0.186000000000000026,125.276606277280308177
0.187000000000000027,123.707480207674876738
0.188000000000000028,122.150681179163100865
0.189000000000000029,120.606576983450395346
0.190000000000000030,119.075337728919208757
0.191000000000000031,117.556945375262515086
0.192000000000000032,116.051209446049909957
0.193000000000000033,114.557787261025396219
0.194000000000000034,113.076207171783750027
0.195000000000000034,111.605893461196799876
0.196000000000000035,110.146191761349683702
0.197000000000000036,108.696394043504909632
0.198000000000000037,107.255762426893937800
0.199000000000000038,105.823551234010167832
0.200000000000000039,104.399026884033787610
0.201000000000000040,102.981485360463878465
0.202000000000000041,101.570267112892423711
0.203000000000000042,100.164769356178481985
0.204000000000000042,98.764455813937829021
0.205000000000000043,97.368864018685059136
0.206000000000000044,95.977610329924047505
0.207000000000000045,94.590392865939520561
0.208000000000000046,93.206992567014950168
0.209000000000000047,91.827272619267532150
0.210000000000000048,90.451176471130622758
0.211000000000000049,89.078724670461355117
0.212000000000000050,87.710010740865641310
0.213000000000000050,86.345196302496248109
0.214000000000000051,84.984505626479545981
0.215000000000000052,83.628219794276574817
0.216000000000000053,82.276670614520909908
0.217000000000000054,80.930234430883658092
0.218000000000000055,79.589325935832633263
0.219000000000000056,78.254392087196890770
0.220000000000000057,76.925906207519375357
0.221000000000000058,75.604362330502027589
0.222000000000000058,74.290269844542976330
0.223000000000000059,72.984148470516714724
0.224000000000000060,71.686523599566072562
0.225000000000000061,70.397922006744224177
0.226000000000000062,69.118867947806009511
0.227000000000000063,67.849879639233520834
0.228000000000000064,66.591466115591927633
0.229000000000000065,65.344124453447250289
0.230000000000000066,64.108337347236414416
0.231000000000000066,62.884571019542292447
0.232000000000000067,61.673273446094810879
0.233000000000000068,60.474872874381638610
0.234000000000000069,59.289776613913637959
0.235000000000000070,58.118370075858059920
0.236000000000000071,56.961016039840771441
0.237000000000000072,55.818054126149455385
0.238000000000000073,54.689800452274823783
0.239000000000000073,53.576547453645744667
0.240000000000000074,52.478563849485183823
0.241000000000000075,51.396094735902124739
0.242000000000000076,50.329361789588553222
0.243000000000000077,49.278563566780817951
0.244000000000000078,48.243875883445227259
0.245000000000000079,47.225452263929035723
0.246000000000000080,46.223424446567626944
0.247000000000000081,45.237902935937370330
0.248000000000000081,44.268977592583574676
0.249000000000000082,43.316718252124140065
0.250000000000000111,42.381175366628049517
0.251000000000000112,41.462380662089536543
0.252000000000000113,40.560347806662498726
0.253000000000000114,39.675073085088982339
0.254000000000000115,38.806536075445492884
0.255000000000000115,37.954700324951836876
0.256000000000000116,37.119514022135597031
0.257000000000000117,36.300910663130522948
0.258000000000000118,35.498809710309856769
0.259000000000000119,34.713117241822246228
0.260000000000000120,33.943726590911865060
0.261000000000000121,33.190518974171865807
0.262000000000000122,32.453364108104231889
0.263000000000000123,31.732120813545741100
0.264000000000000123,31.026637607670870977
0.265000000000000124,30.336753283405442971
0.266000000000000125,29.662297476180533806
0.267000000000000126,29.003091218029634746
0.268000000000000127,28.358947479086008769
0.269000000000000128,27.729671696575774575
0.270000000000000129,27.115062291425992669
0.271000000000000130,26.514911172620564628
0.272000000000000131,25.929004229441233065
0.273000000000000131,25.357121811727861171
0.274000000000000132,24.799039198285072416
0.275000000000000133,24.254527053549722382
0.276000000000000134,23.723351872619794278
0.277000000000000135,23.205276414730015233
0.278000000000000136,22.700060125242398357
0.279000000000000137,22.207459546204148637
0.280000000000000138,21.727228715510563006
0.281000000000000139,21.259119554695654841
0.282000000000000139,20.802882245361661973
0.283000000000000140,20.358265594247320962
0.284000000000000141,19.925017386927265761
0.285000000000000142,19.502884730127995283
0.286000000000000143,19.091614382642074332
0.287000000000000144,18.690953074820765067
0.288000000000000145,18.300647816624980635
0.289000000000000146,17.920446194217912961
0.290000000000000147,17.550096655085990704
0.291000000000000147,17.189348781681889733
0.292000000000000148,16.837953553590544686
0.293000000000000149,16.495663598228876623
0.294000000000000150,16.162233430100197751
0.295000000000000151,15.837419678636038611
0.296000000000000152,15.520981304670764089
0.297000000000000153,15.212679805607772110
0.298000000000000154,14.912279409349698867
0.299000000000000155,14.619547257079702263
0.300000000000000155,14.334253574995020841
0.301000000000000156,14.056171835109205759
0.302000000000000157,13.785078905253310921
0.303000000000000158,13.520755188421279769
0.304000000000000159,13.262984751618509094
0.305000000000000160,13.011555444386512903
0.306000000000000161,12.766259007189626473
0.307000000000000162,12.526891169862331310
0.308000000000000163,12.293251740327860944
0.309000000000000163,12.065144683809869264
0.310000000000000164,11.842378192769540846
0.311000000000000165,11.624764747810104382
0.312000000000000166,11.412121169799682718
0.313000000000000167,11.204268663471291134
0.314000000000000168,11.001032852766048364
0.315000000000000169,10.802243808191837715
0.316000000000000170,10.607736066474966918
0.317000000000000171,10.417348642786974366
0.318000000000000171,10.230925035832436620
0.319000000000000172,10.048313226086019512
0.320000000000000173,9.869365667469493175
0.321000000000000174,9.693939272760259129
0.322000000000000175,9.521895393023296350
0.323000000000000176,9.353099791358305382
0.324000000000000177,9.187422611252411997
0.325000000000000178,9.024738339827475642
0.326000000000000179,8.864925766268067164
0.327000000000000179,8.707867935713775154
0.328000000000000180,8.553452098895567346
0.329000000000000181,8.401569657791810641
0.330000000000000182,8.252116107575350412
0.331000000000000183,8.104990975117475571
0.332000000000000184,7.960097754309596318
0.333000000000000185,7.817343838457560423
0.334000000000000186,7.676640449997090165
0.335000000000000187,7.537902567772833962
0.336000000000000187,7.401048852116369758
0.337000000000000188,7.266001567952065088
0.338000000000000189,7.132686506151992845
0.339000000000000190,7.001032903354198034
0.340000000000000191,6.870973360451181122
0.341000000000000192,6.742443759947720494
0.342000000000000193,6.615383182379727778
0.343000000000000194,6.489733821977954342
0.344000000000000195,6.365440901753228964
0.345000000000000195,6.242452588171315320
0.346000000000000196,6.120719905578856590
0.347000000000000197,6.000196650533367482
0.348000000000000198,5.880839306183320403
0.349000000000000199,5.762606956836441086
0.350000000000000200,5.645461202847254611
0.351000000000000201,5.529366075947399040
0.352000000000000202,5.414287955135318242
0.353000000000000203,5.300195483234650951
0.354000000000000203,5.187059484223924599
0.355000000000000204,5.074852881433418617
0.356000000000000205,4.963550616698492846
0.357000000000000206,4.853129570552050964
0.358000000000000207,4.743568483533107560
0.359000000000000208,4.634847878681830124
0.360000000000000209,4.526949985285836142
0.361000000000000210,4.419858663936986787
0.362000000000000210,4.313559332952114467
0.363000000000000211,4.208038896206157453
0.364000000000000212,4.103285672420879493
0.365000000000000213,3.999289325947595675
0.366000000000000214,3.896040799077562067
0.367000000000000215,3.793532245909283063
0.368000000000000216,3.691756967797452660
0.369000000000000217,3.590709350404564848
0.370000000000000218,3.490384802371811812
0.371000000000000218,3.390779695622619272
0.372000000000000219,3.291891307308265624
0.373000000000000220,3.193717763401879850
0.374000000000000221,3.096257983943834446
0.375000000000000222,2.999511629938807822
0.376000000000000223,2.903479051901293850
0.377000000000000224,2.808161240044595441
0.378000000000000225,2.713559776105009202
0.379000000000000226,2.619676786791138134
0.380000000000000226,2.526514898845663826
0.381000000000000227,2.434077195705225627
0.382000000000000228,2.342367175741885799
0.383000000000000229,2.251388712068036480
0.384000000000000230,2.161146013885016259
0.385000000000000231,2.071643589354045467
0.386000000000000232,1.982886209966968849
0.387000000000000233,1.894878876392779521
0.388000000000000234,1.807626785775075406
0.389000000000000234,1.721135300454237349
0.390000000000000235,1.635409918087545877
0.391000000000000236,1.550456243139385792
0.392000000000000237,1.466279959713138625
0.393000000000000238,1.382886805695622279
0.394000000000000239,1.300282548184555464
0.395000000000000240,1.218472960168890395
0.396000000000000241,1.137463798431674444
0.397000000000000242,1.057260782644653396
0.398000000000000242,0.977869575623720677
0.399000000000000243,0.899295764714139856
0.400000000000000244,0.821544844274280761
0.401000000000000245,0.744622199226665282
0.402000000000000246,0.668533089645306000
0.403000000000000247,0.593282636347903569
0.404000000000000248,0.518875807462228278
0.405000000000000249,0.445317405935661603
0.406000000000000250,0.372612057957443898
0.407000000000000250,0.300764202263159752
0.408000000000000251,0.229778080291490328
0.409000000000000252,0.159657727163510593
0.410000000000000253,0.090406963455053863
0.411000000000000254,0.022029387733307492
0.412000000000000255,-0.045471630171006618
0.413000000000000256,-0.112092955184093013
0.414000000000000257,-0.177831692329647906
0.415000000000000258,-0.242685191417019691
0.416000000000000258,-0.306651051103395633
0.417000000000000259,-0.369727122356464155
0.418000000000000260,-0.431911511343034960
0.419000000000000261,-0.493202581768965420
0.420000000000000262,-0.553598956694788980
0.421000000000000263,-0.613099519851340369
0.422000000000000264,-0.671703416478608428
0.423000000000000265,-0.729410053710989881
0.424000000000000266,-0.786219100531192594
0.425000000000000266,-0.842130487314559084
0.426000000000000267,-0.897144404985110833
0.427000000000000268,-0.951261303803926594
0.428000000000000269,-1.004481891809882566
0.429000000000000270,-1.056807132932367832
0.430000000000000271,-1.108238244794763627
0.431000000000000272,-1.158776696227224123
0.432000000000000273,-1.208424204506389099
0.433000000000000274,-1.257182732339404696
0.434000000000000274,-1.305054484608912269
0.435000000000000275,-1.352041904895105118
0.436000000000000276,-1.398147671790528124
0.437000000000000277,-1.443374695022670240
0.438000000000000278,-1.487726111398873785
0.439000000000000279,-1.531205280587631945
0.440000000000000280,-1.573815780749790338
0.441000000000000281,-1.615561404032596071
0.442000000000000282,-1.656446151939310552
0.443000000000000282,-1.696474230586153098
0.444000000000000283,-1.735650045858451396
0.445000000000000284,-1.773978198476844570
0.446000000000000285,-1.811463478984335129
0.447000000000000286,-1.848110862664422260
0.448000000000000287,-1.883925504399926565
0.449000000000000288,-1.918912733482069699
0.450000000000000289,-1.953078048378566134
0.451000000000000290,-1.986427111469319939
0.452000000000000290,-2.018965743757956677
0.453000000000000291,-2.050699919566747464
0.454000000000000292,-2.081635761222494718
0.455000000000000293,-2.111779533740293147
0.456000000000000294,-2.141137639511817348
0.457000000000000295,-2.169716613004588623
0.458000000000000296,-2.197523115477991063
0.459000000000000297,-2.224563929721931288
0.460000000000000298,-2.250845954823323503
0.461000000000000298,-2.276376200965535279
0.462000000000000299,-2.301161784265554733
0.463000000000000300,-2.325209921653244916
0.464000000000000301,-2.348527925797052607
0.465000000000000302,-2.371123200079956028
0.466000000000000303,-2.393003233629355631
0.467000000000000304,-2.414175596404445567
0.468000000000000305,-2.434647934344068343
0.469000000000000306,-2.454427964578144383
0.470000000000000306,-2.473523470705423222
0.471000000000000307,-2.491942298139941947
0.472000000000000308,-2.509692349528649391
0.473000000000000309,-2.526781580242277947
0.474000000000000310,-2.543217993941328636
0.475000000000000311,-2.559009638219007066
0.476000000000000312,-2.574164600322613072
0.477000000000000313,-2.588691002954864651
0.478000000000000314,-2.602597000156287255
0.479000000000000314,-2.615890773269913261
0.480000000000000315,-2.628580526989065635
0.481000000000000316,-2.640674485489213463
0.482000000000000317,-2.652180888644374512
0.483000000000000318,-2.663107988328798026
0.484000000000000319,-2.673464044804203077
0.485000000000000320,-2.683257323192948185
0.486000000000000321,-2.692496090037323153
0.487000000000000322,-2.701188609945062158
0.488000000000000322,-2.709343142320967068
0.489000000000000323,-2.716967938184729370
0.490000000000000324,-2.724071237074577656
0.491000000000000325,-2.730661264036567726
0.492000000000000326,-2.736746226699104945
0.493000000000000327,-2.742334312432348931
0.494000000000000328,-2.747433685591873065
0.495000000000000329,-2.752052484846147173
0.496000000000000330,-2.756198820587035581
0.497000000000000330,-2.759880772422882877
0.498000000000000331,-2.763106386753061194
0.499000000000000332,-2.765883674423579741
0.500000000000000333,-2.768220608462662380
0.501000000000000334,-2.770125121895403275
0.502000000000000335,-2.771605105636714139
0.503000000000000336,-2.772668406461450630
0.504000000000000337,-2.773322825050799523
0.505000000000000338,-2.773576114113809332
0.506000000000000338,-2.773435976583099372
0.507000000000000339,-2.772910063883543774
0.508000000000000340,-2.772005974272835793
0.509000000000000341,-2.770731251252935845
0.510000000000000342,-2.769093382050952901
0.511000000000000343,-2.767099796168599468
0.512000000000000344,-2.764757863998762222
0.513000000000000345,-2.762074895508131789
0.514000000000000346,-2.759058138984690434
0.515000000000000346,-2.755714779848683627
0.516000000000000347,-2.752051939525963498
0.517000000000000348,-2.748076674382481155
0.518000000000000349,-2.743795974718534758
0.519000000000000350,-2.739216763821727962
0.520000000000000351,-2.734345897077154142
0.521000000000000352,-2.729190161133829839
0.522000000000000353,-2.723756273125852445
0.523000000000000353,-2.718050879947227383
0.524000000000000354,-2.712080557579068074
0.525000000000000355,-2.705851810467891916
0.526000000000000356,-2.699371070953797247
0.527000000000000357,-2.692644698747370668
0.528000000000000358,-2.685678980453951148
0.529000000000000359,-2.678480129144245936
0.530000000000000360,-2.671054283969863441
0.531000000000000361,-2.663407509822787400
0.532000000000000361,-2.655545797037479172
0.533000000000000362,-2.647475061134492158
0.534000000000000363,-2.639201142604401973
0.535000000000000364,-2.630729806730999432
0.536000000000000365,-2.622066743452477144
0.537000000000000366,-2.613217567259642049
0.538000000000000367,-2.604187817129887783
0.539000000000000368,-2.594982956496043158
0.540000000000000369,-2.585608373248782677
0.541000000000000369,-2.576069379771797063
0.542000000000000370,-2.566371213008408425
0.543000000000000371,-2.556519034558857761
0.544000000000000372,-2.546517930807069341
0.545000000000000373,-2.536372913076006874
0.546000000000000374,-2.526088917810562329
0.547000000000000375,-2.515670806787064784
0.548000000000000376,-2.505123367348475849
0.549000000000000377,-2.494451312664268894
0.550000000000000377,-2.483659282014183844
0.551000000000000378,-2.472751841094827263
0.552000000000000379,-2.461733482348408497
0.553000000000000380,-2.450608625312584277
0.554000000000000381,-2.439381616990647927
0.555000000000000382,-2.428056732241295368
0.556000000000000383,-2.416638174186971355
0.557000000000000384,-2.405130074640243976
0.558000000000000385,-2.393536494547195748
0.559000000000000385,-2.381861424447241138
0.560000000000000386,-2.370108784948556480
0.561000000000000387,-2.358282427218398425
0.562000000000000388,-2.346386133487551540
0.563000000000000389,-2.334423617568378351
0.564000000000000390,-2.322398525385559687
0.565000000000000391,-2.310314435519039034
0.566000000000000392,-2.298174859758453703
0.567000000000000393,-2.285983243668453735
0.568000000000000393,-2.273742967164233075
0.569000000000000394,-2.261457345096734350
0.570000000000000395,-2.249129627846954804
0.571000000000000396,-2.236763001928673056
0.572000000000000397,-2.224360590599215648
0.573000000000000398,-2.211925454477557729
0.574000000000000399,-2.199460592169350637
0.575000000000000400,-2.186968940898281755
0.576000000000000401,-2.174453377143315436
0.577000000000000401,-2.161916717281382905
0.578000000000000402,-2.149361718234913177
0.579000000000000403,-2.136791078123844834
0.580000000000000404,-2.124207436921753178
0.581000000000000405,-2.111613377115431511
0.582000000000000406,-2.099011424367785317
0.583000000000000407,-2.086404048183395865
0.584000000000000408,-2.073793662576561836
0.585000000000000409,-2.061182626741282053
0.586000000000000409,-2.048573245722892011
0.587000000000000410,-2.035967771091043765
0.588000000000000411,-2.023368401613516276
0.589000000000000412,-2.010777283930772263
0.590000000000000413,-1.998196513230692473
0.591000000000000414,-1.985628133923330596
0.592000000000000415,-1.973074140315401737
0.593000000000000416,-1.960536477284061885
0.594000000000000417,-1.948017040949858725
0.595000000000000417,-1.935517679348587761
0.596000000000000418,-1.923040193101574813
0.597000000000000419,-1.910586336084486359
0.598000000000000420,-1.898157816094083739
0.599000000000000421,-1.885756295512943215
0.600000000000000422,-1.873383391971781720
0.601000000000000423,-1.861040679009217769
0.602000000000000424,-1.848729686728779908
0.603000000000000425,-1.836451902452954199
0.604000000000000425,-1.824208771374049132
0.605000000000000426,-1.812001697201744532
0.606000000000000427,-1.799832042807203880
0.607000000000000428,-1.787701130863350585
0.608000000000000429,-1.775610244481564681
0.609000000000000430,-1.763560627844149575
0.610000000000000431,-1.751553486832904571
0.611000000000000432,-1.739589989653321123
0.612000000000000433,-1.727671267454416792
0.613000000000000433,-1.715798414944117667
