# Muscovite-001_BUTENE1-AC
# h[nm],U(h)[kJ/mol]
0.149999999999999994,108.759869997709841982
0.150999999999999995,107.978412304842294134
0.151999999999999996,107.224487623162445971
0.152999999999999997,106.442739165370312548
0.153999999999999998,105.625630556767731605
0.154999999999999999,104.783413339040677670
0.156000000000000000,103.929664126459982754
0.157000000000000001,103.075358974234930542
0.158000000000000002,102.227310375152995903
0.159000000000000002,101.388581077346614734
0.160000000000000003,100.559583252677398946
0.161000000000000004,99.739221389354270286
0.162000000000000005,98.925807742757712049
0.163000000000000006,98.117678037878960140
0.164000000000000007,97.313531733158754378
0.165000000000000008,96.512559373726688250
0.166000000000000009,95.714426477663039350
0.167000000000000010,94.919175261384680198
0.168000000000000010,94.127091664046133701
0.169000000000000011,93.338570618785880129
0.170000000000000012,92.553999779625428346
0.171000000000000013,91.773671871333860395
0.172000000000000014,90.997728580930996145
0.173000000000000015,90.226134139491648511
0.174000000000000016,89.458673975397076106
0.175000000000000017,88.694972555468140740
0.176000000000000018,87.934524315838217490
0.177000000000000018,87.176732044209899186
0.178000000000000019,86.420947917033771546
0.179000000000000020,85.666513404698250156
0.180000000000000021,84.912795287050130355
0.181000000000000022,84.159215975897780027
0.182000000000000023,83.405277166810193989
0.183000000000000024,82.650576515415735912
0.184000000000000025,81.894817549895137176
0.185000000000000026,81.137813401017325532
0.186000000000000026,80.379485171114609443
0.187000000000000027,79.619855894727749046
0.188000000000000028,78.859041088032867606
0.189000000000000029,78.097236862406731461
0.190000000000000030,77.334706508356276800
0.191000000000000031,76.571766355691480044
0.192000000000000032,75.808771597612775395
0.193000000000000033,75.046102640922143223
0.194000000000000034,74.284152419938607181
0.195000000000000034,73.523314993749863788
0.196000000000000035,72.763975639113965599
0.197000000000000036,72.006502557038388090
0.198000000000000037,71.251240230958359234
0.199000000000000038,70.498504408725054304
0.200000000000000039,69.748578628802732737
0.201000000000000040,69.001712172190195815
0.202000000000000041,68.258119294339806515
0.203000000000000042,67.517979574291047129
0.204000000000000042,66.781439209845657956
0.205000000000000043,66.048613086384790449
0.206000000000000044,65.319587451438025028
0.207000000000000045,64.594423036041774822
0.208000000000000046,63.873158476093365721
0.209000000000000047,63.155813901282648715
0.210000000000000048,62.442394574885156544
0.211000000000000049,61.732894483993561607
0.212000000000000050,61.027299796048659175
0.213000000000000050,60.325592113339133959
0.214000000000000051,59.627751472107298980
0.215000000000000052,58.933759046772784984
0.216000000000000053,58.243599532387477780
0.217000000000000054,57.557263189665661685
0.218000000000000055,56.874747546745879845
0.219000000000000056,56.196058760242451058
0.220000000000000057,55.521212645172639100
0.221000000000000058,54.850235389074256886
0.222000000000000058,54.183163970141301036
0.223000000000000059,53.520046302610637667
0.224000000000000060,52.860941135037272431
0.225000000000000061,52.205917728616910267
0.226000000000000062,51.555055343463436657
0.227000000000000063,50.908442560838935265
0.228000000000000064,50.266176468870050087
0.229000000000000065,49.628361738364716871
0.230000000000000066,48.995109614061028935
0.231000000000000066,48.366536845076474549
0.232000000000000067,47.742764576556290024
0.233000000000000068,47.123917222609293276
0.234000000000000069,46.510121338625516785
0.235000000000000070,45.901504509042126756
0.236000000000000071,45.298194264602337000
0.237000000000000072,44.700317041172098698
0.238000000000000073,44.107997190268022791
0.239000000000000073,43.521356049630675500
0.240000000000000074,42.940511080464020210
0.241000000000000075,42.365575076370213026
0.242000000000000076,41.796655447543543005
0.243000000000000077,41.233853582455516573
0.244000000000000078,40.677264288064485243
0.245000000000000079,40.126975308517870644
0.246000000000000080,39.583066921380705594
0.247000000000000081,39.045611609614311988
0.248000000000000081,38.514673806840114878
0.249000000000000082,37.990309712847192714
0.250000000000000111,37.472567175832388386
0.251000000000000112,36.961485637488415534
0.252000000000000113,36.457096136773380124
0.253000000000000114,35.959421367993286367
0.254000000000000115,35.468475788701233853
0.255000000000000115,34.984265772854335808
0.256000000000000116,34.506789804663824839
0.257000000000000117,34.036038708619130944
0.258000000000000118,33.571995911254880696
0.259000000000000119,33.114637730354552048
0.260000000000000120,32.663933687439836717
0.261000000000000121,32.219846839575161823
0.262000000000000122,31.782334126717120881
0.263000000000000123,31.351346731053507000
0.264000000000000123,30.926830445002742920
0.265000000000000124,30.508726044778086361
0.266000000000000125,30.096969666657876985
0.267000000000000126,29.691493183340917028
0.268000000000000127,29.292224578002610258
0.269000000000000128,28.899088313899955693
0.270000000000000129,28.512005697600340426
0.271000000000000130,28.130895234128587390
0.272000000000000131,27.755672972538025789
0.273000000000000131,27.386252840613160231
0.274000000000000132,27.022546967602700363
0.275000000000000133,26.664465994062833687
0.276000000000000134,26.311919368059523805
0.277000000000000135,25.964815627137635801
0.278000000000000136,25.623062665610319755
0.279000000000000137,25.286567986857754420
0.280000000000000138,24.955238940448545293
0.281000000000000139,24.628982944008935618
0.282000000000000139,24.307707689868166767
0.283000000000000140,23.991321336598918634
0.284000000000000141,23.679732685654389712
0.285000000000000142,23.372851343374989597
0.286000000000000143,23.070587868701210255
0.287000000000000144,22.772853906983772987
0.288000000000000145,22.479562310328557118
0.289000000000000146,22.190627244953354591
0.290000000000000147,21.905964286065110258
0.291000000000000147,21.625490500792540871
0.292000000000000148,21.349124519728420069
0.293000000000000149,21.076786597650453814
0.294000000000000150,20.808398663998769251
0.295000000000000151,20.543884363693180717
0.296000000000000152,20.283169088874025476
0.297000000000000153,20.026180002147771830
0.298000000000000154,19.772846051912459586
0.299000000000000155,19.523097980329129797
0.300000000000000155,19.276868324494252249
0.301000000000000156,19.034091411354658874
0.302000000000000157,18.794703346890795359
0.303000000000000158,18.558642000077860246
0.304000000000000159,18.325846982115674422
0.305000000000000160,18.096259621399319428
0.306000000000000161,17.869822934682410676
0.307000000000000162,17.646481594864297904
0.308000000000000163,17.426181895811577505
0.309000000000000163,17.208871714602949510
0.310000000000000164,16.994500471565231692
0.311000000000000165,16.783019088446781808
0.312000000000000166,16.574379945053898666
0.313000000000000167,16.368536834654484835
0.314000000000000168,16.165444918432871901
0.315000000000000169,15.965060679259957865
0.316000000000000170,15.767341875022745867
0.317000000000000171,15.572247491738764325
0.318000000000000171,15.379737696662541424
0.319000000000000172,15.189773791573253803
0.320000000000000173,15.002318166416031886
0.321000000000000174,14.817334253453003257
0.322000000000000175,14.634786482064409796
0.323000000000000176,14.454640234325690784
0.324000000000000177,14.276861801471937952
0.325000000000000178,14.101418341348153973
0.326000000000000179,13.928277836930917033
0.327000000000000179,13.757409055995372782
0.328000000000000180,13.588781511990239537
0.329000000000000181,13.422365426173211489
0.330000000000000182,13.258131691049294787
0.331000000000000183,13.096051835145715359
0.332000000000000184,12.936097989148525045
0.333000000000000185,12.778242853418394276
0.334000000000000186,12.622459666895846198
0.335000000000000187,12.468722177399721218
0.336000000000000187,12.317004613316504091
0.337000000000000188,12.167281656673008428
0.338000000000000189,12.019528417579639523
0.339000000000000190,11.873720410027143402
0.340000000000000191,11.729833529015845528
0.341000000000000192,11.587844028992739354
0.342000000000000193,11.447728503568589176
0.343000000000000194,11.309463866484593453
0.344000000000000195,11.173027333795735316
0.345000000000000195,11.038396407235811836
0.346000000000000196,10.905548858727517114
0.347000000000000197,10.774462715999563400
0.348000000000000198,10.645116249271463715
0.349000000000000199,10.517487958965981321
0.350000000000000200,10.391556564408420016
0.351000000000000201,10.267300993471540238
0.352000000000000202,10.144700373124626580
0.353000000000000203,10.023734020845305182
0.354000000000000203,9.904381436852526477
0.355000000000000204,9.786622297119810909
0.356000000000000205,9.670436447127887192
0.357000000000000206,9.555803896316513502
0.358000000000000207,9.442704813195994973
0.359000000000000208,9.331119521079543233
0.360000000000000209,9.221028494398327169
0.361000000000000210,9.112412355562286237
0.362000000000000210,9.005251872330344298
0.363000000000000211,8.899527955654987110
0.364000000000000212,8.795221657967001505
0.365000000000000213,8.692314171867423056
0.366000000000000214,8.590786829194778207
0.367000000000000215,8.490621100436909430
0.368000000000000216,8.391798594457750227
0.369000000000000217,8.294301058510754387
0.370000000000000218,8.198110378511675123
0.371000000000000218,8.103208579544780576
0.372000000000000219,8.009577826577560344
0.373000000000000220,7.917200425360332972
0.374000000000000221,7.826058823488205363
0.375000000000000222,7.736135611604136209
0.376000000000000223,7.647413524722729505
0.377000000000000224,7.559875443655768024
0.378000000000000225,7.473504396521436277
0.379000000000000226,7.388283560320296317
0.380000000000000226,7.304196262562053121
0.381000000000000227,7.221225982928264564
0.382000000000000228,7.139356354957044459
0.383000000000000229,7.058571167736820584
0.384000000000000230,6.978854367597061348
0.385000000000000231,6.900190059784828911
0.386000000000000232,6.822562510116957135
0.387000000000000233,6.745956146598180325
0.388000000000000234,6.670355560996766187
0.389000000000000234,6.595745510369622977
0.390000000000000235,6.522110918529665291
0.391000000000000236,6.449436877449107541
0.392000000000000237,6.377708648592696150
0.393000000000000238,6.306911664175816057
0.394000000000000239,6.237031528342879660
0.395000000000000240,6.168054018261953431
0.396000000000000241,6.099965085132208920
0.397000000000000242,6.032750855101246756
0.398000000000000242,5.966397630089819160
0.399000000000000243,5.900891888522020068
0.400000000000000244,5.836220285959266008
0.401000000000000245,5.772369655637013430
0.402000000000000246,5.709327008903435363
0.403000000000000247,5.647079535559510255
0.404000000000000248,5.585614604100600289
0.405000000000000249,5.524919761859595546
0.406000000000000250,5.464982735052238638
0.407000000000000250,5.405791428725320813
0.408000000000000251,5.347333926608774490
0.409000000000000252,5.289598490872967851
0.410000000000000253,5.232573561792523087
0.411000000000000254,5.176247757318412468
0.412000000000000255,5.120609872560063280
0.413000000000000256,5.065648879179439845
0.414000000000000257,5.011353924699220030
0.415000000000000258,4.957714331727235191
0.416000000000000258,4.904719597099584050
0.417000000000000259,4.852359390944739559
0.418000000000000260,4.800623555671268861
0.419000000000000261,4.749502104881623943
0.420000000000000262,4.698985222214776769
0.421000000000000263,4.649063260120236407
0.422000000000000264,4.599726738566340067
0.423000000000000265,4.550966343685424853
0.424000000000000266,4.502772926358746375
0.425000000000000266,4.455137500743942880
0.426000000000000267,4.408051242747755616
0.427000000000000268,4.361505488446917767
0.428000000000000269,4.315491732459889818
0.429000000000000270,4.270001626272290629
0.430000000000000271,4.225026976518732269
0.431000000000000272,4.180559743223794200
0.432000000000000273,4.136592038004835992
0.433000000000000274,4.093116122239298882
0.434000000000000274,4.050124405199118094
0.435000000000000275,4.007609442154824286
0.436000000000000276,3.965563932451875218
0.437000000000000277,3.923980717561660558
0.438000000000000278,3.882852779109660535
0.439000000000000279,3.842173236883103637
0.440000000000000280,3.801935346820423778
0.441000000000000281,3.762132498984857243
0.442000000000000282,3.722758215524240022
0.443000000000000282,3.683806148619328980
0.444000000000000283,3.645270078422532034
0.445000000000000284,3.607143910989226043
0.446000000000000285,3.569421676203520466
0.447000000000000286,3.532097525700364393
0.448000000000000287,3.495165730785871006
0.449000000000000288,3.458620680357537225
0.450000000000000289,3.422456878826148685
0.451000000000000290,3.386668944040915896
0.452000000000000290,3.351251605219439877
0.453000000000000291,3.316199700884040258
0.454000000000000292,3.281508176805831400
0.455000000000000293,3.247172083957947653
0.456000000000000294,3.213186576479260648
0.457000000000000295,3.179546909649766828
0.458000000000000296,3.146248437878930382
0.459000000000000297,3.113286612708051404
0.460000000000000298,3.080656980827753078
0.461000000000000298,3.048355182111607942
0.462000000000000299,3.016376947666872699
0.463000000000000300,2.984718097903232170
0.464000000000000301,2.953374540620395727
0.465000000000000302,2.922342269115352664
0.466000000000000303,2.891617360310074325
0.467000000000000304,2.861195972900272722
0.468000000000000305,2.831074345525970593
0.469000000000000306,2.801248794964423361
0.470000000000000306,2.771715714345933890
0.471000000000000307,2.742471571393150676
0.472000000000000308,2.713512906684246051
0.473000000000000309,2.684836331940408716
0.474000000000000310,2.656438528338088023
0.475000000000000311,2.628316244846263583
0.476000000000000312,2.600466296589135418
0.477000000000000313,2.572885563234383888
0.478000000000000314,2.545570987407388852
0.479000000000000314,2.518519573131461353
0.480000000000000315,2.491728384294373821
0.481000000000000316,2.465194543141234984
0.482000000000000317,2.438915228793894663
0.483000000000000318,2.412887675796891784
0.484000000000000319,2.387109172690027759
0.485000000000000320,2.361577060607600753
0.486000000000000321,2.336288731904255567
0.487000000000000322,2.311241628807444215
0.488000000000000322,2.286433242096487017
0.489000000000000323,2.261861109808075643
0.490000000000000324,2.237522815968192358
0.491000000000000325,2.213415989350321578
0.492000000000000326,2.189538302259790736
0.493000000000000327,2.165887469344116134
0.494000000000000328,2.142461246429181010
0.495000000000000329,2.119257429381050439
0.496000000000000330,2.096273852993257414
0.497000000000000330,2.073508389899254123
0.498000000000000331,2.050958949509966711
0.499000000000000332,2.028623476976037399
0.500000000000000333,2.006499952174583434
0.501000000000000334,1.984586388720271710
0.502000000000000335,1.962880833000281822
0.503000000000000336,1.941381363233044111
0.504000000000000337,1.920086088550321479
0.505000000000000338,1.898993148102440243
0.506000000000000338,1.878100710186295430
0.507000000000000339,1.857406971395846096
0.508000000000000340,1.836910155794799993
0.509000000000000341,1.816608514111096806
0.510000000000000342,1.796500322952955475
0.511000000000000343,1.776583884046055717
0.512000000000000344,1.756857523491594408
0.513000000000000345,1.737319591044832467
0.514000000000000346,1.717968459413776738
0.515000000000000346,1.698802523577709334
0.516000000000000347,1.679820200125153873
0.517000000000000348,1.661019926610963982
0.518000000000000349,1.642400160932165010
0.519000000000000350,1.623959380722210799
0.520000000000000351,1.605696082763317545
0.521000000000000352,1.587608782416462860
0.522000000000000353,1.569696013068789808
0.523000000000000353,1.551956325597970476
0.524000000000000354,1.534388287853267308
0.525000000000000355,1.516990484152856755
0.526000000000000356,1.499761514797168127
0.527000000000000357,1.482699995597783538
0.528000000000000358,1.465804557421653609
0.529000000000000359,1.449073845750206146
0.530000000000000360,1.432506520253098214
0.531000000000000361,1.416101254376178620
0.532000000000000361,1.399856734943413006
0.533000000000000362,1.383771661772374539
0.534000000000000363,1.367844747303051056
0.535000000000000364,1.352074716239541452
0.536000000000000365,1.336460305204437704
0.537000000000000366,1.321000262405478853
0.538000000000000367,1.305693347314247799
0.539000000000000368,1.290538330356513885
0.540000000000000369,1.275533992614017675
0.541000000000000369,1.260679125537290890
0.542000000000000370,1.245972530669336109
0.543000000000000371,1.231413019379755225
0.544000000000000372,1.216999412609126807
0.545000000000000373,1.202730540623307753
0.546000000000000374,1.188605242777389437
0.547000000000000375,1.174622367289048341
0.548000000000000376,1.160780771020996527
0.549000000000000377,1.147079319272305664
0.550000000000000377,1.133516885578274680
0.551000000000000378,1.120092351518697793
0.552000000000000379,1.106804606534153690
0.553000000000000380,1.093652547750167958
0.554000000000000381,1.080635079808981214
0.555000000000000382,1.067751114708627380
0.556000000000000383,1.054999571649207546
0.557000000000000384,1.042379376885995246
0.558000000000000385,1.029889463589281462
0.559000000000000385,1.017528771710637159
0.560000000000000386,1.005296247855428815
0.561000000000000387,0.993190845161378455
0.562000000000000388,0.981211523182969336
0.563000000000000389,0.969357247781436948
0.564000000000000390,0.957626991020245955
0.565000000000000391,0.946019731065776748
0.566000000000000392,0.934534452093102375
0.567000000000000393,0.923170144196593156
0.568000000000000393,0.911925803305273064
0.569000000000000394,0.900800431102655841
0.570000000000000395,0.889793034950955630
0.571000000000000396,0.878902627819489579
0.572000000000000397,0.868128228217082132
0.573000000000000398,0.857468860128363763
0.574000000000000399,0.846923552953771641
0.575000000000000400,0.836491341453119097
0.576000000000000401,0.826171265692599688
0.577000000000000401,0.815962370995033992
0.578000000000000402,0.805863707893294645
0.579000000000000403,0.795874332086732750
0.580000000000000404,0.785993304400446902
0.581000000000000405,0.776219690747360969
0.582000000000000406,0.766552562092861933
0.583000000000000407,0.756990994422000352
0.584000000000000408,0.747534068709050037
0.585000000000000409,0.738180870889351137
0.586000000000000409,0.728930491833333694
0.587000000000000410,0.719782027322575013
0.588000000000000411,0.710734578027858888
0.589000000000000412,0.701787249489037146
0.590000000000000413,0.692939152096704980
0.591000000000000414,0.684189401075516956
0.592000000000000415,0.675537116469074994
0.593000000000000416,0.666981423126323358
0.594000000000000417,0.658521450689345866
0.595000000000000417,0.650156333582448176
0.596000000000000418,0.641885211002544698
0.597000000000000419,0.633707226910642296
0.598000000000000420,0.625621530024471295
0.599000000000000421,0.617627273812092703
0.600000000000000422,0.609723616486468112
0.601000000000000423,0.601909721000934539
0.602000000000000424,0.594184755045453761
0.603000000000000425,0.586547891043634473
0.604000000000000425,0.578998306150472097
0.605000000000000426,0.571535182250697105
0.606000000000000427,0.564157705957693323
0.607000000000000428,0.556865068613009884
0.608000000000000429,0.549656466286242540
0.609000000000000430,0.542531099775463210
0.610000000000000431,0.535488174607929190
0.611000000000000432,0.528526901041175945
0.612000000000000433,0.521646494064406996
0.613000000000000433,0.514846173400089202
0.614000000000000434,0.508125163505801836
0.615000000000000435,0.501482693576221661
0.616000000000000436,0.494917997545283650
0.617000000000000437,0.488430314088373396
0.618000000000000438,0.482018886624643872
