# Muscovite-001_CS-270-AC
# h[nm],U(h)[kJ/mol]
0.149999999999999994,72.868397378407109954
0.150999999999999995,71.369089839235542172
0.151999999999999996,70.093905974076932353
0.152999999999999997,68.876722386276711063
0.153999999999999998,67.648398664715713835
0.154999999999999999,66.390031661112558936
0.156000000000000000,65.105789507261562221
0.157000000000000001,63.807965572983071922
0.158000000000000002,62.509434460419370794
0.159000000000000002,61.220412404315958099
0.160000000000000003,59.947575304491053316
0.161000000000000004,58.694346879669772932
0.162000000000000005,57.461661818168849436
0.163000000000000006,56.248821248982018517
0.164000000000000007,55.054250543383226102
0.165000000000000008,53.876083692203131648
0.166000000000000009,52.712562369671651652
0.167000000000000010,51.562270158182556656
0.168000000000000010,50.424235764339726984
0.169000000000000011,49.297941532185234337
0.170000000000000012,48.183270318912974517
0.171000000000000013,47.080418021841431653
0.172000000000000014,45.989792605241419210
0.173000000000000015,44.911914399114628793
0.174000000000000016,43.847327225036885068
0.175000000000000017,42.796525720448208574
0.176000000000000018,41.759901071349268875
0.177000000000000018,40.737705116916181680
0.178000000000000019,39.730031309317709542
0.179000000000000020,38.736810140641509292
0.180000000000000021,37.757816238640238282
0.181000000000000022,36.792684255035815966
0.182000000000000023,35.840930817443606315
0.183000000000000024,34.901980103624268281
0.184000000000000025,33.975190959833476256
0.185000000000000026,33.059883875929550356
0.186000000000000026,32.155366515360000790
0.187000000000000027,31.260956856353448785
0.188000000000000028,30.376003318602613490
0.189000000000000029,29.499901521031812734
0.190000000000000030,28.632107539232123372
0.191000000000000031,27.772147707394776006
0.192000000000000032,26.919625142739533885
0.193000000000000033,26.074223265373472458
0.194000000000000034,25.235706648637631133
0.195000000000000034,24.403919569794005895
0.196000000000000035,23.578782643645517680
0.197000000000000036,22.760287917212629338
0.198000000000000037,21.948492786225834550
0.199000000000000038,21.143513067663775473
0.200000000000000039,20.345515530017401318
0.201000000000000040,19.554710146973100393
0.202000000000000041,18.771342302848474048
0.203000000000000042,17.995685140988648243
0.204000000000000042,17.228032210636396115
0.205000000000000043,16.468690534388326085
0.206000000000000044,15.717974187808668063
0.207000000000000045,14.976198455434175827
0.208000000000000046,14.243674603418076785
0.209000000000000047,13.520705288436843716
0.210000000000000048,12.807580605119984085
0.211000000000000049,12.104574759982130061
0.212000000000000050,11.411943348404243181
0.213000000000000050,10.729921202366080379
0.214000000000000051,10.058720770089211172
0.215000000000000052,9.398530984227701168
0.216000000000000053,8.749516572459985042
0.217000000000000054,8.111817763024671279
0.218000000000000055,7.485550337654930608
0.219000000000000056,6.870805985273046090
0.220000000000000057,6.267652911498117874
0.221000000000000058,5.676136661318954779
0.222000000000000058,5.096281115020473429
0.223000000000000059,4.528089620495302725
0.224000000000000060,3.971546228297959225
0.225000000000000061,3.426616999110486006
0.226000000000000062,2.893251356603928848
0.227000000000000063,2.371383461932792702
0.228000000000000064,1.860933589239363473
0.229000000000000065,1.361809484529433067
0.230000000000000066,0.873907693085648751
0.231000000000000066,0.397114843185194188
0.232000000000000067,-0.068691123722867078
0.233000000000000068,-0.523639784057404301
0.234000000000000069,-0.967867130089961392
0.235000000000000070,-1.401514538869500059
0.236000000000000071,-1.824727814557157490
0.237000000000000072,-2.237656305316229499
0.238000000000000073,-2.640452094763856117
0.239000000000000073,-3.033269267026590832
0.240000000000000074,-3.416263243640309977
0.241000000000000075,-3.789590189878231374
0.242000000000000076,-4.153406487568323868
0.243000000000000077,-4.507868271058408816
0.244000000000000078,-4.853131022689726848
0.245000000000000079,-5.189349223936276623
0.246000000000000080,-5.516676058244280867
0.247000000000000081,-5.835263161554601119
0.248000000000000081,-6.145260416497952960
0.249000000000000082,-6.446815786310454044
0.250000000000000111,-6.740075184616546089
0.251000000000000112,-7.025182377358627051
0.252000000000000113,-7.302278913313126729
0.253000000000000114,-7.571504079811082200
0.254000000000000115,-7.832994880477265554
0.255000000000000115,-8.086886032005384806
0.256000000000000116,-8.333309977197902896
0.257000000000000117,-8.572396911711566148
0.258000000000000118,-8.804274822161202607
0.259000000000000119,-9.029069533443358608
0.260000000000000120,-9.246904763344456768
0.261000000000000121,-9.457902182694017057
0.262000000000000122,-9.662181479511719573
0.263000000000000123,-9.859860425775014647
0.264000000000000123,-10.051054945602762913
0.265000000000000124,-10.235879183807849557
0.266000000000000125,-10.414445573918770904
0.267000000000000126,-10.586864904906077456
0.268000000000000127,-10.753246385974881250
0.269000000000000128,-10.913697708898665084
0.270000000000000129,-11.068325107473670599
0.271000000000000130,-11.217233413767271344
0.272000000000000131,-11.360526110917419373
0.273000000000000131,-11.498305382315608725
0.274000000000000132,-11.630672157071899164
0.275000000000000133,-11.757726151718710383
0.276000000000000134,-11.879565908160722998
0.277000000000000135,-11.996288827921279818
0.278000000000000136,-12.107991202773019879
0.279000000000000137,-12.214768241871075460
0.280000000000000138,-12.316714095532566020
0.281000000000000139,-12.413921875826673613
0.282000000000000139,-12.506483674155452590
0.283000000000000140,-12.594490576017365768
0.284000000000000141,-12.678032673153966314
0.285000000000000142,-12.757199073285125479
0.286000000000000143,-12.832077907640677239
0.287000000000000144,-12.902756336495960099
0.288000000000000145,-12.969320552916951073
0.289000000000000146,-13.031855784916123397
0.290000000000000147,-13.090446296215025868
0.291000000000000147,-13.145175385802454926
0.292000000000000148,-13.196125386469599761
0.293000000000000149,-13.243377662494429714
0.294000000000000150,-13.287012606638631596
0.295000000000000151,-13.327109636610618537
0.296000000000000152,-13.363747191137793635
0.297000000000000153,-13.397002725781472776
0.298000000000000154,-13.426952708617056587
0.299000000000000155,-13.453672615892278586
0.300000000000000155,-13.477236927765890329
0.301000000000000156,-13.497719124219338838
0.302000000000000157,-13.515191681224436593
0.303000000000000158,-13.529726067240565257
0.304000000000000159,-13.541392740106067194
0.305000000000000160,-13.550261144379897260
0.306000000000000161,-13.556399709181405910
0.307000000000000162,-13.559875846568649749
0.308000000000000163,-13.560755950487987320
0.309000000000000163,-13.559105396321324832
0.310000000000000164,-13.554988541050827067
0.311000000000000165,-13.548468724055112489
0.312000000000000166,-13.539608268545549663
0.313000000000000167,-13.528468483646335585
0.314000000000000168,-13.515109667117442882
0.315000000000000169,-13.499591108715492282
0.316000000000000170,-13.481971094183986537
0.317000000000000171,-13.462306909860817683
0.318000000000000171,-13.440654847888245271
0.319000000000000172,-13.417070212007974561
0.320000000000000173,-13.391607323921570938
0.321000000000000174,-13.364319530194638475
0.322000000000000175,-13.335259209681629144
0.323000000000000176,-13.304477781446692575
0.324000000000000177,-13.272025713154988580
0.325000000000000178,-13.237952529907925481
0.326000000000000179,-13.202306823495456811
0.327000000000000179,-13.165136262037714587
0.328000000000000180,-13.126487599988431398
0.329000000000000181,-13.086406688472456139
0.330000000000000182,-13.044938485929453265
0.331000000000000183,-13.002127069036703233
0.332000000000000184,-12.958015643883721069
0.333000000000000185,-12.912646557372152500
0.334000000000000186,-12.866061308815067932
0.335000000000000187,-12.818300561710097796
0.336000000000000187,-12.769404155662034128
0.337000000000000188,-12.719411118430787866
0.338000000000000189,-12.668359678081959174
0.339000000000000190,-12.616287275217787922
0.340000000000000191,-12.563230575267301248
0.341000000000000192,-12.509225480815519660
0.342000000000000193,-12.454307143952302539
0.343000000000000194,-12.398509978622742622
0.344000000000000195,-12.341867672961555513
0.345000000000000195,-12.284413201595446807
0.346000000000000196,-12.226178837897830221
0.347000000000000197,-12.167196166181733830
0.348000000000000198,-12.107496093817410099
0.349000000000000199,-12.047108863262218748
0.350000000000000200,-11.986064063991225481
0.351000000000000201,-11.924390644317950816
0.352000000000000202,-11.862116923095419097
0.353000000000000203,-11.799270601288718296
0.354000000000000203,-11.735878773410984621
0.355000000000000204,-11.671967938815438259
0.356000000000000205,-11.607564012837093159
0.357000000000000206,-11.542692337778365896
0.358000000000000207,-11.477377693733355812
0.359000000000000208,-11.411644309246614881
0.360000000000000209,-11.345515871802529517
0.361000000000000210,-11.279015538142179054
0.362000000000000210,-11.212165944405121820
0.363000000000000211,-11.144989216094051798
0.364000000000000212,-11.077506977860835491
0.365000000000000213,-11.009740363112873851
0.366000000000000214,-10.941710023439219057
0.367000000000000215,-10.873436137856188566
0.368000000000000216,-10.804938421872881449
0.369000000000000217,-10.736236136376991368
0.370000000000000218,-10.667348096341980224
0.371000000000000218,-10.598292679356733359
0.372000000000000219,-10.529087833979309252
0.373000000000000220,-10.459751087916497880
0.374000000000000221,-10.390299556031248329
0.375000000000000222,-10.320749948180104383
0.376000000000000223,-10.251118576883175848
0.377000000000000224,-10.181421364829182252
0.378000000000000225,-10.111673852218292069
0.379000000000000226,-10.041891203945613853
0.380000000000000226,-9.972088216628490542
0.381000000000000227,-9.902279325480391137
0.382000000000000228,-9.832478611034890292
0.383000000000000229,-9.762699805722775181
0.384000000000000230,-9.692956300305567652
0.385000000000000231,-9.623261150169005518
0.386000000000000232,-9.553627081479572070
0.387000000000000233,-9.484066497207694013
0.388000000000000234,-9.414591483020823048
0.389000000000000234,-9.345213813049975116
0.390000000000000235,-9.275944955532905212
0.391000000000000236,-9.206796078337486477
0.392000000000000237,-9.137778054368441261
0.393000000000000238,-9.068901466860912919
0.394000000000000239,-9.000176614563963895
0.395000000000000240,-8.931613516817336063
0.396000000000000241,-8.863221918524649467
0.397000000000000242,-8.795011295026016640
0.398000000000000242,-8.726990856873337421
0.399000000000000243,-8.659169554511073841
0.400000000000000244,-8.591556082865508870
0.401000000000000245,-8.524158885845400491
0.402000000000000246,-8.456986160756738258
0.403000000000000247,-8.390045862634318397
0.404000000000000248,-8.323345708492841055
0.405000000000000249,-8.256893181500052137
0.406000000000000250,-8.190695535074413058
0.407000000000000250,-8.124759796909739151
0.408000000000000251,-8.059092772929101756
0.409000000000000252,-7.993701051170313931
0.410000000000000253,-7.928591005605118092
0.411000000000000254,-7.863768799894216954
0.412000000000000255,-7.799240391080149770
0.413000000000000256,-7.735011533220024660
0.414000000000000257,-7.671087780959879865
0.415000000000000258,-7.607474493052609255
0.416000000000000258,-7.544176835821072125
0.417000000000000259,-7.481199786568105026
0.418000000000000260,-7.418548136935044113
0.419000000000000261,-7.356226496210192423
0.420000000000000262,-7.294239294588811262
0.421000000000000263,-7.232590786385946657
0.422000000000000264,-7.171285053203422244
0.423000000000000265,-7.110326007052262476
0.424000000000000266,-7.049717393431846446
0.425000000000000266,-6.989462794366771092
0.426000000000000267,-6.929565631402665460
0.427000000000000268,-6.870029168561916144
0.428000000000000269,-6.810856515260292454
0.429000000000000270,-6.752050629185456287
0.430000000000000271,-6.693614319138163182
0.431000000000000272,-6.635550247837057825
0.432000000000000273,-6.577860934687815408
0.433000000000000274,-6.520548758517418442
0.434000000000000274,-6.463615960274205818
0.435000000000000275,-6.407064645694438454
0.436000000000000276,-6.350896787935994325
0.437000000000000277,-6.295114230179710724
0.438000000000000278,-6.239718688199031860
0.439000000000000279,-6.184711752898459203
0.440000000000000280,-6.130094892821231767
0.441000000000000281,-6.075869456626785237
0.442000000000000282,-6.022036675538407380
0.443000000000000282,-5.968597665761431692
0.444000000000000283,-5.915553430872465768
0.445000000000000284,-5.862904864179918185
0.446000000000000285,-5.810652751056174736
0.447000000000000286,-5.758797771241835228
0.448000000000000287,-5.707340501122141418
0.449000000000000288,-5.656281415976060600
0.450000000000000289,-5.605620892198114547
0.451000000000000290,-5.555359209493319739
0.452000000000000290,-5.505496553045432506
0.453000000000000291,-5.456033015658663388
0.454000000000000292,-5.406968599873173353
0.455000000000000293,-5.358303220054414950
0.456000000000000294,-5.310036704456613244
0.457000000000000295,-5.262168797260483366
0.458000000000000296,-5.214699160585367643
0.459000000000000297,-5.167627376475976142
0.460000000000000298,-5.120952948863801701
0.461000000000000298,-5.074675305503447476
0.462000000000000299,-5.028793799883912286
0.463000000000000300,-4.983307713115014970
0.464000000000000301,-4.938216255789043885
0.465000000000000302,-4.893518569817818964
0.466000000000000303,-4.849213730245177878
0.467000000000000304,-4.805300747035085251
0.468000000000000305,-4.761778566835457305
0.469000000000000306,-4.718646074717751659
0.470000000000000306,-4.675902095892564780
0.471000000000000307,-4.633545397401144683
0.472000000000000308,-4.591574689783149310
0.473000000000000309,-4.549988628720554651
0.474000000000000310,-4.508785816657963075
0.475000000000000311,-4.467964804399305656
0.476000000000000312,-4.427524092681196066
0.477000000000000313,-4.387462133722837443
0.478000000000000314,-4.347777332752769119
0.479000000000000314,-4.308468049512496734
0.480000000000000315,-4.269532599737068779
0.481000000000000316,-4.230969256612836737
0.482000000000000317,-4.192776252212367716
0.483000000000000318,-4.154951778906749382
0.484000000000000319,-4.117493990755312971
0.485000000000000320,-4.080401004872996396
0.486000000000000321,-4.043670902775373222
0.487000000000000322,-4.007301731701543801
0.488000000000000322,-3.971291505914956055
0.489000000000000323,-3.935638207982384618
0.490000000000000324,-3.900339790031097209
0.491000000000000325,-3.865394174984435161
0.492000000000000326,-3.830799257775852507
0.493000000000000327,-3.796552906541681871
0.494000000000000328,-3.762652963792650240
0.495000000000000329,-3.729097247564391093
0.496000000000000330,-3.695883552547028383
0.497000000000000330,-3.663009651194063743
0.498000000000000331,-3.630473294810625084
0.499000000000000332,-3.598272214621368370
0.500000000000000333,-3.566404122818066291
0.501000000000000334,-3.534866713587130782
0.502000000000000335,-3.503657664117196369
0.503000000000000336,-3.472774635586978409
0.504000000000000337,-3.442215274133528347
0.505000000000000338,-3.411977211801089815
0.506000000000000338,-3.382058067470742113
0.507000000000000339,-3.352455447770972263
0.508000000000000340,-3.323166947969394158
0.509000000000000341,-3.294190152845807518
0.510000000000000342,-3.265522637546721008
0.511000000000000343,-3.237161968421605529
0.512000000000000344,-3.209105703840998469
0.513000000000000345,-3.181351394996695614
0.514000000000000346,-3.153896586684216352
0.515000000000000346,-3.126738818067712256
0.516000000000000347,-3.099875623427516214
0.517000000000000348,-3.073304532890607454
0.518000000000000349,-3.047023073144030647
0.519000000000000350,-3.021028768131639897
0.520000000000000351,-2.995319139734252012
0.521000000000000352,-2.969891708433464395
0.522000000000000353,-2.944743993959320072
0.523000000000000353,-2.919873515921999729
0.524000000000000354,-2.895277794427824070
0.525000000000000355,-2.870954350679661982
0.526000000000000356,-2.846900707562016297
0.527000000000000357,-2.823114390211012292
0.528000000000000358,-2.799592926569389739
0.529000000000000359,-2.776333847926839571
0.530000000000000360,-2.753334689445772199
0.531000000000000361,-2.730592990672807474
0.532000000000000361,-2.708106296036119520
0.533000000000000362,-2.685872155328910882
0.534000000000000363,-2.663888124179170092
0.535000000000000364,-2.642151764505921818
0.536000000000000365,-2.620660644962209851
0.537000000000000366,-2.599412341364969237
0.538000000000000367,-2.578404437112009173
0.539000000000000368,-2.557634523586341579
0.540000000000000369,-2.537100200547975248
0.541000000000000369,-2.516799076513470901
0.542000000000000370,-2.496728769123397473
0.543000000000000371,-2.476886905497879710
0.544000000000000372,-2.457271122580501288
0.545000000000000373,-2.437879067470690053
0.546000000000000374,-2.418708397744803396
0.547000000000000375,-2.399756781766122948
0.548000000000000376,-2.381021898983956220
0.549000000000000377,-2.362501440222005922
0.550000000000000377,-2.344193107956210831
0.551000000000000378,-2.326094616582273567
0.552000000000000379,-2.308203692673022722
0.553000000000000380,-2.290518075225838945
0.554000000000000381,-2.273035515900273751
0.555000000000000382,-2.255753779246130630
0.556000000000000383,-2.238670642922077292
0.557000000000000384,-2.221783897905090122
0.558000000000000385,-2.205091348690811248
0.559000000000000385,-2.188590813485066455
0.560000000000000386,-2.172280124386662958
0.561000000000000387,-2.156157127561694864
0.562000000000000388,-2.140219683409487761
0.563000000000000389,-2.124465666720374735
0.564000000000000390,-2.108892966825462789
0.565000000000000391,-2.093499487738567755
0.566000000000000392,-2.078283148290466897
0.567000000000000393,-2.063241882255661075
0.568000000000000393,-2.048373638471767677
0.569000000000000394,-2.033676380951741969
0.570000000000000395,-2.019148088989069834
0.571000000000000396,-2.004786757256074470
0.572000000000000397,-1.990590395895530662
0.573000000000000398,-1.976557030605682996
0.574000000000000399,-1.962684702718885621
0.575000000000000400,-1.948971469273934831
0.576000000000000401,-1.935415403082313857
0.577000000000000401,-1.922014592788458653
0.578000000000000402,-1.908767142924183702
0.579000000000000403,-1.895671173957409028
0.580000000000000404,-1.882724822335367865
0.581000000000000405,-1.869926240522362448
0.582000000000000406,-1.857273597032268686
0.583000000000000407,-1.844765076455875175
0.584000000000000408,-1.832398879483223109
0.585000000000000409,-1.820173222921043221
0.586000000000000409,-1.808086339705451850
0.587000000000000410,-1.796136478910000278
0.588000000000000411,-1.784321905749222337
0.589000000000000412,-1.772640901577793526
0.590000000000000413,-1.761091763885414663
0.591000000000000414,-1.749672806287550175
0.592000000000000415,-1.738382358512136960
0.593000000000000416,-1.727218766382359716
0.594000000000000417,-1.716180391795617766
0.595000000000000417,-1.705265612698823263
0.596000000000000418,-1.694472823060049649
0.597000000000000419,-1.683800432836764616
0.598000000000000420,-1.673246867940626048
0.599000000000000421,-1.662810570199039661
0.600000000000000422,-1.652489997313517645
0.601000000000000423,-1.642283622814979527
0.602000000000000424,-1.632189936016054332
0.603000000000000425,-1.622207441960521690
0.604000000000000425,-1.612334661369943634
0.605000000000000426,-1.602570130587603447
0.606000000000000427,-1.592912401519865906
0.607000000000000428,-1.583360041574953359
0.608000000000000429,-1.573911633599386350
0.609000000000000430,-1.564565775811969317
0.610000000000000431,-1.555321081735616229
