# Muscovite-001_CS-1057-AC
# h[nm],U(h)[kJ/mol]
0.149999999999999994,129.644349569785902077
0.150999999999999995,128.288484523533895754
0.151999999999999996,127.256338890758371463
0.152999999999999997,126.287631513552696561
0.153999999999999998,125.291867498738469067
0.154999999999999999,124.255536561462193390
0.156000000000000000,123.193221662312041076
0.157000000000000001,122.124114872724334191
0.158000000000000002,121.062545965186401986
0.159000000000000002,120.015700044180945838
0.160000000000000003,118.984588461440850438
0.161000000000000004,117.966122070496652441
0.162000000000000005,116.955207665853635035
0.163000000000000006,115.946407249594017230
0.164000000000000007,114.935036985037797308
0.165000000000000008,113.917749821700382995
0.166000000000000009,112.892714129969675696
0.167000000000000010,111.859514946473524333
0.168000000000000010,110.818891830131747156
0.169000000000000011,109.772403839173222195
0.170000000000000012,108.722086620285267600
0.171000000000000013,107.670143526990699456
0.172000000000000014,106.618693921153109727
0.173000000000000015,105.569587751192855762
0.174000000000000016,104.524285769555405068
0.175000000000000017,103.483798639173642187
0.176000000000000018,102.448674883045171669
0.177000000000000018,101.419026394451250894
0.178000000000000019,100.394580395215371027
0.179000000000000020,99.374747779760156163
0.180000000000000021,98.358699312033095907
0.181000000000000022,97.345442859698678717
0.182000000000000023,96.333896556498814334
0.183000000000000024,95.322954353457731713
0.184000000000000025,94.311541781983649457
0.185000000000000026,93.298660876285993027
0.186000000000000026,92.283424085857419072
0.187000000000000027,91.265077665871871204
0.188000000000000028,90.243015489457206968
0.189000000000000029,89.216784511186133955
0.190000000000000030,88.186083257345714514
0.191000000000000031,87.150754755935963658
0.192000000000000032,86.110775275531821649
0.193000000000000033,85.066240141197255298
0.194000000000000034,84.017347757810995290
0.195000000000000034,82.964382812880018037
0.196000000000000035,81.907699465059778277
0.197000000000000036,80.847705160872266106
0.198000000000000037,79.784845567463179350
0.199000000000000038,78.719590968331715430
0.200000000000000039,77.652424344590571081
0.201000000000000040,76.583831257788304470
0.202000000000000041,75.514291561852033396
0.203000000000000042,74.444272900663321479
0.204000000000000042,73.374225892967416485
0.205000000000000043,72.304580866186469734
0.206000000000000044,71.235745973490949723
0.207000000000000045,70.168106512353716653
0.208000000000000046,69.102025255943175353
0.209000000000000047,68.037843609372771425
0.210000000000000048,66.975883409411423486
0.211000000000000049,65.916449197324382681
0.212000000000000050,64.859830808782390932
0.213000000000000050,63.806306141154699674
0.214000000000000051,62.756143976056101508
0.215000000000000052,61.709606752993337864
0.216000000000000053,60.666953207737414289
0.217000000000000054,59.628440806158309329
0.218000000000000055,58.594327920342891503
0.219000000000000056,57.564875708623887363
0.220000000000000057,56.540349674508732392
0.221000000000000058,55.521020891329882829
0.222000000000000058,54.507166889703128732
0.223000000000000059,53.499072213605280979
0.224000000000000060,52.497028658114572863
0.225000000000000061,51.501335207684597606
0.226000000000000062,50.512297698345534513
0.227000000000000063,49.530228230561569092
0.228000000000000064,48.555444361744129367
0.229000000000000065,47.588268108749311125
0.230000000000000066,46.629024791204656708
0.231000000000000066,45.678041746328247541
0.232000000000000067,44.735646945143777486
0.233000000000000068,43.802167538760080845
0.234000000000000069,42.877928361773626875
0.235000000000000070,41.963250417956203364
0.236000000000000071,41.058449371287366603
0.237000000000000072,40.163834063151391263
0.238000000000000073,39.279705074204244397
0.239000000000000073,38.406353347080035121
0.240000000000000074,37.544058883789560355
0.241000000000000075,36.693089529407600935
0.242000000000000076,35.853699851476577010
0.243000000000000077,35.026130122494976149
0.244000000000000078,34.210605410931833603
0.245000000000000079,33.407334784418722506
0.246000000000000080,32.616510627135490097
0.247000000000000081,31.838308071920515374
0.248000000000000081,31.072884546310017839
0.249000000000000082,30.320379430537315102
0.250000000000000111,29.580913824500520093
0.251000000000000112,28.854590419830554282
0.252000000000000113,28.141493472452033586
0.253000000000000114,27.441688870423934787
0.254000000000000115,26.755224291360399036
0.255000000000000115,26.082129443360891230
0.256000000000000116,25.422416383110839178
0.257000000000000117,24.776079904639999540
0.258000000000000118,24.143097992137352747
0.259000000000000119,23.523432330208407848
0.260000000000000120,22.917028865014181349
0.261000000000000121,22.323818409843664057
0.262000000000000122,21.743717288833217083
0.263000000000000123,21.176628012751397279
0.264000000000000123,20.622439981007126164
0.265000000000000124,20.081030204308103038
0.266000000000000125,19.552264042687305334
0.267000000000000126,19.035995953924224722
0.268000000000000127,18.532070247707274291
0.269000000000000128,18.040321841212858089
0.270000000000000129,17.560577012107824402
0.271000000000000130,17.092654145313954217
0.272000000000000131,16.636364470202668286
0.273000000000000131,16.191512785210910863
0.274000000000000132,15.757898167185379279
0.275000000000000133,15.335314663067801888
0.276000000000000134,14.923551961828271928
0.277000000000000135,14.522396044836458628
0.278000000000000136,14.131629813127966955
0.279000000000000137,13.751033690277703059
0.280000000000000138,13.380386199831587390
0.281000000000000139,13.019464516471643378
0.282000000000000139,12.668044990298776398
0.283000000000000140,12.325903643810985244
0.284000000000000141,11.992816641333380545
0.285000000000000142,11.668560730819908855
0.286000000000000143,11.352913658095813432
0.287000000000000144,11.045654553745212212
0.288000000000000145,10.746564292968873389
0.289000000000000146,10.455425828846841796
0.290000000000000147,10.172024499535332609
0.291000000000000147,9.896148310012465643
0.292000000000000148,9.627588189059675727
0.293000000000000149,9.366138222228709509
0.294000000000000150,9.111595861596153867
0.295000000000000151,8.863762113151361532
0.296000000000000152,8.622441702698075972
0.297000000000000153,8.387443221177345976
0.298000000000000154,8.158579250338767963
0.299000000000000155,7.935666469700167980
0.300000000000000155,7.718525745742864430
0.301000000000000156,7.506982204290989280
0.302000000000000157,7.300865287019641769
0.303000000000000158,7.100008793029038756
0.304000000000000159,6.904250906409314048
0.305000000000000160,6.713434210705638172
0.306000000000000161,6.527405691174420710
0.307000000000000162,6.346016725700207139
0.308000000000000163,6.169123065219460855
0.309000000000000163,5.996584804471940089
0.310000000000000164,5.828266343873148791
0.311000000000000165,5.664036343273307850
0.312000000000000166,5.503767668338525709
0.313000000000000167,5.347337330260069521
0.314000000000000168,5.194626419466632505
0.315000000000000169,5.045520033983704522
0.316000000000000170,4.899907203052770832
0.317000000000000171,4.757680806592200717
0.318000000000000171,4.618737491050547206
0.319000000000000172,4.482977582172417819
0.320000000000000173,4.350304995166945687
0.321000000000000174,4.220627142739294513
0.322000000000000175,4.093854841416535884
0.323000000000000176,3.969902216571106202
0.324000000000000177,3.848686606517458308
0.325000000000000178,3.730128466031032985
0.326000000000000179,3.614151269612737138
0.327000000000000179,3.500681414797418789
0.328000000000000180,3.389648125780971188
0.329000000000000181,3.280983357617576868
0.330000000000000182,3.174621701217015701
0.331000000000000183,3.070500289350572398
0.332000000000000184,2.968558703854562886
0.333000000000000185,2.868738884201217587
0.334000000000000186,2.770985037588785449
0.335000000000000187,2.675243550685693084
0.336000000000000187,2.581462903147343724
0.337000000000000188,2.489593583009378275
0.338000000000000189,2.399588004046435685
0.339000000000000190,2.311400425172451811
0.340000000000000191,2.224986871945940248
0.341000000000000192,2.140305060232017720
0.342000000000000193,2.057314322061929879
0.343000000000000194,1.975975533720879085
0.344000000000000195,1.896251046085694059
0.345000000000000195,1.818104617224813868
0.346000000000000196,1.741501347265671074
0.347000000000000197,1.666407615526746655
0.348000000000000198,1.592791019905213323
0.349000000000000199,1.520620318504836588
0.350000000000000200,1.449865373483302022
0.351000000000000201,1.380497097093166925
0.352000000000000202,1.312487399886160588
0.353000000000000203,1.245809141046471336
0.354000000000000203,1.180436080815125965
0.355000000000000204,1.116342834964533015
0.356000000000000205,1.053504831279356457
0.357000000000000206,0.991898267997520788
0.358000000000000207,0.931500074163336578
0.359000000000000208,0.872287871842803875
0.360000000000000209,0.814239940149747099
0.361000000000000210,0.757335181030592497
0.362000000000000210,0.701553086754356015
0.363000000000000211,0.646873709054111568
0.364000000000000212,0.593277629865608835
0.365000000000000213,0.540745933608607787
0.366000000000000214,0.489260180956450796
0.367000000000000215,0.438802384039606141
0.368000000000000216,0.389354983029094104
0.369000000000000217,0.340900824046369455
0.370000000000000218,0.293423138346576517
0.371000000000000218,0.246905522723053134
0.372000000000000219,0.201331921081469301
0.373000000000000220,0.156686607133089517
0.374000000000000221,0.112954168157463467
0.375000000000000222,0.070119489786151415
0.376000000000000223,0.028167741759651220
0.377000000000000224,-0.012915635388528468
0.378000000000000225,-0.053144942765965819
0.379000000000000226,-0.092534234717475711
0.380000000000000226,-0.131097329626096049
0.381000000000000227,-0.168847819960188605
0.382000000000000228,-0.205799081606903744
0.383000000000000229,-0.241964282530792663
0.384000000000000230,-0.277356390795031771
0.385000000000000231,-0.311988181981584567
0.386000000000000232,-0.345872246045071940
0.387000000000000233,-0.379020993634086367
0.388000000000000234,-0.411446661912124700
0.389000000000000234,-0.443161319909294082
0.390000000000000235,-0.474176873434508372
0.391000000000000236,-0.504505069576717591
0.392000000000000237,-0.534157500822481035
0.393000000000000238,-0.563145608816020826
0.394000000000000239,-0.591480687786637871
0.395000000000000240,-0.619173887667355372
0.396000000000000241,-0.646236216927386642
0.397000000000000242,-0.672678545140031670
0.398000000000000242,-0.698511605306514793
0.399000000000000243,-0.723745995955187960
0.400000000000000244,-0.748392183034615632
0.401000000000000245,-0.772460501618037698
0.402000000000000246,-0.795961157435623345
0.403000000000000247,-0.818904228250355026
0.404000000000000248,-0.841299665092092752
0.405000000000000249,-0.863157293363854827
0.406000000000000250,-0.884486813833262553
0.407000000000000250,-0.905297803521558420
0.408000000000000251,-0.925599716501623426
0.409000000000000252,-0.945401884615822197
0.410000000000000253,-0.964713518123789249
0.411000000000000254,-0.983543706289537689
0.412000000000000255,-1.001901417916673198
0.413000000000000256,-1.019795501839935170
0.414000000000000257,-1.037234687380531373
0.415000000000000258,-1.054227584772414961
0.416000000000000258,-1.070782685565856873
0.417000000000000259,-1.086908363014388978
0.418000000000000260,-1.102612872450524639
0.419000000000000261,-1.117904351655379047
0.420000000000000262,-1.132790821226658640
0.421000000000000263,-1.147280184949343251
0.422000000000000264,-1.161380230172709860
0.423000000000000265,-1.175098628197197126
0.424000000000000266,-1.188442934674198259
0.425000000000000266,-1.201420590021402557
0.426000000000000267,-1.214038919856265109
0.427000000000000268,-1.226305135449618167
0.428000000000000269,-1.238226334201320888
0.429000000000000270,-1.249809500139598351
0.430000000000000271,-1.261061504445319503
0.431000000000000272,-1.271989106002476388
0.432000000000000273,-1.282598951975677082
0.433000000000000274,-1.292897578415439064
0.434000000000000274,-1.302891410891825696
0.435000000000000275,-1.312586765156755764
0.436000000000000276,-1.321989847835262966
0.437000000000000277,-1.331106757145722463
0.438000000000000278,-1.339943483649015832
0.439000000000000279,-1.348505911026440574
0.440000000000000280,-1.356799816886064658
0.441000000000000281,-1.364830873597102423
0.442000000000000282,-1.372604649151894396
0.443000000000000282,-1.380126608054775827
0.444000000000000283,-1.387402112237347218
0.445000000000000284,-1.394436421999271314
0.446000000000000285,-1.401234696973870708
0.447000000000000286,-1.407801997117749115
0.448000000000000287,-1.414143283723400923
0.449000000000000288,-1.420263420454043857
0.450000000000000289,-1.426167174399570303
0.451000000000000290,-1.431859217152695152
0.452000000000000290,-1.437344125904302050
0.453000000000000291,-1.442626384556846109
0.454000000000000292,-1.447710384854868693
0.455000000000000293,-1.452600427531477667
0.456000000000000294,-1.457300723469745263
0.457000000000000295,-1.461815394877969521
0.458000000000000296,-1.466148476477633356
0.459000000000000297,-1.470303916703090685
0.460000000000000298,-1.474285578911801897
0.461000000000000298,-1.478097242604140993
0.462000000000000299,-1.481742604651653306
0.463000000000000300,-1.485225280532722403
0.464000000000000301,-1.488548805574670508
0.465000000000000302,-1.491716636201227519
0.466000000000000303,-1.494732151184346991
0.467000000000000304,-1.497598652899500893
0.468000000000000305,-1.500319368583354684
0.469000000000000306,-1.502897451592977607
0.470000000000000306,-1.505335982665693573
0.471000000000000307,-1.507637971178570790
0.472000000000000308,-1.509806356406811823
0.473000000000000309,-1.511844008780135251
0.474000000000000310,-1.513753731136344260
0.475000000000000311,-1.515538259971296986
0.476000000000000312,-1.517200266684537668
0.477000000000000313,-1.518742358819828997
0.478000000000000314,-1.520167081299862888
0.479000000000000314,-1.521476917654542849
0.480000000000000315,-1.522674291242070543
0.481000000000000316,-1.523761566462340955
0.482000000000000317,-1.524741049961921613
0.483000000000000318,-1.525614991830144040
0.484000000000000319,-1.526385586785697468
0.485000000000000320,-1.527054975353232980
0.486000000000000321,-1.527625245029494483
0.487000000000000322,-1.528098431438501326
0.488000000000000322,-1.528476519475286288
0.489000000000000323,-1.528761444437900296
0.490000000000000324,-1.528955093147167599
0.491000000000000325,-1.529059305053891427
0.492000000000000326,-1.529075873333134439
0.493000000000000327,-1.529006545965291952
0.494000000000000328,-1.528853026803626447
0.495000000000000329,-1.528616976628011326
0.496000000000000330,-1.528300014184593270
0.497000000000000330,-1.527903717211241075
0.498000000000000331,-1.527429623448395279
0.499000000000000332,-1.526879231635328349
0.500000000000000333,-1.526254002491527206
0.501000000000000334,-1.525555359683016476
0.502000000000000335,-1.524784690773615115
0.503000000000000336,-1.523943348160883726
0.504000000000000337,-1.523032649996761245
0.505000000000000338,-1.522053881092724215
0.506000000000000338,-1.521008293809479994
0.507000000000000339,-1.519897108931105745
0.508000000000000340,-1.518721516523553250
0.509000000000000341,-1.517482676777648809
0.510000000000000342,-1.516181720836367264
0.511000000000000343,-1.514819751606599318
0.512000000000000344,-1.513397844555250948
0.513000000000000345,-1.511917048489837212
0.514000000000000346,-1.510378386323572908
0.515000000000000346,-1.508782855824960301
0.516000000000000347,-1.507131430352013357
0.517000000000000348,-1.505425059571182000
0.518000000000000349,-1.503664670161005468
0.519000000000000350,-1.501851166500663970
0.520000000000000351,-1.499985431343453524
0.521000000000000352,-1.498068326475396450
0.522000000000000353,-1.496100693358986433
0.523000000000000353,-1.494083353762279298
0.524000000000000354,-1.492017110373450972
0.525000000000000355,-1.489902747400930982
0.526000000000000356,-1.487741031159258931
0.527000000000000357,-1.485532710640877996
0.528000000000000358,-1.483278518073913199
0.529000000000000359,-1.480979169466229761
0.530000000000000360,-1.478635365135783974
0.531000000000000361,-1.476247790227584344
0.532000000000000361,-1.473817115217337825
0.533000000000000362,-1.471343996402008303
0.534000000000000363,-1.468829076377427212
0.535000000000000364,-1.466272984503204979
0.536000000000000365,-1.463676337355049428
0.537000000000000366,-1.461039739164758045
0.538000000000000367,-1.458363782247990459
0.539000000000000368,-1.455649047420130460
0.540000000000000369,-1.452896104400284383
0.541000000000000369,-1.450105512203772928
0.542000000000000370,-1.447277819523159703
0.543000000000000371,-1.444413565098125796
0.544000000000000372,-1.441513278074342264
0.545000000000000373,-1.438577478351553030
0.546000000000000374,-1.435606676921040714
0.547000000000000375,-1.432601376192712550
0.548000000000000376,-1.429562070311986677
0.549000000000000377,-1.426489245466676214
0.550000000000000377,-1.423383380184078950
0.551000000000000378,-1.420244945618447829
0.552000000000000379,-1.417074405829081174
0.553000000000000380,-1.413872218049193386
0.554000000000000381,-1.410638832945748877
0.555000000000000382,-1.407374694870535681
0.556000000000000383,-1.404080242102538678
0.557000000000000384,-1.400755907081952412
0.558000000000000385,-1.397402116635880986
0.559000000000000385,-1.394019292196035931
0.560000000000000386,-1.390607850008541702
0.561000000000000387,-1.387168201336062223
0.562000000000000388,-1.383700752652403665
0.563000000000000389,-1.380205905829857027
0.564000000000000390,-1.376684058319333381
0.565000000000000391,-1.373135603323586640
0.566000000000000392,-1.369560929963614226
0.567000000000000393,-1.365960423438483451
0.568000000000000393,-1.362334465178673515
0.569000000000000394,-1.358683432993168072
0.570000000000000395,-1.355007701210445337
0.571000000000000396,-1.351307640813484312
0.572000000000000397,-1.347583619569060698
0.573000000000000398,-1.343836002151338249
0.574000000000000399,-1.340065150260065341
0.575000000000000400,-1.336271422733406045
0.576000000000000401,-1.332455175655630208
0.577000000000000401,-1.328616762459822187
0.578000000000000402,-1.324756534025679500
0.579000000000000403,-1.320874838772602811
0.580000000000000404,-1.316972022748249316
0.581000000000000405,-1.313048429712581511
0.582000000000000406,-1.309104401217680236
0.583000000000000407,-1.305140276683334211
0.584000000000000408,-1.301156393468636541
0.585000000000000409,-1.297153086939649480
0.586000000000000409,-1.293130690533291105
0.587000000000000410,-1.289089535817595111
0.588000000000000411,-1.285029952548374821
0.589000000000000412,-1.280952268722557408
0.590000000000000413,-1.276856810628136163
0.591000000000000414,-1.272743902890984380
0.592000000000000415,-1.268613868518604804
0.593000000000000416,-1.264467028940876370
0.594000000000000417,-1.260303704047960771
0.595000000000000417,-1.256124212225503189
0.596000000000000418,-1.251928870387084558
0.597000000000000419,-1.247717994004230224
0.598000000000000420,-1.243491897133883528
0.599000000000000421,-1.239250892443572116
0.600000000000000422,-1.234995291234284753
0.601000000000000423,-1.230725403461176315
0.602000000000000424,-1.226441537752192001
0.603000000000000425,-1.222144001424701365
0.604000000000000425,-1.217833100500187227
0.605000000000000426,-1.213509139717114937
0.606000000000000427,-1.209172422542093894
0.607000000000000428,-1.204823251179232724
0.608000000000000429,-1.200461926578080929
0.609000000000000430,-1.196088748439848359
0.610000000000000431,-1.191704015222321500
0.611000000000000432,-1.187308024143310492
0.612000000000000433,-1.182901071182781205
0.613000000000000433,-1.178483451083782496
0.614000000000000434,-1.174055457352142451
