# Muscovite-001_CS-3530-AC
# h[nm],U(h)[kJ/mol]
0.149999999999999994,98.876929697935310060
0.150999999999999995,97.588437545022614472
0.151999999999999996,96.524552661091362893
0.152999999999999997,95.520385808850917897
0.153999999999999998,94.512533748692774793
0.154999999999999999,93.486196336757487302
0.156000000000000000,92.446414972044081537
0.157000000000000001,91.403539931617814318
0.158000000000000002,90.366760460392725918
0.159000000000000002,89.341946290050856305
0.160000000000000003,88.331589864159170133
0.161000000000000004,87.335602556176525013
0.162000000000000005,86.352306641892795369
0.163000000000000006,85.379312398543888207
0.164000000000000007,84.414165746564407300
0.165000000000000008,83.454754826435788573
0.166000000000000009,82.499511576326625573
0.167000000000000010,81.547460681164210428
0.168000000000000010,80.598168017047939315
0.169000000000000011,79.651632803649505377
0.170000000000000012,78.708157198637621832
0.171000000000000013,77.768216749968161139
0.172000000000000014,76.832346253412026726
0.173000000000000015,75.901048595466960478
0.174000000000000016,74.974729089181153086
0.175000000000000017,74.053654401357192683
0.176000000000000018,73.137933107206933414
0.177000000000000018,72.227513867879721943
0.178000000000000019,71.322196914239512466
0.179000000000000020,70.421654692278778498
0.180000000000000021,69.525457989299212613
0.181000000000000022,68.633104471796983148
0.182000000000000023,67.744047224115945482
0.183000000000000024,66.857721513645131495
0.184000000000000025,65.973568582330486265
0.185000000000000026,65.091055753845779464
0.186000000000000026,64.209692543146232424
0.187000000000000027,63.329042761891699342
0.188000000000000028,62.448732836781992717
0.189000000000000029,61.568456708826339252
0.190000000000000030,60.687977771945398331
0.191000000000000031,59.807128351122443632
0.192000000000000032,58.925807224886213476
0.193000000000000033,58.043975674299119305
0.194000000000000034,57.161652499487999535
0.195000000000000034,56.278908392220316159
0.196000000000000035,55.395859994793951842
0.197000000000000036,54.512663915947101145
0.198000000000000037,53.629510916816897748
0.199000000000000038,52.746620426417543115
0.200000000000000039,51.864235498090465626
0.201000000000000040,50.982618276679815494
0.202000000000000041,50.102046011083103849
0.203000000000000042,49.222807618228920035
0.204000000000000042,48.345200782083459501
0.205000000000000043,47.469529554457203346
0.206000000000000044,46.596102412537035775
0.207000000000000045,45.725230720526809591
0.208000000000000046,44.857227538853791771
0.209000000000000047,43.992406723423663095
0.210000000000000048,43.131082258764521953
0.211000000000000049,42.273567772032102141
0.212000000000000050,41.420176179252038651
0.213000000000000050,40.571219420430935543
0.214000000000000051,39.727008245908123740
0.215000000000000052,38.887852022251784945
0.216000000000000053,38.054058531888486527
0.217000000000000054,37.225933746309365802
0.218000000000000055,36.403781557982803463
0.219000000000000056,35.587903460929211974
0.220000000000000057,34.778598174212532967
0.221000000000000058,33.976161206350383281
0.222000000000000058,33.180884361823501649
0.223000000000000059,32.393055193493566435
0.224000000000000060,31.612956406833724543
0.225000000000000061,30.840865223476932044
0.226000000000000062,30.077052712733696183
0.227000000000000063,29.321783100468401528
0.228000000000000064,28.575313065102854182
0.229000000000000065,27.837891030582245122
0.230000000000000066,27.109756465944286674
0.231000000000000066,26.391139200718942703
0.232000000000000067,25.682258764800273809
0.233000000000000068,24.983323760710224093
0.234000000000000069,24.294531275354991351
0.235000000000000070,23.616066337488710758
0.236000000000000071,22.948101426175739448
0.237000000000000072,22.290796034604788645
0.238000000000000073,21.644296292678127713
0.239000000000000073,21.008734650893721607
0.240000000000000074,20.384229627169325738
0.241000000000000075,19.770885617440686843
0.242000000000000076,19.168792770105188339
0.243000000000000077,18.578026923685975191
0.244000000000000078,17.998649606463228423
0.245000000000000079,17.430708096260481454
0.246000000000000080,16.874235538086288955
0.247000000000000081,16.329251116912651298
0.248000000000000081,15.795760282521666085
0.249000000000000082,15.273755023067113967
0.250000000000000111,14.763214183774257648
0.251000000000000112,14.264103827036738181
0.252000000000000113,13.776377630057538681
0.253000000000000114,13.299977316120749293
0.254000000000000115,12.834833115562606309
0.255000000000000115,12.380864252534909298
0.256000000000000116,11.937979453711983879
0.257000000000000117,11.506077475182937775
0.258000000000000118,11.085047643887930846
0.259000000000000119,10.674770410096730444
0.260000000000000120,10.275117907586004407
0.261000000000000121,9.885954518346027342
0.262000000000000122,9.507137438832206300
0.263000000000000123,9.138517244971691156
0.264000000000000123,8.779938453334834136
0.265000000000000124,8.431240076084966617
0.266000000000000125,8.092256167524480404
0.267000000000000126,7.762816360258864457
0.268000000000000127,7.442746389200898705
0.269000000000000128,7.131868601834533195
0.270000000000000129,6.830002453348930302
0.271000000000000130,6.536964985437661468
0.272000000000000131,6.252571287735684713
0.273000000000000131,5.976634941035330328
0.274000000000000132,5.708968441583118114
0.275000000000000133,5.449383605910147921
0.276000000000000134,5.197691955790418206
0.277000000000000135,4.953705083053959513
0.278000000000000136,4.717234994103547407
0.279000000000000137,4.488094434097005703
0.280000000000000138,4.266097190860447697
0.281000000000000139,4.051058378691665851
0.282000000000000139,3.842794702298232945
0.283000000000000140,3.641124701190741497
0.284000000000000141,3.445868974919836347
0.285000000000000142,3.256850389605171703
0.286000000000000143,3.073894266256520069
0.287000000000000144,2.896828551432368837
0.288000000000000145,2.725483970818638024
0.289000000000000146,2.559694166342469934
0.290000000000000147,2.399295817460720848
0.291000000000000147,2.244128747283295588
0.292000000000000148,2.094036014205686413
0.293000000000000149,1.948863989735441837
0.294000000000000150,1.808462423202556790
0.295000000000000151,1.672684494045539427
0.296000000000000152,1.541386852362879090
0.297000000000000153,1.414429648414394336
0.298000000000000154,1.291676551748762503
0.299000000000000155,1.172994760622887878
0.300000000000000155,1.058255002365640962
0.301000000000000156,0.947331525323728108
0.302000000000000157,0.840102083010486944
0.303000000000000158,0.736447911060580940
0.304000000000000159,0.636253697573891386
0.305000000000000160,0.539407547411866473
0.306000000000000161,0.445800940988161976
0.307000000000000162,0.355328688073796861
0.308000000000000163,0.267888877114840884
0.309000000000000163,0.183382820538130098
0.310000000000000164,0.101714996497869595
0.311000000000000165,0.022792987493452356
0.312000000000000166,-0.053472583733906731
0.313000000000000167,-0.127168120640248017
0.314000000000000168,-0.198377121290366082
0.315000000000000169,-0.267180248400011422
0.316000000000000170,-0.333655400688488257
0.317000000000000171,-0.397877785241778081
0.318000000000000171,-0.459919990606733553
0.319000000000000172,-0.519852060356399970
0.320000000000000173,-0.577741566885440427
0.321000000000000174,-0.633653685212878681
0.322000000000000175,-0.687651266587140042
0.323000000000000176,-0.739794911705088820
0.324000000000000177,-0.790143043373137233
0.325000000000000178,-0.838751978453738056
0.326000000000000179,-0.885675998955674060
0.327000000000000179,-0.930967422140271395
0.328000000000000180,-0.974676669529145556
0.329000000000000181,-1.016852334711810135
0.330000000000000182,-1.057541249863133803
0.331000000000000183,-1.096788550892249914
0.332000000000000184,-1.134637741154755020
0.333000000000000185,-1.171130753670212021
0.334000000000000186,-1.206308011796174418
0.335000000000000187,-1.240208488318657931
0.336000000000000187,-1.272869762927151260
0.337000000000000188,-1.304328078049589834
0.338000000000000189,-1.334618393029979533
0.339000000000000190,-1.363774436637626986
0.340000000000000191,-1.391828757902823455
0.341000000000000192,-1.418812775279507887
0.342000000000000193,-1.444756824140202012
0.343000000000000194,-1.469690202613319396
0.344000000000000195,-1.493641215776716491
0.345000000000000195,-1.516637218225626471
0.346000000000000196,-1.538704655035943336
0.347000000000000197,-1.559869101147238979
0.348000000000000198,-1.580155299192399054
0.349000000000000199,-1.599587195803132689
0.350000000000000200,-1.618187976422782670
0.351000000000000201,-1.635980098659562287
0.352000000000000202,-1.652985324214896412
0.353000000000000203,-1.669224749422921095
0.354000000000000203,-1.684718834438213353
0.355000000000000204,-1.699487431109604874
0.356000000000000205,-1.713549809578769567
0.357000000000000206,-1.726924683642728553
0.358000000000000207,-1.739630234919553375
0.359000000000000208,-1.751684135857001223
0.360000000000000209,-1.763103571623717780
0.361000000000000210,-1.773905260922487015
0.362000000000000210,-1.784105475764979687
0.363000000000000211,-1.793720060246951631
0.364000000000000212,-1.802764448362622618
0.365000000000000213,-1.811253680896324214
0.366000000000000214,-1.819202421429039873
0.367000000000000215,-1.826624971496766836
0.368000000000000216,-1.833535284937045207
0.369000000000000217,-1.839946981459064546
0.370000000000000218,-1.845873359472230302
0.371000000000000218,-1.851327408206950853
0.372000000000000219,-1.856321819160835718
0.373000000000000220,-1.860868996902416139
0.374000000000000221,-1.864981069263681901
0.375000000000000222,-1.868669896951681064
0.376000000000000223,-1.871947082608766522
0.377000000000000224,-1.874823979349790504
0.378000000000000225,-1.877311698803832529
0.379000000000000226,-1.879421118686987358
0.380000000000000226,-1.881162889931891957
0.381000000000000227,-1.882547443398546294
0.382000000000000228,-1.883584996190264871
0.383000000000000229,-1.884285557597504823
0.384000000000000230,-1.884658934691427756
0.385000000000000231,-1.884714737588263800
0.386000000000000232,-1.884462384404467672
0.387000000000000233,-1.883911105921968643
0.388000000000000234,-1.883069949981799329
0.389000000000000234,-1.881947785623712788
0.390000000000000235,-1.880553306988424822
0.391000000000000236,-1.878895036998455392
0.392000000000000237,-1.876981330832653727
0.393000000000000238,-1.874820379208860910
0.394000000000000239,-1.872420211488275088
0.395000000000000240,-1.869788698614554878
0.396000000000000241,-1.866933555899866093
0.397000000000000242,-1.863862345669469178
0.398000000000000242,-1.860582479775831244
0.399000000000000243,-1.857101221992555562
0.400000000000000244,-1.853425690297885398
0.401000000000000245,-1.849562859056991471
0.402000000000000246,-1.845519561111541140
0.403000000000000247,-1.841302489784762741
0.404000000000000248,-1.836918200809484647
0.405000000000000249,-1.832373114186296448
0.406000000000000250,-1.827673515978395002
0.407000000000000250,-1.822825560049357474
0.408000000000000251,-1.817835269749525029
0.409000000000000252,-1.812708539556392440
0.410000000000000253,-1.807451136673931646
0.411000000000000254,-1.802068702595442273
0.412000000000000255,-1.796566754634152829
0.413000000000000256,-1.790950687425532761
0.414000000000000257,-1.785225774404788579
0.415000000000000258,-1.779397169262986633
0.416000000000000258,-1.773469907384649158
0.417000000000000259,-1.767448907269686842
0.418000000000000260,-1.761338971942065346
0.419000000000000261,-1.755144790347505701
0.420000000000000262,-1.748870938742192793
0.421000000000000263,-1.742521882074354878
0.422000000000000264,-1.736101975360256677
0.423000000000000265,-1.729615465056056678
0.424000000000000266,-1.723066490426835795
0.425000000000000266,-1.716459084913751543
0.426000000000000267,-1.709797177500373078
0.427000000000000268,-1.703084594078924097
0.428000000000000269,-1.696325058817080400
0.429000000000000270,-1.689522195525919201
0.430000000000000271,-1.682679529029346144
0.431000000000000272,-1.675800486535413913
0.432000000000000273,-1.668888399009660573
0.433000000000000274,-1.661946502550672111
0.434000000000000274,-1.654977939767849460
0.435000000000000275,-1.647985761161397278
0.436000000000000276,-1.640972926504421281
0.437000000000000277,-1.633942306226960239
0.438000000000000278,-1.626896682801763250
0.439000000000000279,-1.619838752131530057
0.440000000000000280,-1.612771124937302902
0.441000000000000281,-1.605696328147652618
0.442000000000000282,-1.598616806288318815
0.443000000000000282,-1.591534922871783442
0.444000000000000283,-1.584452961786463332
0.445000000000000284,-1.577373128684953496
0.446000000000000285,-1.570297552370842453
0.447000000000000286,-1.563228286183689253
0.448000000000000287,-1.556167309381493613
0.449000000000000288,-1.549116528520289693
0.450000000000000289,-1.542077778830203139
0.451000000000000290,-1.535052825587496894
0.452000000000000290,-1.528043365482078642
0.453000000000000291,-1.521051027979858805
0.454000000000000292,-1.514077376679504150
0.455000000000000293,-1.507123910662984567
0.456000000000000294,-1.500192065839415223
0.457000000000000295,-1.493283216281683368
0.458000000000000296,-1.486398675555292925
0.459000000000000297,-1.479539698038989659
0.460000000000000298,-1.472707480236605138
0.461000000000000298,-1.465903162079706501
0.462000000000000299,-1.459127828220517120
0.463000000000000300,-1.452382509314678938
0.464000000000000301,-1.445668183293434605
0.465000000000000302,-1.438985776624774671
0.466000000000000303,-1.432336165563128372
0.467000000000000304,-1.425720177387243215
0.468000000000000305,-1.419138591625834112
0.469000000000000306,-1.412592141270641921
0.470000000000000306,-1.406081513976607411
0.471000000000000307,-1.399607353248731867
0.472000000000000308,-1.393170259615410966
0.473000000000000309,-1.386770791787885315
0.474000000000000310,-1.380409467805551627
0.475000000000000311,-1.374086766166856544
0.476000000000000312,-1.367803126945568382
0.477000000000000313,-1.361558952892147456
0.478000000000000314,-1.355354610520021819
0.479000000000000314,-1.349190431176617411
0.480000000000000315,-1.343066712098879734
0.481000000000000316,-1.336983717453222864
0.482000000000000317,-1.330941679359666008
0.483000000000000318,-1.324940798900108074
0.484000000000000319,-1.318981247110566191
0.485000000000000320,-1.313063165957317535
0.486000000000000321,-1.307186669296839909
0.487000000000000322,-1.301351843819491760
0.488000000000000322,-1.295558749976839952
0.489000000000000323,-1.289807422892664812
0.490000000000000324,-1.284097873257536992
0.491000000000000325,-1.278430088206995219
0.492000000000000326,-1.272804032183291412
0.493000000000000327,-1.267219647780744918
0.494000000000000328,-1.261676856574686756
0.495000000000000329,-1.256175559934062935
0.496000000000000330,-1.250715639817691072
0.497000000000000330,-1.245296959554293981
0.498000000000000331,-1.239919364606260732
0.499000000000000332,-1.234582683317338336
0.500000000000000333,-1.229286727644250288
0.501000000000000334,-1.224031293872319015
0.502000000000000335,-1.218816163315267209
0.503000000000000336,-1.213641102999234223
0.504000000000000337,-1.208505866331157641
0.505000000000000338,-1.203410193751620394
0.506000000000000338,-1.198353813372314836
0.507000000000000339,-1.193336441598238373
0.508000000000000340,-1.188357783734748541
0.509000000000000341,-1.183417534579697783
0.510000000000000342,-1.178515379000687258
0.511000000000000343,-1.173650992497702550
0.512000000000000344,-1.168824041751214349
0.513000000000000345,-1.164034185155960577
0.514000000000000346,-1.159281073340584722
0.515000000000000346,-1.154564349673251389
0.516000000000000347,-1.149883650753463105
0.517000000000000348,-1.145238606890280675
0.518000000000000349,-1.140628842567057211
0.519000000000000350,-1.136053976892956507
0.520000000000000351,-1.131513624041373456
0.521000000000000352,-1.127007393675529823
0.522000000000000353,-1.122534891361351983
0.523000000000000353,-1.118095718967886398
0.524000000000000354,-1.113689475055451350
0.525000000000000355,-1.109315755251682578
0.526000000000000356,-1.104974152615705085
0.527000000000000357,-1.100664257990646044
0.528000000000000358,-1.096385660344635138
0.529000000000000359,-1.092137947100575657
0.530000000000000360,-1.087920704454796716
0.531000000000000361,-1.083733517684880354
0.532000000000000361,-1.079575971446792071
0.533000000000000362,-1.075447650061575278
0.534000000000000363,-1.071348137791758415
0.535000000000000364,-1.067277019107738756
0.536000000000000365,-1.063233878944274569
0.537000000000000366,-1.059218302947356527
0.538000000000000367,-1.055229877711582276
0.539000000000000368,-1.051268191008328357
0.540000000000000369,-1.047332832004801428
0.541000000000000369,-1.043423391474285200
0.542000000000000370,-1.039539461997671221
0.543000000000000371,-1.035680638156539768
0.544000000000000372,-1.031846516717954909
0.545000000000000373,-1.028036696811164719
0.546000000000000374,-1.024250780096392699
0.547000000000000375,-1.020488370925912047
0.548000000000000376,-1.016749076497597937
0.549000000000000377,-1.013032507001113469
0.550000000000000377,-1.009338275756945791
0.551000000000000378,-1.005665999348422712
0.552000000000000379,-1.002015297746950306
0.553000000000000380,-0.998385794430586393
0.554000000000000381,-0.994777116496143421
0.555000000000000382,-0.991188894765032913
0.556000000000000383,-0.987620763882918751
0.557000000000000384,-0.984072362413467516
0.558000000000000385,-0.980543332926252731
0.559000000000000385,-0.977033322079043365
0.560000000000000386,-0.973541980694604625
0.561000000000000387,-0.970068963832170339
0.562000000000000388,-0.966613930853728931
0.563000000000000389,-0.963176545485325386
0.564000000000000390,-0.959756475873440484
0.565000000000000391,-0.956353394636684007
0.566000000000000392,-0.952966978912866858
0.567000000000000393,-0.949596910401671379
0.568000000000000393,-0.946242875402970585
0.569000000000000394,-0.942904564851011484
0.570000000000000395,-0.939581674344553641
0.571000000000000396,-0.936273904173081539
0.572000000000000397,-0.932980959339287041
0.573000000000000398,-0.929702549577844040
0.574000000000000399,-0.926438389370708770
0.575000000000000400,-0.923188197958971779
0.576000000000000401,-0.919951699351436503
0.577000000000000401,-0.916728622330048815
0.578000000000000402,-0.913518700452232713
0.579000000000000403,-0.910321672050286801
0.580000000000000404,-0.907137280227975906
0.581000000000000405,-0.903965272854339141
0.582000000000000406,-0.900805402554918366
0.583000000000000407,-0.897657426700424366
0.584000000000000408,-0.894521107393005499
0.585000000000000409,-0.891396211450166120
0.586000000000000409,-0.888282510386460999
0.587000000000000410,-0.885179780393061000
0.588000000000000411,-0.882087802315231206
0.589000000000000412,-0.879006361627902244
0.590000000000000413,-0.875935248409313472
0.591000000000000414,-0.872874257312889368
0.592000000000000415,-0.869823187537421161
0.593000000000000416,-0.866781842795582791
0.594000000000000417,-0.863750031280914654
0.595000000000000417,-0.860727565633356839
0.596000000000000418,-0.857714262903317426
0.597000000000000419,-0.854709944514485565
0.598000000000000420,-0.851714436225323168
0.599000000000000421,-0.848727568089404860
0.600000000000000422,-0.845749174414613281
0.601000000000000423,-0.842779093721276573
0.602000000000000424,-0.839817168699313776
0.603000000000000425,-0.836863246164443852
0.604000000000000425,-0.833917177013504207
0.605000000000000426,-0.830978816178953417
0.606000000000000427,-0.828048022582643206
0.607000000000000428,-0.825124659088791290
0.608000000000000429,-0.822208592456426857
0.609000000000000430,-0.819299693291084763
0.610000000000000431,-0.816397835996067855
0.611000000000000432,-0.813502898723122314
0.612000000000000433,-0.810614763322659138
0.613000000000000433,-0.807733315293593490
0.614000000000000434,-0.804858443732776818
