# Muscovite-001_CS-12144-AC
# h[nm],U(h)[kJ/mol]
0.149999999999999994,160.034258716820374957
0.150999999999999995,159.046213544138794305
0.151999999999999996,157.783178509753355456
0.152999999999999997,156.410766186671622791
0.153999999999999998,155.010151674822338919
0.154999999999999999,153.615607254730946352
0.156000000000000000,152.237035170388566030
0.157000000000000001,150.873030768398251666
0.158000000000000002,149.518090742908071888
0.159000000000000002,148.166296671129089191
0.160000000000000003,146.812951470717507618
0.161000000000000004,145.455086764606505767
0.162000000000000005,144.091396558894075497
0.163000000000000006,142.721921457829864721
0.164000000000000007,141.347663150590449277
0.165000000000000008,139.970220894547480839
0.166000000000000009,138.591489944900047249
0.167000000000000010,137.213432911958733484
0.168000000000000010,135.837920063299293361
0.169000000000000011,134.466627943048592897
0.170000000000000012,133.100983748314178001
0.171000000000000013,131.742143448158202546
0.172000000000000014,130.390993310779322201
0.173000000000000015,129.048166547729323383
0.174000000000000016,127.714068775422362023
0.175000000000000017,126.388907736628155476
0.176000000000000018,125.072724147875263156
0.177000000000000018,123.765421642381923562
0.178000000000000019,122.466794596631032732
0.179000000000000020,121.176553210010681028
0.180000000000000021,119.894345600966815368
0.181000000000000022,118.619776935491728409
0.182000000000000023,117.352425753264810737
0.183000000000000024,116.091857734548767667
0.184000000000000025,114.837637181088126681
0.185000000000000026,113.589336484601091115
0.186000000000000026,112.346543839737890380
0.187000000000000027,111.108869433325978093
0.188000000000000028,109.875950313990188079
0.189000000000000029,108.647454119266782868
0.190000000000000030,107.423081812975667049
0.191000000000000031,106.202569564674988101
0.192000000000000032,104.985689885619422057
0.193000000000000033,103.772252121495938582
0.194000000000000034,102.562102390848053801
0.195000000000000034,101.355123048969431920
0.196000000000000035,100.151231749614026967
0.197000000000000036,98.950380170658036150
0.198000000000000037,97.752552464459625980
0.199000000000000038,96.557763488791124473
0.200000000000000039,95.366056869640118521
0.201000000000000040,94.177502942742137293
0.202000000000000041,92.992196616332208237
0.203000000000000042,91.810255193248252681
0.204000000000000042,90.631816186180998329
0.205000000000000043,89.457035155571446694
0.206000000000000044,88.286083595439407645
0.207000000000000045,87.119146888338448775
0.208000000000000046,85.956422346712230365
0.209000000000000047,84.798117354228736531
0.210000000000000048,83.644447617220833990
0.211000000000000049,82.495635533204634271
0.212000000000000050,81.351908680592401879
0.213000000000000050,80.213498431191737836
0.214000000000000051,79.080638684876902289
0.215000000000000052,77.953564723943813419
0.216000000000000053,76.832512183098160108
0.217000000000000054,75.717716129767666189
0.218000000000000055,74.609410248452306291
0.219000000000000056,73.507826122112803091
0.220000000000000057,72.413192603115234647
0.221000000000000058,71.325735265985144906
0.222000000000000058,70.245675934136187379
0.223000000000000059,69.173232272815255328
0.224000000000000060,68.108617440710816027
0.225000000000000061,67.052039792987130795
0.226000000000000062,66.003702628908158090
0.227000000000000063,64.963803977680896651
0.228000000000000064,63.932536416660866507
0.229000000000000065,62.910086916604271323
0.230000000000000066,61.896636709207633942
0.231000000000000066,60.892361172734922548
0.232000000000000067,59.897429732081036491
0.233000000000000068,58.912005770152646278
0.234000000000000069,57.936246547954397101
0.235000000000000070,56.970303131244122596
0.236000000000000071,56.014320322063007040
0.237000000000000072,55.068436593849433791
0.238000000000000073,54.132784029210576193
0.239000000000000073,53.207488259750014947
0.240000000000000074,52.292668407633300376
0.241000000000000075,51.388437028819247132
0.242000000000000076,50.494900058091403139
0.243000000000000077,49.612156756195062712
0.244000000000000078,48.740299659522392517
0.245000000000000079,47.879414532893179057
0.246000000000000080,47.029580326056020567
0.247000000000000081,46.190869134583827815
0.248000000000000081,45.363346165864854242
0.249000000000000082,44.547069710895833339
0.250000000000000111,43.742091122571743256
0.251000000000000112,42.948454801138296943
0.252000000000000113,42.166198187431938038
0.253000000000000114,41.395351764481169710
0.254000000000000115,40.635939067981105666
0.255000000000000115,39.887976706087151513
0.256000000000000116,39.151474388900808776
0.257000000000000117,38.426434967945873211
0.258000000000000118,37.712854485856517783
0.259000000000000119,37.010722236421671028
0.260000000000000120,36.320020835053568931
0.261000000000000121,35.640726299674263089
0.262000000000000122,34.972808141941754911
0.263000000000000123,34.316229468669341429
0.264000000000000123,33.670947093227205471
0.265000000000000124,33.036911656655043146
0.266000000000000125,32.414067758159603727
0.267000000000000126,31.802354094620859826
0.268000000000000127,31.201703608684482560
0.269000000000000128,30.612043644979916479
0.270000000000000129,30.033296113967566043
0.271000000000000130,29.465377662889615351
0.272000000000000131,28.908199853274744839
0.273000000000000131,28.361669344427525630
0.274000000000000132,27.825688082318567496
0.275000000000000133,27.300153493281591466
0.276000000000000134,26.784958681917181877
0.277000000000000135,26.279992632602318992
0.278000000000000136,25.785140414005333298
0.279000000000000137,25.300283386012171860
0.280000000000000138,24.825299408478546326
0.281000000000000139,24.360063051233176168
0.282000000000000139,23.904445804772400663
0.283000000000000140,23.458316291101887430
0.284000000000000141,23.021540474200229198
0.285000000000000142,22.593981869599087275
0.286000000000000143,22.175501752596137095
0.287000000000000144,21.765959364640231399
0.288000000000000145,21.365212117451950036
0.289000000000000146,20.973115794467805273
0.290000000000000147,20.589524749221169486
0.291000000000000147,20.214292100299466881
0.292000000000000148,19.847269922542544407
0.293000000000000149,19.488309434173782364
0.294000000000000150,19.137261179580967507
0.295000000000000151,18.793975207490198898
0.296000000000000152,18.458301244301033250
0.297000000000000153,18.130088862376620540
0.298000000000000154,17.809187643106362486
0.299000000000000155,17.495447334582841847
0.300000000000000155,17.188718003757720965
0.301000000000000156,16.888850182963455637
0.302000000000000157,16.595695010709231809
0.303000000000000158,16.309104366680049480
0.304000000000000159,16.028931000887531866
0.305000000000000160,15.755028656939765952
0.306000000000000161,15.487252189415240622
0.307000000000000162,15.225457675342521924
0.308000000000000163,14.969502519803466356
0.309000000000000163,14.719245555692301863
0.310000000000000164,14.474547137676783137
0.311000000000000165,14.235269230420566799
0.312000000000000166,14.001275491137864293
0.313000000000000167,13.772431346562314047
0.314000000000000168,13.548604064422253401
0.315000000000000169,13.329662819523528938
0.316000000000000170,13.115478754549490858
0.317000000000000171,12.905925035695130276
0.318000000000000171,12.700876903259139539
0.319000000000000172,12.500211717323335137
0.320000000000000173,12.303808998654284679
0.321000000000000174,12.111550464966187590
0.322000000000000175,11.923320062687903231
0.323000000000000176,11.739003994380128759
0.324000000000000177,11.558490741951121805
0.325000000000000178,11.381671085821441380
0.326000000000000179,11.208438120189317289
0.327000000000000179,11.038687264549281508
0.328000000000000180,10.872316271617091132
0.329000000000000181,10.709225231813631396
0.330000000000000182,10.549316574460435803
0.331000000000000183,10.392495065838058821
0.332000000000000184,10.238667804257755023
0.333000000000000185,10.087744212295188362
0.334000000000000186,9.939636026332909324
0.335000000000000187,9.794257283556436988
0.336000000000000187,9.651524306546127363
0.337000000000000188,9.511355685604879540
0.338000000000000189,9.373672258958283265
0.339000000000000190,9.238397090961335323
0.340000000000000191,9.105455448442572930
0.341000000000000192,8.974774775313198560
0.342000000000000193,8.846284665565274707
0.343000000000000194,8.719916834779732895
0.344000000000000195,8.595605090261466685
0.345000000000000195,8.473285299914751434
0.346000000000000196,8.352895359969110700
0.347000000000000197,8.234375161661489528
0.348000000000000198,8.117666556977292558
0.349000000000000199,8.002713323548817925
0.350000000000000200,7.889461128805974610
0.351000000000000201,7.777857493470460959
0.352000000000000202,7.667851754480777160
0.353000000000000203,7.559395027431823344
0.354000000000000203,7.452440168609113513
0.355000000000000204,7.346941736694178715
0.356000000000000205,7.242855954213953673
0.357000000000000206,7.140140668803520718
0.358000000000000207,7.038755314348324355
0.359000000000000208,6.938660872068344254
0.360000000000000209,6.839819831603392686
0.361000000000000210,6.742196152155879751
0.362000000000000210,6.645755223743601725
0.363000000000000211,6.550463828612639539
0.364000000000000212,6.456290102857056290
0.365000000000000213,6.363203498289373705
0.366000000000000214,6.271174744602885376
0.367000000000000215,6.180175811864275559
0.368000000000000216,6.090179873372112418
0.369000000000000217,6.001161268914519731
0.370000000000000218,5.913095468456612380
0.371000000000000218,5.825959036286135095
0.372000000000000219,5.739729595643131788
0.373000000000000220,5.654385793857610309
0.374000000000000221,5.569907268016754287
0.375000000000000222,5.486274611181558569
0.376000000000000223,5.403469339170202446
0.377000000000000224,5.321473857924365447
0.378000000000000225,5.240271431472274699
0.379000000000000226,5.159846150500966289
0.380000000000000226,5.080182901548346841
0.381000000000000227,5.001267336824303911
0.382000000000000228,4.923085844668496414
0.383000000000000229,4.845625520651124951
0.384000000000000230,4.768874139321662042
0.385000000000000231,4.692820126609139386
0.386000000000000232,4.617452532876674454
0.387000000000000233,4.542761006631392817
0.388000000000000234,4.468735768890297777
0.389000000000000234,4.395367588201243514
0.390000000000000235,4.322647756317469003
0.391000000000000236,4.250568064523239542
0.392000000000000237,4.179120780607187946
0.393000000000000238,4.108298626479369275
0.394000000000000239,4.038094756427182297
0.395000000000000240,3.968502736004722031
0.396000000000000241,3.899516521549449610
0.397000000000000242,3.831130440319591379
0.398000000000000242,3.763339171245024595
0.399000000000000243,3.696137726284072667
0.400000000000000244,3.629521432378027157
0.401000000000000245,3.563485913994923315
0.402000000000000246,3.498027076253806822
0.403000000000000247,3.433141088620080161
0.404000000000000248,3.368824369162650267
0.405000000000000249,3.305073569362984465
0.406000000000000250,3.241885559466185729
0.407000000000000250,3.179257414363796386
0.408000000000000251,3.117186399998061574
0.409000000000000252,3.055669960277095587
0.410000000000000253,2.994705704490284059
0.411000000000000254,2.934291395213255882
0.412000000000000255,2.874424936691593935
0.413000000000000256,2.815104363692340517
0.414000000000000257,2.756327830812537183
0.415000000000000258,2.698093602233691435
0.416000000000000258,2.640400041911458828
0.417000000000000259,2.583245604189426281
0.418000000000000260,2.526628824826312236
0.419000000000000261,2.470548312425557391
0.420000000000000262,2.415002740256763314
0.421000000000000263,2.359990838458037032
0.422000000000000264,2.305511386608872115
0.423000000000000265,2.251563206662853922
0.424000000000000266,2.198145156229844410
0.425000000000000266,2.145256122197414239
0.426000000000000267,2.092895014681211308
0.427000000000000268,2.041060761294303028
0.428000000000000269,1.989752301725577155
0.429000000000000270,1.938968582617361935
0.430000000000000271,1.888708552732744961
0.431000000000000272,1.838971158402999961
0.432000000000000273,1.789755339245929999
0.433000000000000274,1.741060024145876017
0.434000000000000274,1.692884127486453449
0.435000000000000275,1.645226545627218595
0.436000000000000276,1.598086153615562832
0.437000000000000277,1.551461802125400746
0.438000000000000278,1.505352314614355258
0.439000000000000279,1.459756484691295597
0.440000000000000280,1.414673073686285365
0.441000000000000281,1.370100808415237070
0.442000000000000282,1.326038379131534661
0.443000000000000282,1.282484437657430032
0.444000000000000283,1.239437595687751692
0.445000000000000284,1.196896423259063535
0.446000000000000285,1.154859447377299286
0.447000000000000286,1.113325150797149332
0.448000000000000287,1.072291970946786854
0.449000000000000288,1.031758298991439116
0.450000000000000289,0.991722479029759185
0.451000000000000290,0.952182807416913635
0.452000000000000290,0.913137532208514235
0.453000000000000291,0.874584852719852535
0.454000000000000292,0.836522919194782277
0.455000000000000293,0.798949832579000763
0.456000000000000294,0.761863644392529737
0.457000000000000295,0.725262356696301902
0.458000000000000296,0.689143922148112931
0.459000000000000297,0.653506244143094994
0.460000000000000298,0.618347177034216822
0.461000000000000298,0.583664526428382846
0.462000000000000299,0.549456049553828874
0.463000000000000300,0.515719455694744755
0.464000000000000301,0.482452406689052871
0.465000000000000302,0.449652517485558789
0.466000000000000303,0.417317356756742253
0.467000000000000304,0.385444447563534631
0.468000000000000305,0.354031268068742799
0.469000000000000306,0.323075252295684900
0.470000000000000306,0.292573790928846222
0.471000000000000307,0.262524232153524495
0.472000000000000308,0.232923882531430426
0.473000000000000309,0.203770007909367085
0.474000000000000310,0.175059834358342270
0.475000000000000311,0.146790549140327048
0.476000000000000312,0.118959301700302070
0.477000000000000313,0.091563204680947058
0.478000000000000314,0.064599334957888666
0.479000000000000314,0.038064734693039157
0.480000000000000315,0.011956412404080196
0.481000000000000316,-0.013728655952109958
0.482000000000000317,-0.038993525883898039
0.483000000000000318,-0.063841283259195913
0.484000000000000319,-0.088275043191340080
0.485000000000000320,-0.112297948918239548
0.486000000000000321,-0.135913170676475958
0.487000000000000322,-0.159123904571858349
0.488000000000000322,-0.181933371447862313
0.489000000000000323,-0.204344815753467801
0.490000000000000324,-0.226361504411613790
0.491000000000000325,-0.247986725689570836
0.492000000000000326,-0.269223788072420422
0.493000000000000327,-0.290076019140804442
0.494000000000000328,-0.310546764453948465
0.495000000000000329,-0.330639386439031235
0.496000000000000330,-0.350357263287789822
0.497000000000000330,-0.369703787861373478
0.498000000000000331,-0.388682366604088114
0.499000000000000332,-0.407296418467047339
0.500000000000000333,-0.425549373842360912
0.501000000000000334,-0.443444673508485210
0.502000000000000335,-0.460985767587562378
0.503000000000000336,-0.478176114515177830
0.504000000000000337,-0.495019180023235195
0.505000000000000338,-0.511518436136351839
0.506000000000000338,-0.527677360182340016
0.507000000000000339,-0.543499433817200339
0.508000000000000340,-0.558988142064954063
0.509000000000000341,-0.574146972372866715
0.510000000000000342,-0.588979413682152453
0.511000000000000343,-0.603488955514717706
0.512000000000000344,-0.617679087076011601
0.513000000000000345,-0.631553296374346873
0.514000000000000346,-0.645115069356915205
0.515000000000000346,-0.658367889062583145
0.516000000000000347,-0.671315234791726501
0.517000000000000348,-0.683960581293237113
0.518000000000000349,-0.696307397968755959
0.519000000000000350,-0.708359148094300450
0.520000000000000351,-0.720119288059266394
0.521000000000000352,-0.731591266623001113
0.522000000000000353,-0.742778524188787981
0.523000000000000353,-0.753684492095430203
0.524000000000000354,-0.764312591926325169
0.525000000000000355,-0.774666234836062784
0.526000000000000356,-0.784748820894439203
0.527000000000000357,-0.794563738447950585
0.528000000000000358,-0.804114363498573015
0.529000000000000359,-0.813404059099871235
0.530000000000000360,-0.822436174770209361
0.531000000000000361,-0.831214045923100331
0.532000000000000361,-0.839740993314477380
0.533000000000000362,-0.848020322506811475
0.534000000000000363,-0.856055323349893649
0.535000000000000364,-0.863849269478230042
0.536000000000000365,-0.871405417824763440
0.537000000000000366,-0.878727008150889555
0.538000000000000367,-0.885817262592475174
0.539000000000000368,-0.892679385221851418
0.540000000000000369,-0.899316561625416844
0.541000000000000369,-0.905731958496867717
0.542000000000000370,-0.911928723245632455
0.543000000000000371,-0.917909983620531555
0.544000000000000372,-0.923678847348295529
0.545000000000000373,-0.929238401786832258
0.546000000000000374,-0.934591713592971884
0.547000000000000375,-0.939741828404492274
0.548000000000000376,-0.944691770536232100
0.549000000000000377,-0.949444542690019766
0.550000000000000377,-0.954003125678260622
0.551000000000000378,-0.958370478160857631
0.552000000000000379,-0.962549536395363781
0.553000000000000380,-0.966543214000028406
0.554000000000000381,-0.970354401729541571
0.555000000000000382,-0.973985967263310215
0.556000000000000383,-0.977440755005889228
0.557000000000000384,-0.980721585899515524
0.558000000000000385,-0.983831257248332647
0.559000000000000385,-0.986772542554213872
0.560000000000000386,-0.989548191363883611
0.561000000000000387,-0.992160929127112512
0.562000000000000388,-0.994613457065723572
0.563000000000000389,-0.996908452053305361
0.564000000000000390,-0.999048566505207125
0.565000000000000391,-1.001036428278754498
0.566000000000000392,-1.002874640583362176
0.567000000000000393,-1.004565781900378152
0.568000000000000393,-1.006112405912368724
0.569000000000000394,-1.007517041441676753
0.570000000000000395,-1.008782192398022692
0.571000000000000396,-1.009910337734872154
0.572000000000000397,-1.010903931414463885
0.573000000000000398,-1.011765402381151091
0.574000000000000399,-1.012497154542959965
0.575000000000000400,-1.013101566761055894
0.576000000000000401,-1.013580992846964790
0.577000000000000401,-1.013937761567377027
0.578000000000000402,-1.014174176656214899
0.579000000000000403,-1.014292516833845914
0.580000000000000404,-1.014295035833289393
0.581000000000000405,-1.014183962433049313
0.582000000000000406,-1.013961500496599388
0.583000000000000407,-1.013629829018107831
0.584000000000000408,-1.013191102174407332
0.585000000000000409,-1.012647449382889642
0.586000000000000409,-1.012000975365191069
0.587000000000000410,-1.011253760216519471
0.588000000000000411,-1.010407859480344506
0.589000000000000412,-1.009465304228439830
0.590000000000000413,-1.008428101145902200
0.591000000000000414,-1.007298232621149037
0.592000000000000415,-1.006077656840663526
0.593000000000000416,-1.004768307888282752
0.594000000000000417,-1.003372095848913181
0.595000000000000417,-1.001890906916582002
0.596000000000000418,-1.000326603506463963
0.597000000000000419,-0.998681024371006032
0.598000000000000420,-0.996955984719737343
0.599000000000000421,-0.995153276342827575
0.600000000000000422,-0.993274667738115236
0.601000000000000423,-0.991321904241500462
0.602000000000000424,-0.989296708160613214
0.603000000000000425,-0.987200778911568877
0.604000000000000425,-0.985035793158656525
0.605000000000000426,-0.982803404956902882
0.606000000000000427,-0.980505245897369315
0.607000000000000428,-0.978142925254921969
0.608000000000000429,-0.975718030138646109
0.609000000000000430,-0.973232125644405088
0.610000000000000431,-0.970686755009796065
0.611000000000000432,-0.968083439771118770
0.612000000000000433,-0.965423679922364331
0.613000000000000433,-0.962708954076130885
0.614000000000000434,-0.959940719626303007
0.615000000000000435,-0.957120412912402130
