# Muscovite-001_CS-65596-AC
# h[nm],U(h)[kJ/mol]
0.149999999999999994,141.638698659238428945
0.150999999999999995,140.071909939951154911
0.151999999999999996,138.755110250615018685
0.152999999999999997,137.484163528471469817
0.153999999999999998,136.190011627793552407
0.154999999999999999,134.864176196651527562
0.156000000000000000,133.519718313904661500
0.157000000000000001,132.172657446161764483
0.158000000000000002,130.834627356087111139
0.159000000000000002,129.511257600354639408
0.160000000000000003,128.203111401228966315
0.161000000000000004,126.907456045062687622
0.162000000000000005,125.620008106702996997
0.163000000000000006,124.336294319523290142
0.164000000000000007,123.052539228246700986
0.165000000000000008,121.766123500045949868
0.166000000000000009,120.475709853160992679
0.167000000000000010,119.181143234145793031
0.168000000000000010,117.883220183621830301
0.169000000000000011,116.583402178195228771
0.170000000000000012,115.283526247451646896
0.171000000000000013,113.985546908794276533
0.172000000000000014,112.691327897955517301
0.173000000000000015,111.402490569749787142
0.174000000000000016,110.120317859297372820
0.175000000000000017,108.845707719647606382
0.176000000000000018,107.579167312342832474
0.177000000000000018,106.320838288621374090
0.178000000000000019,105.070543716889162056
0.179000000000000020,103.827848149763255492
0.180000000000000021,102.592123648542610681
0.181000000000000022,101.362616053752248035
0.182000000000000023,100.138507243411297054
0.183000000000000024,98.918970452422414041
0.184000000000000025,97.703216879328351752
0.185000000000000026,96.490532756143551296
0.186000000000000026,95.280306801400811878
0.187000000000000027,94.072048529015262375
0.188000000000000028,92.865398267708059166
0.189000000000000029,91.660129983307498946
0.190000000000000030,90.456148116009245541
0.191000000000000031,89.253479672314725235
0.192000000000000032,88.052262770245619095
0.193000000000000033,86.852732746922470142
0.194000000000000034,85.655206816837349493
0.195000000000000034,84.460068131060978658
0.196000000000000035,83.267749943138952062
0.197000000000000036,82.078720444792637068
0.198000000000000037,80.893468699678550138
0.199000000000000038,79.712491980365243194
0.200000000000000039,78.536284704762778119
0.201000000000000040,77.365329074651000951
0.202000000000000041,76.200087440895458712
0.203000000000000042,75.040996356924665633
0.204000000000000042,73.888462233071962260
0.205000000000000043,72.742858468164726560
0.206000000000000044,71.604523909780226631
0.207000000000000045,70.473762479334112641
0.208000000000000046,69.350843791071625333
0.209000000000000047,68.236004593614893565
0.210000000000000048,67.129450867607062037
0.211000000000000049,66.031360421939069738
0.212000000000000050,64.941885842946859952
0.213000000000000050,63.861157664869629969
0.214000000000000051,62.789287644956786494
0.215000000000000052,61.726372042225328585
0.216000000000000053,60.672494814463505008
0.217000000000000054,59.627730663216254925
0.218000000000000055,58.592147870850382674
0.219000000000000056,57.565810887150099973
0.220000000000000057,56.548782635066757507
0.221000000000000058,55.541126516160865378
0.222000000000000058,54.542908105870552049
0.223000000000000059,53.554196537034407299
0.224000000000000060,52.575065577111104176
0.225000000000000061,51.605594410339833189
0.226000000000000062,50.645868140748561359
0.227000000000000063,49.695978035533265427
0.228000000000000064,48.756021531001316305
0.229000000000000065,47.826102025092168901
0.230000000000000066,46.906328481568287714
0.231000000000000066,45.996814871402165181
0.232000000000000067,45.097679476773265606
0.233000000000000068,44.209044082517159779
0.234000000000000069,43.331033078926715518
0.235000000000000070,42.463772498565461433
0.236000000000000071,41.607389008288365062
0.237000000000000072,40.762008876034073523
0.238000000000000073,39.927756930213590181
0.239000000000000073,39.104755527718431551
0.240000000000000074,38.293123544745469644
0.241000000000000075,37.492975402825443609
0.242000000000000076,36.704420140670109163
0.243000000000000077,35.927560540745446360
0.244000000000000078,35.162492317852986901
0.245000000000000079,34.409303375470400965
0.246000000000000080,33.668073134179039130
0.247000000000000081,32.938871935192253204
0.248000000000000081,32.221760520802973815
0.249000000000000082,31.516789592489942606
0.250000000000000111,30.823999446458863360
0.251000000000000112,30.143419685548035858
0.252000000000000113,29.475069005688805390
0.253000000000000114,28.818955054481186551
0.254000000000000115,28.175074358912119976
0.255000000000000115,27.543412318806538508
0.256000000000000116,26.923943262250645603
0.257000000000000117,26.316630558956251917
0.258000000000000118,25.721426787338572240
0.259000000000000119,25.138273950948921254
0.260000000000000120,24.567103739832532483
0.261000000000000121,24.007837832364252506
0.262000000000000122,23.460388233142325021
0.263000000000000123,22.924657642590556605
0.264000000000000123,22.400539854021651820
0.265000000000000124,21.887920174048481670
0.266000000000000125,21.386675862387065195
0.267000000000000126,20.896676587272750680
0.268000000000000127,20.417784892903693361
0.269000000000000128,19.949856675531275840
0.270000000000000129,19.492741665030088427
0.271000000000000130,19.046283908998809409
0.272000000000000131,18.610322256665043028
0.273000000000000131,18.184690840088567398
0.274000000000000132,17.769219550377517436
0.275000000000000133,17.363734506848079064
0.276000000000000134,16.968058517269373198
0.277000000000000135,16.582011527540242213
0.278000000000000136,16.205411059341393809
0.279000000000000137,15.838072634495196311
0.280000000000000138,15.479810184946000362
0.281000000000000139,15.130436447443264214
0.282000000000000139,14.789763342171138305
0.283000000000000140,14.457602334718174575
0.284000000000000141,14.133764780921543647
0.285000000000000142,13.818062254250211396
0.286000000000000143,13.510306855511689861
0.287000000000000144,13.210311504777767055
0.288000000000000145,12.917890215524561626
0.289000000000000146,12.632858351074627734
0.290000000000000147,12.355032863510219343
0.291000000000000147,12.084232515301447819
0.292000000000000148,11.820278083957692417
0.293000000000000149,11.562992550069003173
0.294000000000000150,11.312201269153955963
0.295000000000000151,11.067732127773789230
0.296000000000000152,10.829415684409367415
0.297000000000000153,10.597085295628046353
0.298000000000000154,10.370577228092317412
0.299000000000000155,10.149730756981863777
0.300000000000000155,9.934388251415278148
0.301000000000000156,9.724395247468205383
0.302000000000000157,9.519600509390709675
0.303000000000000158,9.319856079629467160
0.304000000000000159,9.125017318259502019
0.305000000000000160,8.934942932426602979
0.306000000000000161,8.749494996394975743
0.307000000000000162,8.568538962786025337
0.308000000000000163,8.391943665583394107
0.309000000000000163,8.219581315466637506
0.310000000000000164,8.051327488021689405
0.311000000000000165,7.887061105360899660
0.312000000000000166,7.726664411668570764
0.313000000000000167,7.570022943170558349
0.314000000000000168,7.417025493008095438
0.315000000000000169,7.267564071477268683
0.316000000000000170,7.121533862076137034
0.317000000000000171,6.978833173782267529
0.318000000000000171,6.839363389963527773
0.319000000000000172,6.703028914305441788
0.320000000000000173,6.569737114118778365
0.321000000000000174,6.439398261371633403
0.322000000000000175,6.311925471770953422
0.323000000000000176,6.187234642199772594
0.324000000000000177,6.065244386797647103
0.325000000000000178,5.945875971954083461
0.326000000000000179,5.829053250466659009
0.327000000000000179,5.714702595098917648
0.328000000000000180,5.602752831756331986
0.329000000000000181,5.493135172482543460
0.330000000000000182,5.385783148463080927
0.331000000000000183,5.280632543208438001
0.332000000000000184,5.177621326074710595
0.333000000000000185,5.076689586266118326
0.334000000000000186,4.977779467450864637
0.335000000000000187,4.880835103109533613
0.336000000000000187,4.785802552723331438
0.337000000000000188,4.692629738898700609
0.338000000000000189,4.601266385513887336
0.339000000000000190,4.511663956963457345
0.340000000000000191,4.423775598567278422
0.341000000000000192,4.337556078201748377
0.342000000000000193,4.252961729202683117
0.343000000000000194,4.169950394581613651
0.344000000000000195,4.088481372590282881
0.345000000000000195,4.008515363660869468
0.346000000000000196,3.930014418743813742
0.347000000000000197,3.852941889058937530
0.348000000000000198,3.777262377270377502
0.349000000000000199,3.702941690090893356
0.350000000000000200,3.629946792316536719
0.351000000000000201,3.558245762288561931
0.352000000000000202,3.487807748775709538
0.353000000000000203,3.418602929266434387
0.354000000000000203,3.350602469657588678
0.355000000000000204,3.283778485323359142
0.356000000000000205,3.218104003545577463
0.357000000000000206,3.153552927284276386
0.358000000000000207,3.090100000265595614
0.359000000000000208,3.027720773362137852
0.360000000000000209,2.966391572239381880
0.361000000000000210,2.906089466240716845
0.362000000000000210,2.846792238482111603
0.363000000000000211,2.788478357126934259
0.364000000000000212,2.731126947810337935
0.365000000000000213,2.674717767182246853
0.366000000000000214,2.619231177537396427
0.367000000000000215,2.564648122500658545
0.368000000000000216,2.510950103735526628
0.369000000000000217,2.458119158643770952
0.370000000000000218,2.406137839024060643
0.371000000000000218,2.354989190657714282
0.372000000000000219,2.304656733789650414
0.373000000000000220,2.255124444473131096
0.374000000000000221,2.206376736747095002
0.375000000000000222,2.158398445615484551
0.376000000000000223,2.111174810797998180
0.377000000000000224,2.064691461222797120
0.378000000000000225,2.018934400231792381
0.379000000000000226,1.973889991469988558
0.380000000000000226,1.929544945430791358
0.381000000000000227,1.885886306630096154
0.382000000000000228,1.842901441382410965
0.383000000000000229,1.800578026153062172
0.384000000000000230,1.758904036461339526
0.385000000000000231,1.717867736309938831
0.386000000000000232,1.677457668117043665
0.387000000000000233,1.637662643127893336
0.388000000000000234,1.598471732283655244
0.389000000000000234,1.559874257525940999
0.390000000000000235,1.521859783516205100
0.391000000000000236,1.484418109749902737
0.392000000000000237,1.447539263046103031
0.393000000000000238,1.411213490393838699
0.394000000000000239,1.375431252137351734
0.395000000000000240,1.340183215482947832
0.396000000000000241,1.305460248310938098
0.397000000000000242,1.271253413276828947
0.398000000000000242,1.237553962186509482
0.399000000000000243,1.204353330630946406
0.400000000000000244,1.171643132866425407
0.401000000000000245,1.139415156926981698
0.402000000000000246,1.107661359956485070
0.403000000000000247,1.076373863748034676
0.404000000000000248,1.045544950479282864
0.405000000000000249,1.015167058632582719
0.406000000000000250,0.985232779089556088
0.407000000000000250,0.955734851390049878
0.408000000000000251,0.926666160146080942
0.409000000000000252,0.898019731601768401
0.410000000000000253,0.869788730330708804
0.411000000000000254,0.841966456062769320
0.412000000000000255,0.814546340632655186
0.413000000000000256,0.787521945042954585
0.414000000000000257,0.760886956634957534
0.415000000000000258,0.734635186360635850
0.416000000000000258,0.708760566149888804
0.417000000000000259,0.683257146367128643
0.418000000000000260,0.658119093351971607
0.419000000000000261,0.633340687038817407
0.420000000000000262,0.608916318650670085
0.421000000000000263,0.584840488462572861
0.422000000000000264,0.561107803630610191
0.423000000000000265,0.537712976082422522
0.424000000000000266,0.514650820465544223
0.425000000000000266,0.491916252150228939
0.426000000000000267,0.469504285283387002
0.427000000000000268,0.447410030890742327
0.428000000000000269,0.425628695024379944
0.429000000000000270,0.404155576953017293
0.430000000000000271,0.382986067392682372
0.431000000000000272,0.362115646775438282
0.432000000000000273,0.341539883554158430
0.433000000000000274,0.321254432541341284
0.434000000000000274,0.301255033280242945
0.435000000000000275,0.281537508446633444
0.436000000000000276,0.262097762279674018
0.437000000000000277,0.242931779040505808
0.438000000000000278,0.224035621497278348
0.439000000000000279,0.205405429435413012
0.440000000000000280,0.187037418192027266
0.441000000000000281,0.168927877213578048
0.442000000000000282,0.151073168635700139
0.443000000000000282,0.133469725884593743
0.444000000000000283,0.116114052299033377
0.445000000000000284,0.099002719772462638
0.446000000000000285,0.082132367414511534
0.447000000000000286,0.065499700231327035
0.448000000000000287,0.049101487824356083
0.449000000000000288,0.032934563106980529
0.450000000000000289,0.016995821038739443
0.451000000000000290,0.001282217376717032
0.452000000000000290,-0.014209232556250350
0.453000000000000291,-0.029481455086722931
0.454000000000000292,-0.044537319389505781
0.455000000000000293,-0.059379638670378210
0.456000000000000294,-0.074011171332858033
0.457000000000000295,-0.088434622129250059
0.458000000000000296,-0.102652643296017004
0.459000000000000297,-0.116667835673683842
0.460000000000000298,-0.130482749811327153
0.461000000000000298,-0.144099887055774062
0.462000000000000299,-0.157521700625564171
0.463000000000000300,-0.170750596669739185
0.464000000000000301,-0.183788935311547663
0.465000000000000302,-0.196639031677079690
0.466000000000000303,-0.209303156908862281
0.467000000000000304,-0.221783539164514071
0.468000000000000305,-0.234082364600401244
0.469000000000000306,-0.246201778340370769
0.470000000000000306,-0.258143885429624631
0.471000000000000307,-0.269910751773644653
0.472000000000000308,-0.281504405062297347
0.473000000000000309,-0.292926835679105768
0.474000000000000310,-0.304179997595675100
0.475000000000000311,-0.315265809251358664
0.476000000000000312,-0.326186154418133367
0.477000000000000313,-0.336942883050777797
0.478000000000000314,-0.347537812122286627
0.479000000000000314,-0.357972726444684697
0.480000000000000315,-0.368249379475150129
0.481000000000000316,-0.378369494107609450
0.482000000000000317,-0.388334763449731002
0.483000000000000318,-0.398146851585482964
0.484000000000000319,-0.407807394323226380
0.485000000000000320,-0.417317999929445960
0.486000000000000321,-0.426680249848179372
0.487000000000000322,-0.435895699406220305
0.488000000000000322,-0.444965878504106294
0.489000000000000323,-0.453892292293110067
0.490000000000000324,-0.462676421838173368
0.491000000000000325,-0.471319724766960046
0.492000000000000326,-0.479823635905085144
0.493000000000000327,-0.488189567897658272
0.494000000000000328,-0.496418911817192499
0.495000000000000329,-0.504513037758052452
0.496000000000000330,-0.512473295417461672
0.497000000000000330,-0.520301014663344996
0.498000000000000331,-0.527997506088901170
0.499000000000000332,-0.535564061554264503
0.500000000000000333,-0.543001954715262913
0.501000000000000334,-0.550312441539364983
0.502000000000000335,-0.557496760809100045
0.503000000000000336,-0.564556134612946403
0.504000000000000337,-0.571491768823938151
0.505000000000000338,-0.578304853566058874
0.506000000000000338,-0.584996563668647274
0.507000000000000339,-0.591568059108911859
0.508000000000000340,-0.598020485442712357
0.509000000000000341,-0.604354974223859309
0.510000000000000342,-0.610572643411928739
0.511000000000000343,-0.616674597768930965
0.512000000000000344,-0.622661929244859857
0.513000000000000345,-0.628535717352365686
0.514000000000000346,-0.634297029530739076
0.515000000000000346,-0.639946921499281896
0.516000000000000347,-0.645486437600322427
0.517000000000000348,-0.650916611132047462
0.518000000000000349,-0.656238464671255128
0.519000000000000350,-0.661453010386285678
0.520000000000000351,-0.666561250340226175
0.521000000000000352,-0.671564176784668954
0.522000000000000353,-0.676462772444075044
0.523000000000000353,-0.681258010791019553
0.524000000000000354,-0.685950856312453894
0.525000000000000355,-0.690542264767167069
0.526000000000000356,-0.695033183434598079
0.527000000000000357,-0.699424551355243618
0.528000000000000358,-0.703717299562746090
0.529000000000000359,-0.707912351307934395
0.530000000000000360,-0.712010622274878768
0.531000000000000361,-0.716013020789252330
0.532000000000000361,-0.719920448019077730
0.533000000000000362,-0.723733798168096909
0.534000000000000363,-0.727453958661867905
0.535000000000000364,-0.731081810326840942
0.536000000000000365,-0.734618227562495063
0.537000000000000366,-0.738064078506784460
0.538000000000000367,-0.741420225194954208
0.539000000000000368,-0.744687523712046717
0.540000000000000369,-0.747866824339070702
0.541000000000000369,-0.750958971693180155
0.542000000000000370,-0.753964804861849136
0.543000000000000371,-0.756885157531349106
0.544000000000000372,-0.759720858109575237
0.545000000000000373,-0.762472729843443608
0.546000000000000374,-0.765141590930968007
0.547000000000000375,-0.767728254628183837
0.548000000000000376,-0.770233529351074031
0.549000000000000377,-0.772658218772621086
0.550000000000000377,-0.775003121915154858
0.551000000000000378,-0.777269033238094265
0.552000000000000379,-0.779456742721288065
0.553000000000000380,-0.781567035944027766
0.554000000000000381,-0.783600694159876765
0.555000000000000382,-0.785558494367525340
0.556000000000000383,-0.787441209377654050
0.557000000000000384,-0.789249607876106873
0.558000000000000385,-0.790984454483334765
0.559000000000000385,-0.792646509810363442
0.560000000000000386,-0.794236530511333250
0.561000000000000387,-0.795755269332750315
0.562000000000000388,-0.797203475159547148
0.563000000000000389,-0.798581893058133541
0.564000000000000390,-0.799891264316445416
0.565000000000000391,-0.801132326481187818
0.566000000000000392,-0.802305813392329092
0.567000000000000393,-0.803412455215001819
0.568000000000000393,-0.804452978468837343
0.569000000000000394,-0.805428106054908333
0.570000000000000395,-0.806338557280344426
0.571000000000000396,-0.807185047880695783
0.572000000000000397,-0.807968290040211423
0.573000000000000398,-0.808688992410015905
0.574000000000000399,-0.809347860124390750
0.575000000000000400,-0.809945594815140835
0.576000000000000401,-0.810482894624197980
0.577000000000000401,-0.810960454214560755
0.578000000000000402,-0.811378964779563505
0.579000000000000403,-0.811739114050624821
0.580000000000000404,-0.812041586303579366
0.581000000000000405,-0.812287062363541978
0.582000000000000406,-0.812476219608543437
0.583000000000000407,-0.812609731971855709
0.584000000000000408,-0.812688269943190433
0.585000000000000409,-0.812712500568762430
0.586000000000000409,-0.812683087450320585
0.587000000000000410,-0.812600690743217280
0.588000000000000411,-0.812465967153513935
0.589000000000000412,-0.812279569934299062
0.590000000000000413,-0.812042148881137904
0.591000000000000414,-0.811754350326808427
0.592000000000000415,-0.811416817135369839
0.593000000000000416,-0.811030188695545440
0.594000000000000417,-0.810595100913541367
0.595000000000000417,-0.810112186205365625
0.596000000000000418,-0.809582073488570808
0.597000000000000419,-0.809005388173651752
0.598000000000000420,-0.808382752154960249
0.599000000000000421,-0.807714783801321667
0.600000000000000422,-0.807002097946306618
0.601000000000000423,-0.806245305878227847
0.602000000000000424,-0.805445015329912528
0.603000000000000425,-0.804601830468283152
0.604000000000000425,-0.803716351883737579
0.605000000000000426,-0.802789176579429609
0.606000000000000427,-0.801820897960476620
0.607000000000000428,-0.800812105823005105
0.608000000000000429,-0.799763386343317229
0.609000000000000430,-0.798675322066875526
0.610000000000000431,-0.797548491897465128
0.611000000000000432,-0.796383471086316796
0.612000000000000433,-0.795180831221306894
0.613000000000000433,-0.793941140216313124
0.614000000000000434,-0.792664962300648646
0.615000000000000435,-0.791352858008646187
