# Muscovite-001_BSAI21
# h[nm],U(h)[kJ/mol]
0.149999999999999994,134.696156754664485788
0.150999999999999995,132.641423136538321614
0.151999999999999996,131.291427109561453790
0.152999999999999997,130.044260433105591801
0.153999999999999998,128.711269547001080582
0.154999999999999999,127.283031734117273004
0.156000000000000000,125.809002190092357409
0.157000000000000001,124.341938034189823270
0.158000000000000002,122.917308024054023008
0.159000000000000002,121.550082797216731478
0.160000000000000003,120.238928107348300500
0.161000000000000004,118.972484167080736484
0.162000000000000005,117.735172680454823535
0.163000000000000006,116.511534820451132077
0.164000000000000007,115.288929970516306867
0.165000000000000008,114.058814316922251919
0.166000000000000009,112.816958999033289501
0.167000000000000010,111.562976244917791746
0.168000000000000010,110.299468781188764410
0.169000000000000011,109.031043024239352235
0.170000000000000012,107.763351719064118583
0.171000000000000013,106.502267070855822340
0.172000000000000014,105.253234708992323476
0.173000000000000015,104.020822125291118709
0.174000000000000016,102.808450860472248678
0.175000000000000017,101.618287311966582820
0.176000000000000018,100.451260164162789579
0.177000000000000018,99.307170896352047862
0.178000000000000019,98.184865769328965257
0.179000000000000020,97.082441690617343966
0.180000000000000021,95.997463342322205904
0.181000000000000022,94.927174174080192870
0.182000000000000023,93.868688823421706502
0.183000000000000024,92.819158932945498464
0.184000000000000025,91.775908040888779738
0.185000000000000026,90.736534185300570243
0.186000000000000026,89.698981107203451302
0.187000000000000027,88.661580532032942870
0.188000000000000028,87.623069040799123286
0.189000000000000029,86.582583610679137109
0.190000000000000030,85.539640105874170217
0.191000000000000031,84.494098923229870479
0.192000000000000032,83.446121722576052093
0.193000000000000033,82.396122766288726780
0.194000000000000034,81.344717911354990747
0.195000000000000034,80.292673783787137154
0.196000000000000035,79.240859152673493782
0.197000000000000036,78.190200033433399085
0.198000000000000037,77.141639603227673661
0.199000000000000038,76.096103615945992260
0.200000000000000039,75.054471664748731996
0.201000000000000040,74.017554357958488254
0.202000000000000041,72.986076247546947116
0.203000000000000042,71.960664174944469096
0.204000000000000042,70.941840571541362692
0.205000000000000043,69.930021165459677945
0.206000000000000044,68.925516496056417282
0.207000000000000045,67.928536617318130197
0.208000000000000046,66.939198375207354275
0.209000000000000047,65.957534666928623324
0.210000000000000048,64.983505127306116833
0.211000000000000049,64.017007734875917890
0.212000000000000050,63.057890884332891801
0.213000000000000050,62.105965529646120160
0.214000000000000051,61.161017060998162265
0.215000000000000052,60.222816636750714281
0.216000000000000053,59.291131747358051030
0.217000000000000054,58.365735840411090862
0.218000000000000055,57.446416883995894409
0.219000000000000056,56.532984788787111086
0.220000000000000057,55.625277647490818822
0.221000000000000058,54.723166783335003061
0.222000000000000058,53.826560627346623278
0.223000000000000059,52.935407467357926237
0.224000000000000060,52.049697130329228401
0.225000000000000061,51.169461674010037200
0.226000000000000062,50.294775174568464138
0.227000000000000063,49.425752704008687033
0.228000000000000064,48.562548595379361416
0.229000000000000065,47.705354095357122901
0.230000000000000066,46.854394503166957975
0.231000000000000066,46.009925892338792153
0.232000000000000067,45.172231507849545551
0.233000000000000068,44.341617926073141120
0.234000000000000069,43.518411058946732339
0.235000000000000070,42.702952077111405060
0.236000000000000071,41.895593319726550874
0.237000000000000072,41.096694251377762441
0.238000000000000073,40.306617519169044783
0.239000000000000073,39.525725155845790937
0.240000000000000074,38.754374967748653091
0.241000000000000075,37.992917139645655311
0.242000000000000076,37.241691082095904619
0.243000000000000077,36.501022541020553547
0.244000000000000078,35.771220983629966383
0.245000000000000079,35.052577269803805393
0.246000000000000080,34.345361613457427552
0.247000000000000081,33.649821834349836536
0.248000000000000081,32.966181897195042438
0.249000000000000082,32.294640731812229717
0.250000000000000111,31.635371325374130436
0.251000000000000112,30.988520075564004230
0.252000000000000113,30.354206391602541970
0.253000000000000114,29.732522528632976844
0.254000000000000115,29.123533639819015661
0.255000000000000115,28.527278029694429051
0.256000000000000116,27.943767591767006309
0.257000000000000117,27.372988413099939464
0.258000000000000118,26.814901528537262720
0.259000000000000119,26.269443807380959299
0.260000000000000120,25.736528955638156901
0.261000000000000121,25.216048617413743926
0.262000000000000122,24.707873559601633673
0.263000000000000123,24.211854924706724290
0.264000000000000123,23.727825537388156363
0.265000000000000124,23.255601251135193053
0.266000000000000125,22.794982322353661175
0.267000000000000126,22.345754800037749277
0.268000000000000127,21.907691920116601381
0.269000000000000128,21.480555494486178958
0.270000000000000129,21.064097285653353708
0.271000000000000130,20.658060358822606162
0.272000000000000131,20.262180404139780165
0.273000000000000131,19.876187022663572179
0.274000000000000132,19.499804970460935749
0.275000000000000133,19.132755356011557524
0.276000000000000134,18.774756786856528379
0.277000000000000135,18.425526462135163541
0.278000000000000136,18.084781208318414514
0.279000000000000137,17.752238456068369032
0.280000000000000138,17.427617156729318992
0.281000000000000139,17.110638637486385250
0.282000000000000139,16.801027394714761698
0.283000000000000140,16.498511825485010718
0.284000000000000141,16.202824897590701880
0.285000000000000142,15.913704758823527641
0.286000000000000143,15.630895286540672728
0.287000000000000144,15.354146578851228355
0.288000000000000145,15.083215388993551187
0.289000000000000146,14.817865504687972589
0.290000000000000147,14.557868074427867455
0.291000000000000147,14.303001882822627522
0.292000000000000148,14.053053577226965132
0.293000000000000149,13.807817847987209348
0.294000000000000150,13.567097564706893209
0.295000000000000151,13.330703870983787951
0.296000000000000152,13.098456240100640358
0.297000000000000153,12.870182494163600495
0.298000000000000154,12.645718789177704977
0.299000000000000155,12.424909568529649562
0.300000000000000155,12.207607487315890182
0.301000000000000156,11.993673309910430902
0.302000000000000157,11.782975783112735968
0.303000000000000158,11.575391487154254477
0.304000000000000159,11.370804666771659797
0.305000000000000160,11.169107044479563484
0.306000000000000161,10.970197618093827430
0.307000000000000162,10.773982444471680964
0.308000000000000163,10.580374411346422647
0.309000000000000163,10.389292999043700405
0.310000000000000164,10.200664033774280881
0.311000000000000165,10.014419434104876672
0.312000000000000166,9.830496952115566955
0.313000000000000167,9.648839910659106067
0.314000000000000168,9.469396938045514744
0.315000000000000169,9.292121701384363774
0.316000000000000170,9.116972639728006200
0.317000000000000171,8.943912698071937228
0.318000000000000171,8.772909063183593759
0.319000000000000172,8.603932902148491380
0.320000000000000173,8.436959104443186419
0.321000000000000174,8.271966028267822679
0.322000000000000175,8.108935251797424471
0.323000000000000176,7.947851329940668563
0.324000000000000177,7.788701557127604147
0.325000000000000178,7.631475736583865910
0.326000000000000179,7.476165956488098452
0.327000000000000179,7.322766373352092906
0.328000000000000180,7.171273002908844951
0.329000000000000181,7.021683518742925401
0.330000000000000182,6.873997058849781183
0.331000000000000183,6.728214040266083273
0.332000000000000184,6.584335981871580756
0.333000000000000185,6.442365335424564243
0.334000000000000186,6.302305324857202962
0.335000000000000187,6.164159793824228295
0.336000000000000187,6.027933061468265130
0.337000000000000188,5.893629786337685417
0.338000000000000189,5.761254838367439568
0.339000000000000190,5.630813178810975650
0.340000000000000191,5.502309747990699940
0.341000000000000192,5.375749360716352676
0.342000000000000193,5.251136609204155370
0.343000000000000194,5.128475773315580355
0.344000000000000195,5.007770737922135673
0.345000000000000195,4.889024917191512998
0.346000000000000196,4.772241185581810541
0.347000000000000197,4.657421815322541292
0.348000000000000198,4.544568420155235877
0.349000000000000199,4.433681905101488852
0.350000000000000200,4.324762422022678798
0.351000000000000201,4.217809330733159889
0.352000000000000202,4.112821165427271275
0.353000000000000203,4.009795606180057703
0.354000000000000203,3.908729455281917176
0.355000000000000204,3.809618618168884918
0.356000000000000205,3.712458088711979798
0.357000000000000206,3.617241938631681197
0.358000000000000207,3.523963310807149973
0.359000000000000208,3.432614416253245704
0.360000000000000209,3.343186534542751165
0.361000000000000210,3.255670017456105736
0.362000000000000210,3.170054295645696296
0.363000000000000211,3.086327888107387007
0.364000000000000212,3.004478414257477858
0.365000000000000213,2.924492608419291706
0.366000000000000214,2.846356336529573650
0.367000000000000215,2.770054614881250821
0.368000000000000216,2.695571630725284162
0.369000000000000217,2.622890764561081500
0.370000000000000218,2.551994613951113600
0.371000000000000218,2.482865018702310689
0.372000000000000219,2.415483087262978668
0.373000000000000220,2.349829224190842503
0.374000000000000221,2.285883158554105510
0.375000000000000222,2.223623973134156273
0.376000000000000223,2.163030134304432472
0.377000000000000224,2.104079522466842711
0.378000000000000225,2.046749462932910824
0.379000000000000226,1.991016757143106775
0.380000000000000226,1.936857714123599639
0.381000000000000227,1.884248182085792589
0.382000000000000228,1.833163580079315125
0.383000000000000229,1.783578929614990427
0.384000000000000230,1.735468886179543091
0.385000000000000231,1.688807770568982347
0.386000000000000232,1.643569599972853679
0.387000000000000233,1.599728118746178929
0.388000000000000234,1.557256828810942295
0.389000000000000234,1.516129019633249531
0.390000000000000235,1.476317797726881320
0.391000000000000236,1.437796115638106054
0.392000000000000237,1.400536800370653534
0.393000000000000238,1.364512581213677134
0.394000000000000239,1.329696116939250050
0.395000000000000240,1.296060022339428963
0.396000000000000241,1.263576894076375412
0.397000000000000242,1.232219335822255513
0.398000000000000242,1.201959982668617588
0.399000000000000243,1.172771524788014386
0.400000000000000244,1.144626730333236253
0.401000000000000245,1.117498467562223929
0.402000000000000246,1.091359726179299772
0.403000000000000247,1.066183637885410818
0.404000000000000248,1.041943496132582636
0.405000000000000249,1.018612775079625665
0.406000000000000250,0.996165147748222957
0.407000000000000250,0.974574503380184254
0.408000000000000251,0.953814963998479426
0.409000000000000252,0.933860900176186393
0.410000000000000253,0.914686946018897329
0.411000000000000254,0.896268013367595096
0.412000000000000255,0.878579305230181573
0.413000000000000256,0.861596328450959903
0.414000000000000257,0.845294905628615090
0.415000000000000258,0.829651186293901333
0.416000000000000258,0.814641657359476801
0.417000000000000259,0.800243152854793083
0.418000000000000260,0.786432862959933976
0.419000000000000261,0.773188342352727487
0.420000000000000262,0.760487517884220532
0.421000000000000263,0.748308695597909024
0.422000000000000264,0.736630567108746304
0.423000000000000265,0.725432215358204791
0.424000000000000266,0.714693119761960038
0.425000000000000266,0.704393160767229354
0.426000000000000267,0.694512623836722964
0.427000000000000268,0.685032202876577956
0.428000000000000269,0.675933003125639309
0.429000000000000270,0.667196543523503993
0.430000000000000271,0.658804758574935811
0.431000000000000272,0.650739999728018104
0.432000000000000273,0.642985036283628908
0.433000000000000274,0.635523055853545737
0.434000000000000274,0.628337664384513106
0.435000000000000275,0.621412885765441625
0.436000000000000276,0.614733161034717090
0.437000000000000277,0.608283347204498837
0.438000000000000278,0.602048715718617400
0.439000000000000279,0.596014950560473600
0.440000000000000280,0.590168146027158502
0.441000000000000281,0.584494804185704431
0.442000000000000282,0.578981832027058219
0.443000000000000282,0.573616538333296178
0.444000000000000283,0.568386630272979421
0.445000000000000284,0.563280209739559057
0.446000000000000285,0.558285769447268487
0.447000000000000286,0.553392188798532803
0.448000000000000287,0.548588729536874653
0.449000000000000288,0.543865031198621507
0.450000000000000289,0.539211106376668359
0.451000000000000290,0.534617335809026373
0.452000000000000290,0.530074463304574195
0.453000000000000291,0.525573590518188749
0.454000000000000292,0.521106171586903311
0.455000000000000293,0.516664007638544587
0.456000000000000294,0.512239241183879868
0.457000000000000295,0.507824350402916846
0.458000000000000296,0.503412143335794759
0.459000000000000297,0.498995751988163261
0.460000000000000298,0.494568626360778363
0.461000000000000298,0.490124528412565763
0.462000000000000299,0.485657525966188053
0.463000000000000300,0.481161986564726196
0.464000000000000301,0.476632571287783524
0.465000000000000302,0.472064228534999741
0.466000000000000303,0.467452187784707263
0.467000000000000304,0.462791953334963868
0.468000000000000305,0.458079298034137938
0.469000000000000306,0.453310257007716821
0.470000000000000306,0.448481121387751702
0.471000000000000307,0.443588432051213233
0.472000000000000308,0.438628973372995001
0.473000000000000309,0.433599766999228919
0.474000000000000310,0.428498065646202075
0.475000000000000311,0.423321346929943054
0.476000000000000312,0.418067307231236196
0.477000000000000313,0.412733855600612654
0.478000000000000314,0.407319107707640626
0.479000000000000314,0.401821379838486981
0.480000000000000315,0.396239182945645418
0.481000000000000316,0.390571216753342221
0.482000000000000317,0.384816363922064031
0.483000000000000318,0.378973684275279221
0.484000000000000319,0.373042409091354610
0.485000000000000320,0.367021935463393234
0.486000000000000321,0.360911820729520827
0.487000000000000322,0.354711776975992876
0.488000000000000322,0.348421665615363918
0.489000000000000323,0.342041492041566308
0.490000000000000324,0.335571400363894490
0.491000000000000325,0.329011668221468767
0.492000000000000326,0.322362701679723085
0.493000000000000327,0.315625030210245794
0.494000000000000328,0.308799301755226629
0.495000000000000329,0.301886277877539633
0.496000000000000330,0.294886828997451222
0.497000000000000330,0.287801929716659965
0.498000000000000331,0.280632654230518586
0.499000000000000332,0.273380171828815022
0.500000000000000333,0.266045742485668646
0.501000000000000334,0.258630712538910457
0.502000000000000335,0.251136510459063933
0.503000000000000336,0.243564642708195389
0.504000000000000337,0.235916689688576764
0.505000000000000338,0.228194301781171255
0.506000000000000338,0.220399195473784199
0.507000000000000339,0.212533149578659486
0.508000000000000340,0.204598001539266328
0.509000000000000341,0.196595643825823008
0.510000000000000342,0.188528020419247044
0.511000000000000343,0.180397123382894431
0.512000000000000344,0.172204989521640955
0.513000000000000345,0.163953697127614900
0.514000000000000346,0.155645362811889731
0.515000000000000346,0.147282138421481745
0.516000000000000347,0.138866208040810790
0.517000000000000348,0.130399785076797226
0.518000000000000349,0.121885109426784682
0.519000000000000350,0.113324444728315529
0.520000000000000351,0.104720075689885311
0.521000000000000352,0.096074305501611071
0.522000000000000353,0.087389453324909147
0.523000000000000353,0.078667851860060936
0.524000000000000354,0.069911844990645594
0.525000000000000355,0.061123785503736004
0.526000000000000356,0.052306032884778329
0.527000000000000357,0.043460951185963471
0.528000000000000358,0.034590906967025027
0.529000000000000359,0.025698267307211344
0.530000000000000360,0.016785397887360488
0.531000000000000361,0.007854661140784768
0.532000000000000361,-0.001091585528164218
0.533000000000000362,-0.010050991459088676
0.534000000000000363,-0.019021214385276063
0.535000000000000364,-0.027999922019455205
0.536000000000000365,-0.036984793576712562
0.537000000000000366,-0.045973521235880013
0.538000000000000367,-0.054963811540529539
0.539000000000000368,-0.063953386740928181
0.540000000000000369,-0.072939986078030025
0.541000000000000369,-0.081921367010875296
0.542000000000000370,-0.090895306388486044
0.543000000000000371,-0.099859601567583889
0.544000000000000372,-0.108812071477269207
0.545000000000000373,-0.117750557631910752
0.546000000000000374,-0.126672925093414601
0.547000000000000375,-0.135577063384072993
0.548000000000000376,-0.144460887351192835
0.549000000000000377,-0.153322337984640844
0.550000000000000377,-0.162159383188516693
0.551000000000000378,-0.170970018508038502
0.552000000000000379,-0.179752267812866212
0.553000000000000380,-0.188504183937918901
0.554000000000000381,-0.197223849282830821
0.555000000000000382,-0.205909376371187586
0.556000000000000383,-0.214558908370551915
0.557000000000000384,-0.223170619574453555
0.558000000000000385,-0.231742715847311848
0.559000000000000385,-0.240273435033433597
0.560000000000000386,-0.248761047331050811
0.561000000000000387,-0.257203855632462119
0.562000000000000388,-0.265600195831238395
0.563000000000000389,-0.273948437097572883
0.564000000000000390,-0.282246982122632939
0.565000000000000391,-0.290494267332975675
0.566000000000000392,-0.298688763075895369
0.567000000000000393,-0.306828973776715141
0.568000000000000393,-0.314913438068833873
0.569000000000000394,-0.322940728897522511
0.570000000000000395,-0.330909453598283609
0.571000000000000396,-0.338818253950662229
0.572000000000000397,-0.346665806208384608
0.573000000000000398,-0.354450821106594316
0.574000000000000399,-0.362172043847072134
0.575000000000000400,-0.369828254062183948
0.576000000000000401,-0.377418265758360849
0.577000000000000401,-0.384940927239925290
0.578000000000000402,-0.392395121013923542
0.579000000000000403,-0.399779763676768263
0.580000000000000404,-0.407093805783425300
0.581000000000000405,-0.414336231699767743
0.582000000000000406,-0.421506059438894465
0.583000000000000407,-0.428602340481992083
0.584000000000000408,-0.435624159584457160
0.585000000000000409,-0.442570634567912902
0.586000000000000409,-0.449440916098715004
0.587000000000000410,-0.456234187453631701
0.588000000000000411,-0.462949664273187622
0.589000000000000412,-0.469586594303398552
0.590000000000000413,-0.476144257126319581
0.591000000000000414,-0.482621963880066673
0.592000000000000415,-0.489019056968823307
0.593000000000000416,-0.495334909763327946
0.594000000000000417,-0.501568926292397022
0.595000000000000417,-0.507720540925991726
0.596000000000000418,-0.513789218050238916
0.597000000000000419,-0.519774451734996923
0.598000000000000420,-0.525675765394310934
0.599000000000000421,-0.531492711440293419
0.600000000000000422,-0.537224870930823273
0.601000000000000423,-0.542871853211468469
0.602000000000000424,-0.548433295552105848
0.603000000000000425,-0.553908862778586086
0.604000000000000425,-0.559298246899826768
0.605000000000000426,-0.564601166730733239
0.606000000000000427,-0.569817367511348594
0.607000000000000428,-0.574946620522430396
0.608000000000000429,-0.579988722698060122
0.609000000000000430,-0.584943496235308835
0.610000000000000431,-0.589810788201545200
0.611000000000000432,-0.594590470139531813
0.612000000000000433,-0.599282437670655588
0.613000000000000433,-0.603886610096626031
0.614000000000000434,-0.608402929999856346
0.615000000000000435,-0.612831362842827465
0.616000000000000436,-0.617171896566676037
0.617000000000000437,-0.621424541189343427
