# Muscovite-001_PHE-AC
# h[nm],U(h)[kJ/mol]
0.149999999999999994,147.477185042836595130
0.150999999999999995,144.183558947883312840
0.151999999999999996,142.993007033496326130
0.152999999999999997,142.279294626224725562
0.153999999999999998,141.440588910386992438
0.154999999999999999,140.354562778678769064
0.156000000000000000,139.086178269425431608
0.157000000000000001,137.743224631529301405
0.158000000000000002,136.414568703251717352
0.159000000000000002,135.151831422447969544
0.160000000000000003,133.971564412472673666
0.161000000000000004,132.865179958037799679
0.162000000000000005,131.810054991880576836
0.163000000000000006,130.778834707404996607
0.164000000000000007,129.745963019489551016
0.165000000000000008,128.691491555498430444
0.166000000000000009,127.602668809132026695
0.167000000000000010,126.473940376392761209
0.168000000000000010,125.305955830272438334
0.169000000000000011,124.104070408239778089
0.170000000000000012,122.876702595317311761
0.171000000000000013,121.633789154443164193
0.172000000000000014,120.385479392186013570
0.173000000000000015,119.141134008334944383
0.174000000000000016,117.908639698006325602
0.175000000000000017,116.694015529496709860
0.176000000000000018,115.501267065875552476
0.177000000000000018,114.332435363357859615
0.178000000000000019,113.187786960633360422
0.179000000000000020,112.066094982586264450
0.180000000000000021,110.964968361331557389
0.181000000000000022,109.881194341969603556
0.182000000000000023,108.811067788903272913
0.183000000000000024,107.750688628072182951
0.184000000000000025,106.696215635456312043
0.185000000000000026,105.644070515026584189
0.186000000000000026,104.591090754516429229
0.187000000000000027,103.534633159570105931
0.188000000000000028,102.472632360844698951
0.189000000000000029,101.403620110336163407
0.190000000000000030,100.326711988689865507
0.191000000000000031,99.241568387123749062
0.192000000000000032,98.148336446229606622
0.193000000000000033,97.047579152718725481
0.194000000000000034,95.940197118531131082
0.195000000000000034,94.827347779834894936
0.196000000000000035,93.710365923399493226
0.197000000000000036,92.590688625402776779
0.198000000000000037,91.469786909516543005
0.199000000000000038,90.349105721760764709
0.200000000000000039,89.230013194053327652
0.201000000000000040,88.113759633823008244
0.202000000000000041,87.001446234826616433
0.203000000000000042,85.894003151406494112
0.204000000000000042,84.792176308816593178
0.205000000000000043,83.696522127955475412
0.206000000000000044,82.607409214808498632
0.207000000000000045,81.525025993626044851
0.208000000000000046,80.449393238920180238
0.209000000000000047,79.380380475751650238
0.210000000000000048,78.317725262166788980
0.211000000000000049,77.261054434516523770
0.212000000000000050,76.209906479125805845
0.213000000000000050,75.163754286683285954
0.214000000000000051,74.122027643983855683
0.215000000000000052,73.084134917339156345
0.216000000000000053,72.049483479910591655
0.217000000000000054,71.017498528972680560
0.218000000000000055,69.987640026860347575
0.219000000000000056,68.959417579820879496
0.220000000000000057,67.932403141363394639
0.221000000000000058,66.906241490558841178
0.222000000000000058,65.880658490969949526
0.223000000000000059,64.855467182635265999
0.224000000000000060,63.830571798116331195
0.225000000000000061,62.805969824527871026
0.226000000000000062,61.781752257279279661
0.227000000000000063,60.758102208609045647
0.228000000000000064,59.735292045567106811
0.229000000000000065,58.713679238584482789
0.230000000000000066,57.693701103845413058
0.231000000000000066,56.675868621001619374
0.232000000000000067,55.660759502966037360
0.233000000000000068,54.649010687174587986
0.234000000000000069,53.641310408343734650
0.235000000000000070,52.638390001862582324
0.236000000000000071,51.641015574973174296
0.237000000000000072,50.649979670190965919
0.238000000000000073,49.666093032333449742
0.239000000000000073,48.690176577339805419
0.240000000000000074,47.723053648016175998
0.241000000000000075,46.765542629132013985
0.242000000000000076,45.818449982076892013
0.243000000000000077,44.882563747693538403
0.244000000000000078,43.958647555025152087
0.245000000000000079,43.047435163620491494
0.246000000000000080,42.149625557774797358
0.247000000000000081,41.265878602669467057
0.248000000000000081,40.396811264817557685
0.249000000000000082,39.542994392516483515
0.250000000000000111,38.704950046133632213
0.251000000000000112,37.883149362975785834
0.252000000000000113,37.078010937181659301
0.253000000000000114,36.289899691487477185
0.254000000000000115,35.519126214797907437
0.255000000000000115,34.765946537202992772
0.256000000000000116,34.030562312361759325
0.257000000000000117,33.313121375975200067
0.258000000000000118,32.613718648343237305
0.259000000000000119,31.932397348691551997
0.260000000000000120,31.269150489016091399
0.261000000000000121,30.623922615580351447
0.262000000000000122,29.996611766866028148
0.263000000000000123,29.387071617683528046
0.264000000000000123,28.795113780252130198
0.265000000000000124,28.220510234327957022
0.266000000000000125,27.662995859855630698
0.267000000000000126,27.122271047118317711
0.268000000000000127,26.598004360931675194
0.269000000000000128,26.089835237047758199
0.270000000000000129,25.597376690581484127
0.271000000000000130,25.120218017926035259
0.272000000000000131,24.657927475269197259
0.273000000000000131,24.210054918443109528
0.274000000000000132,23.776134390425180953
0.275000000000000133,23.355686644345901470
0.276000000000000134,22.948221591341734893
0.277000000000000135,22.553240664012779604
0.278000000000000136,22.170239087596293359
0.279000000000000137,21.798708052248358058
0.280000000000000138,21.438136781031953859
0.281000000000000139,21.088014489337759017
0.282000000000000139,20.747832232515701634
0.283000000000000140,20.417084639468178864
0.284000000000000141,20.095271530851931630
0.285000000000000142,19.781899421355554125
0.286000000000000143,19.476482906265196959
0.287000000000000144,19.178545933205004559
0.288000000000000145,18.887622960542461925
0.289000000000000146,18.603260004487090384
0.290000000000000147,18.325015577384050403
0.291000000000000147,18.052461520118292526
0.292000000000000148,17.785183731901053505
0.293000000000000149,17.522782801013683240
0.294000000000000150,17.264874540335991782
0.295000000000000151,17.011090431692743152
0.296000000000000152,16.761077983214082820
0.297000000000000153,16.514501004028595332
0.298000000000000154,16.271039800693273492
0.299000000000000155,16.030391299817239315
0.300000000000000155,15.792269101357584660
0.301000000000000156,15.556403467060437862
0.302000000000000157,15.322541248489248034
0.303000000000000158,15.090445759030369999
0.304000000000000159,14.859896594193566344
0.305000000000000160,14.630689404435994305
0.306000000000000161,14.402635624634161360
0.307000000000000162,14.175562164211243044
0.308000000000000163,13.949311061799651412
0.309000000000000163,13.723739108181817414
0.310000000000000164,13.498717441107979553
0.311000000000000165,13.274131115439979922
0.312000000000000166,13.049878651915594929
0.313000000000000167,12.825871567670628082
0.314000000000000168,12.602033891496601470
0.315000000000000169,12.378301666651783108
0.316000000000000170,12.154622443882976413
0.317000000000000171,11.930954767156663365
0.318000000000000171,11.707267654440608240
0.319000000000000172,11.483540075721681006
0.320000000000000173,11.259760430294161182
0.321000000000000174,11.035926025203746548
0.322000000000000175,10.812042556588021824
0.323000000000000176,10.588123595513835085
0.324000000000000177,10.364190079776019360
0.325000000000000178,10.140269812991261844
0.326000000000000179,9.916396972194746695
0.327000000000000179,9.692611625026634314
0.328000000000000180,9.468959257480006997
0.329000000000000181,9.245490313071826449
0.330000000000000182,9.022259744193824815
0.331000000000000183,8.799326576300936509
0.332000000000000184,8.576753485500990593
0.333000000000000185,8.354606390020965279
0.334000000000000186,8.132954055941505445
0.335000000000000187,7.911867717513421105
0.336000000000000187,7.691420712296595852
0.337000000000000188,7.471688131293719337
0.338000000000000189,7.252746484187514220
0.339000000000000190,7.034673379731432696
0.340000000000000191,6.817547221289570025
0.341000000000000192,6.601446917471288423
0.342000000000000193,6.386451607760280424
0.343000000000000194,6.172640402995731357
0.344000000000000195,5.960092140525598658
0.345000000000000195,5.748885153816722493
0.346000000000000196,5.539097056276402142
0.347000000000000197,5.330804539011593235
0.348000000000000198,5.124083182227762379
0.349000000000000199,4.919007279947444466
0.350000000000000200,4.715649677709931709
0.351000000000000201,4.514081622896924273
0.352000000000000202,4.314372627315618658
0.353000000000000203,4.116590341658740826
0.354000000000000203,3.920800441451886886
0.355000000000000204,3.727066524091330990
0.356000000000000205,3.535450016569767318
0.357000000000000206,3.346010093483572145
0.358000000000000207,3.158803604913573704
0.359000000000000208,2.973885013770079855
0.360000000000000209,2.791306342193739631
0.361000000000000210,2.611117126606126604
0.362000000000000210,2.433364381006331900
0.363000000000000211,2.258092568114569154
0.364000000000000212,2.085343577968409967
0.365000000000000213,1.915156713583301196
0.366000000000000214,1.747568683295616321
0.367000000000000215,1.582613599413754013
0.368000000000000216,1.420322982810525936
0.369000000000000217,1.260725773098819946
0.370000000000000218,1.103848344040860407
0.371000000000000218,0.949714523851082459
0.372000000000000219,0.798345620061758354
0.373000000000000220,0.649760448630493981
0.374000000000000221,0.503975366978797190
0.375000000000000222,0.361004310661004135
0.376000000000000223,0.220858833372858887
0.377000000000000224,0.083548150019976619
0.378000000000000225,-0.050920817423697341
0.379000000000000226,-0.182543391526604731
0.380000000000000226,-0.311317088728565672
0.381000000000000227,-0.437241566626410338
0.382000000000000228,-0.560318569444858139
0.383000000000000229,-0.680551871910741069
0.384000000000000230,-0.797947221738924517
0.385000000000000231,-0.912512280928411856
0.386000000000000232,-1.024256566057222262
0.387000000000000233,-1.133191387755590362
0.388000000000000234,-1.239329789527203518
0.389000000000000234,-1.342686486079606389
0.390000000000000235,-1.443277801315723918
0.391000000000000236,-1.541121606129886690
0.392000000000000237,-1.636237256143466823
0.393000000000000238,-1.728645529506910972
0.394000000000000239,-1.818368564887065331
0.395000000000000240,-1.905429799751158892
0.396000000000000241,-1.989853909051189973
0.397000000000000242,-2.071666744405415095
0.398000000000000242,-2.150895273866754387
0.399000000000000243,-2.227567522361052710
0.400000000000000244,-2.301712512872089889
0.401000000000000245,-2.373360208443695996
0.402000000000000246,-2.442541455063545808
0.403000000000000247,-2.509287925487760251
0.404000000000000248,-2.573632064059582003
0.405000000000000249,-2.635607032570583819
0.406000000000000250,-2.695246657207656771
0.407000000000000250,-2.752585376624477220
0.408000000000000251,-2.807658191171514162
0.409000000000000252,-2.860500613314377549
0.410000000000000253,-2.911148619266356263
0.411000000000000254,-2.959638601856924289
0.412000000000000255,-3.006007324654481394
0.413000000000000256,-3.050291877358193737
0.414000000000000257,-3.092529632470214729
0.415000000000000258,-3.132758203256992058
0.416000000000000258,-3.171015403004892264
0.417000000000000259,-3.207339205573144003
0.418000000000000260,-3.241767707244170627
0.419000000000000261,-3.274339089869293673
0.420000000000000262,-3.305091585305218960
0.421000000000000263,-3.334063441135008965
0.422000000000000264,-3.361292887664872442
0.423000000000000265,-3.386818106186727739
0.424000000000000266,-3.410677198494546758
0.425000000000000266,-3.432908157640925051
0.426000000000000267,-3.453548839919201807
0.427000000000000268,-3.472636938054773026
0.428000000000000269,-3.490209955588307711
0.429000000000000270,-3.506305182432489342
0.430000000000000271,-3.520959671582672090
0.431000000000000272,-3.534210216961395812
0.432000000000000273,-3.546093332375437335
0.433000000000000274,-3.556645231563774878
0.434000000000000274,-3.565901809313968052
0.435000000000000275,-3.573898623624048643
0.436000000000000276,-3.580670878886513808
0.437000000000000277,-3.586253410070613601
0.438000000000000278,-3.590680667878839216
0.439000000000000279,-3.593986704853220804
0.440000000000000280,-3.596205162406878486
0.441000000000000281,-3.597369258756039301
0.442000000000000282,-3.597511777727867788
0.443000000000000282,-3.596665058419027616
0.444000000000000283,-3.594860985680369936
0.445000000000000284,-3.592130981402751111
0.446000000000000285,-3.588505996579355983
0.447000000000000286,-3.584016504120005386
0.448000000000000287,-3.578692492392829827
0.449000000000000288,-3.572563459469313862
0.450000000000000289,-3.565658408048490546
0.451000000000000290,-3.558005841036617767
0.452000000000000290,-3.549633757758916541
0.453000000000000291,-3.540569650779997968
0.454000000000000292,-3.530840503310284983
0.455000000000000293,-3.520472787175796814
0.456000000000000294,-3.509492461329116075
0.457000000000000295,-3.497924970879822126
0.458000000000000296,-3.485795246622785726
0.459000000000000297,-3.473127705043535407
0.460000000000000298,-3.459946248779804279
0.461000000000000298,-3.446274267519307877
0.462000000000000299,-3.432134639313788593
0.463000000000000300,-3.417549732290029674
0.464000000000000301,-3.402541406738971652
0.465000000000000302,-3.387131017564424695
0.466000000000000303,-3.371339417073275335
0.467000000000000304,-3.355186958089778848
0.468000000000000305,-3.338693497376611585
0.469000000000000306,-3.321878399346109401
0.470000000000000306,-3.304760540045526884
0.471000000000000307,-3.287358311400279121
0.472000000000000308,-3.269689625700126889
0.473000000000000309,-3.251771920313212494
0.474000000000000310,-3.233622162613568385
0.475000000000000311,-3.215256855108023615
0.476000000000000312,-3.196692040749051333
0.477000000000000313,-3.177943308420256407
0.478000000000000314,-3.159025798581840405
0.479000000000000314,-3.139954209063802626
0.480000000000000315,-3.120742800994845911
0.481000000000000316,-3.101405404855638981
0.482000000000000317,-3.081955426645249130
0.483000000000000318,-3.062405854150138218
0.484000000000000319,-3.042769263305363125
0.485000000000000320,-3.023057824638102797
0.486000000000000321,-3.003283309783966182
0.487000000000000322,-2.983457098066925717
0.488000000000000322,-2.963590183133952394
0.489000000000000323,-2.943693179636121648
0.490000000000000324,-2.923776329947846087
0.491000000000000325,-2.903849510916587384
0.492000000000000326,-2.883922240635550249
0.493000000000000327,-2.864003685232308083
0.494000000000000328,-2.844102665666439655
0.495000000000000329,-2.824227664529797899
0.496000000000000330,-2.804386832843078992
0.497000000000000330,-2.784587996842969204
0.498000000000000331,-2.764838664753960451
0.499000000000000332,-2.745146033539811903
0.500000000000000333,-2.725516995629354788
0.501000000000000334,-2.705958145611812249
0.502000000000000335,-2.686475786897241314
0.503000000000000336,-2.667075938337590379
0.504000000000000337,-2.647764340804402927
0.505000000000000338,-2.628546463719245718
0.506000000000000338,-2.609427511533282562
0.507000000000000339,-2.590412430152552847
0.508000000000000340,-2.571505913305712099
0.509000000000000341,-2.552712408851402159
0.510000000000000342,-2.534036125022166352
0.511000000000000343,-2.515481036602601694
0.512000000000000344,-2.497050891039062304
0.513000000000000345,-2.478749214478809471
0.514000000000000346,-2.460579317736511840
0.515000000000000346,-2.442544302186091976
0.516000000000000347,-2.424647065576222005
0.517000000000000348,-2.406890307767888260
0.518000000000000349,-2.389276536392459072
0.519000000000000350,-2.371808072429054004
0.520000000000000351,-2.354487055699883591
0.521000000000000352,-2.337315450282694496
0.522000000000000353,-2.320295049839173895
0.523000000000000353,-2.303427482858648290
0.524000000000000354,-2.286714217816342209
0.525000000000000355,-2.270156568245565776
0.526000000000000356,-2.253755697723375473
0.527000000000000357,-2.237512624769356862
0.528000000000000358,-2.221428227657136656
0.529000000000000359,-2.205503249138613064
0.530000000000000360,-2.189738301080522476
0.531000000000000361,-2.174133869013596509
0.532000000000000361,-2.158690316594164660
0.533000000000000362,-2.143407889978422354
0.534000000000000363,-2.128286722109513196
0.535000000000000364,-2.113326836917745588
0.536000000000000365,-2.098528153434201737
0.537000000000000366,-2.083890489818218672
0.538000000000000367,-2.069413567299058343
0.539000000000000368,-2.055097014032459590
0.540000000000000369,-2.040940368872401045
0.541000000000000369,-2.026943085058896976
0.542000000000000370,-2.013104533822260400
0.543000000000000371,-1.999424007904717415
0.544000000000000372,-1.985900724999950295
0.545000000000000373,-1.972533831111441982
0.546000000000000374,-1.959322403830344728
0.547000000000000375,-1.946265455533745081
0.548000000000000376,-1.933361936504205403
0.549000000000000377,-1.920610737971413240
0.550000000000000377,-1.908010695076936658
0.551000000000000378,-1.895560589762912418
0.552000000000000379,-1.883259153585781220
0.553000000000000380,-1.871105070455897801
0.554000000000000381,-1.859096979304082797
0.555000000000000382,-1.847233476676209962
0.556000000000000383,-1.835513119256652725
0.557000000000000384,-1.823934426321891511
0.558000000000000385,-1.812495882125082503
0.559000000000000385,-1.801195938212842407
0.560000000000000386,-1.790033015675238648
0.561000000000000387,-1.779005507330048363
0.562000000000000388,-1.768111779842383324
0.563000000000000389,-1.757350175780842516
0.564000000000000390,-1.746719015611133630
0.565000000000000391,-1.736216599628414015
0.566000000000000392,-1.725841209829316325
0.567000000000000393,-1.715591111724881657
0.568000000000000393,-1.705464556095344530
0.569000000000000394,-1.695459780687990747
0.570000000000000395,-1.685575011859137717
0.571000000000000396,-1.675808466161247789
0.572000000000000397,-1.666158351876415367
0.573000000000000398,-1.656622870497116207
0.574000000000000399,-1.647200218155464357
0.575000000000000400,-1.637888587001898433
0.576000000000000401,-1.628686166534433655
0.577000000000000401,-1.619591144879557465
0.578000000000000402,-1.610601710025704181
0.579000000000000403,-1.601716051010410924
0.580000000000000404,-1.592932359062237735
0.581000000000000405,-1.584248828698302303
0.582000000000000406,-1.575663658778621912
0.583000000000000407,-1.567175053518099936
0.584000000000000408,-1.558781223457252230
0.585000000000000409,-1.550480386392587118
0.586000000000000409,-1.542270768267604009
0.587000000000000410,-1.534150604025412923
0.588000000000000411,-1.526118138423800064
0.589000000000000412,-1.518171626813842323
0.590000000000000413,-1.510309335882778381
0.591000000000000414,-1.502529544362197100
0.592000000000000415,-1.494830543702390990
0.593000000000000416,-1.487210638713680311
0.594000000000000417,-1.479668148175646181
0.595000000000000417,-1.472201405415179964
0.596000000000000418,-1.464808758853956894
0.597000000000000419,-1.457488572526481452
0.598000000000000420,-1.450239226569200568
0.599000000000000421,-1.443059117681736447
0.600000000000000422,-1.435946659560850547
0.601000000000000423,-1.428900283307979135
0.602000000000000424,-1.421918437811132918
0.603000000000000425,-1.414999590101833293
0.604000000000000425,-1.408142225687835758
0.605000000000000426,-1.401344848862394077
0.606000000000000427,-1.394605982990790860
0.607000000000000428,-1.387924170774632815
0.608000000000000429,-1.381297974494953618
0.609000000000000430,-1.374725976234366653
0.610000000000000431,-1.368206778079278596
0.611000000000000432,-1.361739002302578383
0.612000000000000433,-1.355321291527498362
0.613000000000000433,-1.348952308873310857
