# Muscovite-001_GLU-AC
# h[nm],U(h)[kJ/mol]
0.149999999999999994,174.241973525621887120
0.150999999999999995,170.838863282302952484
0.151999999999999996,168.762275357008292076
0.152999999999999997,166.951913375915523829
0.153999999999999998,165.024667851960714415
0.154999999999999999,162.913739212960933855
0.156000000000000000,160.674497487539667873
0.157000000000000001,158.388260363489820293
0.158000000000000002,156.121149379108175026
0.159000000000000002,153.912024283192948815
0.160000000000000003,151.774237956394983939
0.161000000000000004,149.702670744120382551
0.162000000000000005,147.681595530420082696
0.163000000000000006,145.691333757552627048
0.164000000000000007,143.713012235726182553
0.165000000000000008,141.731430496522818885
0.166000000000000009,139.736363211459092781
0.167000000000000010,137.722719607658291352
0.168000000000000010,135.689965718826016428
0.169000000000000011,133.641147932401509024
0.170000000000000012,131.581773211683241698
0.171000000000000013,129.518721493307936043
0.172000000000000014,127.459297871898428411
0.173000000000000015,125.410479180972487256
0.174000000000000016,123.378371147915686379
0.175000000000000017,121.367866568022236606
0.176000000000000018,119.382479457409502288
0.177000000000000018,117.424322428522870609
0.178000000000000019,115.494192359798006464
0.179000000000000020,113.591730948524215705
0.180000000000000021,111.715630482846947302
0.181000000000000022,109.863860051489126590
0.182000000000000023,108.033892650055733498
0.183000000000000024,106.222918719647807961
0.184000000000000025,104.428036246082086791
0.185000000000000026,102.646411484909620526
0.186000000000000026,100.875407594112488141
0.187000000000000027,99.112680960782086004
0.188000000000000028,97.356246854037863159
0.189000000000000029,95.604517303623765656
0.190000000000000030,93.856314883232968782
0.191000000000000031,92.110866462478924177
0.192000000000000032,90.367781069534402150
0.193000000000000033,88.627015857069039839
0.194000000000000034,86.888833855875844847
0.195000000000000034,85.153756790839565838
0.196000000000000035,83.422515769031704735
0.197000000000000036,81.696002165901418834
0.198000000000000037,79.975220559909928397
0.199000000000000038,78.261245117911244051
0.200000000000000039,76.555180426020427831
0.201000000000000040,74.858127401287646308
0.202000000000000041,73.171154611753564723
0.203000000000000042,71.495275076797980773
0.204000000000000042,69.831428414211842437
0.205000000000000043,68.180468041653881528
0.206000000000000044,66.543153023594783235
0.207000000000000045,64.920144075466794220
0.208000000000000046,63.312003189264132175
0.209000000000000047,61.719196324083362981
0.210000000000000048,60.142098606100923064
0.211000000000000049,58.581001500672542193
0.212000000000000050,57.036121450468442617
0.213000000000000050,55.507609514190548339
0.214000000000000051,53.995561587295107131
0.215000000000000052,52.500028836616024819
0.216000000000000053,51.021028032649958561
0.217000000000000054,49.558551514756274514
0.218000000000000055,48.112576574259286133
0.219000000000000056,46.683074087378699346
0.220000000000000057,45.270016273302530863
0.221000000000000058,43.873383492076960977
0.222000000000000058,42.493170032019463633
0.223000000000000059,41.129388866977080852
0.224000000000000060,39.782075389964447254
0.225000000000000061,38.451290151677802953
0.226000000000000062,37.137120650304360936
0.227000000000000063,35.839682233213373763
0.228000000000000064,34.559118181845100537
0.229000000000000065,33.295599058741238707
0.230000000000000066,32.049321400544229732
0.231000000000000066,30.820505843272428592
0.232000000000000067,29.609394766601116800
0.233000000000000068,28.416249542563669195
0.234000000000000069,27.241347471340496611
0.235000000000000070,26.084978482903601105
0.236000000000000071,24.947441678490157813
0.237000000000000072,23.829041780414556229
0.238000000000000073,22.730085552803323878
0.239000000000000073,21.650878249628064509
0.240000000000000074,20.591720140066222200
0.241000000000000075,19.552903154879363257
0.242000000000000076,18.534707691262287454
0.243000000000000077,17.537399607578400662
0.244000000000000078,16.561227433628268102
0.245000000000000079,15.606419816651428079
0.246000000000000080,14.673183218181453213
0.247000000000000081,13.761699872183180915
0.248000000000000081,12.872126010622130465
0.249000000000000082,12.004590358753580048
0.250000000000000111,11.159192898972641217
0.251000000000000112,10.336003899032718323
0.252000000000000113,9.535063197801591173
0.253000000000000114,8.756379739472979651
0.254000000000000115,7.999931345257484949
0.255000000000000115,7.265664710028367779
0.256000000000000116,6.553495610162978657
0.257000000000000117,5.863309307879967847
0.258000000000000118,5.194961136699084214
0.259000000000000119,4.548277252217896027
0.260000000000000120,3.923055532184382521
0.261000000000000121,3.319066609822736602
0.262000000000000122,2.736055024515316791
0.263000000000000123,2.173740474238203380
0.264000000000000123,1.631819154566144459
0.265000000000000124,1.109965169588523537
0.266000000000000125,0.607832000690354257
0.267000000000000126,0.125054019836116664
0.268000000000000127,-0.338751965267954702
0.269000000000000128,-0.783985145977097231
0.270000000000000129,-1.211059138513212563
0.271000000000000130,-1.620400410983972694
0.272000000000000131,-2.012446720995209493
0.273000000000000131,-2.387645572406737138
0.274000000000000132,-2.746452698960837768
0.275000000000000133,-3.089330581708896961
0.276000000000000134,-3.416747006379202478
0.277000000000000135,-3.729173666072342908
0.278000000000000136,-4.027084813945660535
0.279000000000000137,-4.310955969855205794
0.280000000000000138,-4.581262684266573793
0.281000000000000139,-4.838479362126777872
0.282000000000000139,-5.083078148807700813
0.283000000000000140,-5.315527879689804003
0.284000000000000141,-5.536293094451776753
0.285000000000000142,-5.745833116668151774
0.286000000000000143,-5.944601198891940719
0.287000000000000144,-6.133043733011652066
0.288000000000000145,-6.311599525322426629
0.289000000000000146,-6.480699135435079583
0.290000000000000147,-6.640764277867345911
0.291000000000000147,-6.792207284912859855
0.292000000000000148,-6.935430629167410821
0.293000000000000149,-7.070826503904179106
0.294000000000000150,-7.198776459330572308
0.295000000000000151,-7.319651092625908184
0.296000000000000152,-7.433809789549838953
0.297000000000000153,-7.541600515325323606
0.298000000000000154,-7.643359652434028817
0.299000000000000155,-7.739411882916025220
0.300000000000000155,-7.830070112736757793
0.301000000000000156,-7.915635435771489092
0.302000000000000157,-7.996397134959631003
0.303000000000000158,-8.072632718195862367
0.304000000000000159,-8.144607986552022894
0.305000000000000160,-8.212577132460410212
0.306000000000000161,-8.276782865535562195
0.307000000000000162,-8.337456563765815787
0.308000000000000163,-8.394818447866731148
0.309000000000000163,-8.449077776655746774
0.310000000000000164,-8.500433061379121469
0.311000000000000165,-8.549072296998158293
0.312000000000000166,-8.595173208521000419
0.313000000000000167,-8.638903510547681464
0.314000000000000168,-8.680421178279761563
0.315000000000000169,-8.719874728330314184
0.316000000000000170,-8.757403507755594063
0.317000000000000171,-8.793137989814468369
0.318000000000000171,-8.827200075047212380
0.319000000000000172,-8.859703396349265958
0.320000000000000173,-8.890753626798604259
0.321000000000000174,-8.920448789076967699
0.322000000000000175,-8.948879565405418290
0.323000000000000176,-8.976129606992312659
0.324000000000000177,-9.002275842067827938
0.325000000000000178,-9.027388781652494032
0.326000000000000179,-9.051532822278463897
0.327000000000000179,-9.074766544950366054
0.328000000000000180,-9.097143009698420713
0.329000000000000181,-9.118710045139916787
0.330000000000000182,-9.139510532524536046
0.331000000000000183,-9.159582683797486524
0.332000000000000184,-9.178960313268074600
0.333000000000000185,-9.197673102523797439
0.334000000000000186,-9.215746858278718534
0.335000000000000187,-9.233203762891260880
0.336000000000000187,-9.250062617330218728
0.337000000000000188,-9.266339076408247166
0.338000000000000189,-9.282045876141024721
0.339000000000000190,-9.297193053125516471
0.340000000000000191,-9.311788155864118011
0.341000000000000192,-9.325836447992731593
0.342000000000000193,-9.339341103398913546
0.343000000000000194,-9.352303393243150964
0.344000000000000195,-9.364722864919860612
0.345000000000000195,-9.376597513017882690
0.346000000000000196,-9.387923942359412521
0.347000000000000197,-9.398697523215558292
0.348000000000000198,-9.408912538812781889
0.349000000000000199,-9.418562325259580703
0.350000000000000200,-9.427639404036066040
0.351000000000000201,-9.436135607200828446
0.352000000000000202,-9.444042195479758206
0.353000000000000203,-9.451349969410665963
0.354000000000000203,-9.458049373725151199
0.355000000000000204,-9.464130595155577197
0.356000000000000205,-9.469583653860686567
0.357000000000000206,-9.474398488667763019
0.358000000000000207,-9.478565036332177840
0.359000000000000208,-9.482073305018399623
0.360000000000000209,-9.484913442207700385
0.361000000000000210,-9.487075797238796682
0.362000000000000210,-9.488550978688065740
0.363000000000000211,-9.489329906795211045
0.364000000000000212,-9.489403861139537710
0.365000000000000213,-9.488764523770090165
0.366000000000000214,-9.487404017991099892
0.367000000000000215,-9.485314943001359467
0.368000000000000216,-9.482490404583629129
0.369000000000000217,-9.478924042036403819
0.370000000000000218,-9.474610051537187161
0.371000000000000218,-9.469543206122247980
0.372000000000000219,-9.463718872463839915
0.373000000000000220,-9.457133024621604989
0.374000000000000221,-9.449782254940124915
0.375000000000000222,-9.441663782260011573
0.376000000000000223,-9.432775457605391267
0.377000000000000224,-9.423115767505278129
0.378000000000000225,-9.412683835101702812
0.379000000000000226,-9.401479419192272147
0.380000000000000226,-9.389502911349982384
0.381000000000000227,-9.376755331257587756
0.382000000000000228,-9.363238320389346114
0.383000000000000229,-9.348954134167403396
0.384000000000000230,-9.333905632715175926
0.385000000000000231,-9.318096270325414210
0.386000000000000232,-9.301530083755084277
0.387000000000000233,-9.284211679454957178
0.388000000000000234,-9.266146219836446818
0.389000000000000234,-9.247339408674074335
0.390000000000000235,-9.227797475736618793
0.391000000000000236,-9.207527160736256988
0.392000000000000237,-9.186535696679772656
0.393000000000000238,-9.164830792702311157
0.394000000000000239,-9.142420616459231653
0.395000000000000240,-9.119313776148143091
0.396000000000000241,-9.095519302228723291
0.397000000000000242,-9.071046628904252174
0.398000000000000242,-9.045905575425102541
0.399000000000000243,-9.020106327270536184
0.400000000000000244,-8.993659417261849143
0.401000000000000245,-8.966575706656531253
0.402000000000000246,-8.938866366269531127
0.403000000000000247,-8.910542857664948357
0.404000000000000248,-8.881616914458117407
0.405000000000000249,-8.852100523765352946
0.406000000000000250,-8.822005907835624328
0.407000000000000250,-8.791345505895909795
0.408000000000000251,-8.760131956239270323
0.409000000000000252,-8.728378078582352373
0.410000000000000253,-8.696096856716497570
0.411000000000000254,-8.663301421474624675
0.412000000000000255,-8.630005034033612077
0.413000000000000256,-8.596221069570258777
0.414000000000000257,-8.561963001286475361
0.415000000000000258,-8.527244384818041922
0.416000000000000258,-8.492078843039081448
0.417000000000000259,-8.456480051273029375
0.418000000000000260,-8.420461722919139191
0.419000000000000261,-8.384037595502288553
0.420000000000000262,-8.347221417152145051
0.421000000000000263,-8.310026933516869718
0.422000000000000264,-8.272467875114813296
0.423000000000000265,-8.234557945126903533
0.424000000000000266,-8.196310807631205009
0.425000000000000266,-8.157740076279965891
0.426000000000000267,-8.118859303418750173
0.427000000000000268,-8.079681969646301809
0.428000000000000269,-8.040221473812797726
0.429000000000000270,-8.000491123453715048
0.430000000000000271,-7.960504125655447183
0.431000000000000272,-7.920273578348560939
0.432000000000000273,-7.879812462023565445
0.433000000000000274,-7.839133631863958840
0.434000000000000274,-7.798249810290369233
0.435000000000000275,-7.757173579909564687
0.436000000000000276,-7.715917376861429311
0.437000000000000277,-7.674493484556663248
0.438000000000000278,-7.632914027797761847
0.439000000000000279,-7.591190967275467827
0.440000000000000280,-7.549336094432506528
0.441000000000000281,-7.507361026686363736
0.442000000000000282,-7.465277203002727902
0.443000000000000282,-7.423095879810629683
0.444000000000000283,-7.380828127250810056
0.445000000000000284,-7.338484825748172291
0.446000000000000285,-7.296076662899347198
0.447000000000000286,-7.253614130666477422
0.448000000000000287,-7.211107522867806097
0.449000000000000288,-7.168566932956254689
0.450000000000000289,-7.126002252076607313
0.451000000000000290,-7.083423167392304265
0.452000000000000290,-7.040839160672765829
0.453000000000000291,-6.998259507132090107
0.454000000000000292,-6.955693274510267088
0.455000000000000293,-6.913149322387913465
0.456000000000000294,-6.870636301725710382
0.457000000000000295,-6.828162654619880811
0.458000000000000296,-6.785736614264950006
0.459000000000000297,-6.743366205115423284
0.460000000000000298,-6.701059243237869723
0.461000000000000298,-6.658823336845268059
0.462000000000000299,-6.616665887005405366
0.463000000000000300,-6.574594088515366863
0.464000000000000301,-6.532614930934377284
0.465000000000000302,-6.490735199767234676
0.466000000000000303,-6.448961477790834174
0.467000000000000304,-6.407300146516493378
0.468000000000000305,-6.365757387780829113
0.469000000000000306,-6.324339185458177859
0.470000000000000306,-6.283051327287841659
0.471000000000000307,-6.241899406809197970
0.472000000000000308,-6.200888825398526372
0.473000000000000309,-6.160024794400949411
0.474000000000000310,-6.119312337351463960
0.475000000000000311,-6.078756292279029694
0.476000000000000312,-6.038361314087998366
0.477000000000000313,-5.998131877011124047
0.478000000000000314,-5.958072277128750649
0.479000000000000314,-5.918186634948962244
0.480000000000000315,-5.878478898043437262
0.481000000000000316,-5.838952843734194431
0.482000000000000317,-5.799612081826327703
0.483000000000000318,-5.760460057382222665
0.484000000000000319,-5.721500053532696306
0.485000000000000320,-5.682735194320882144
0.486000000000000321,-5.644168447574614333
0.487000000000000322,-5.605802627803429417
0.488000000000000322,-5.567640399116231542
0.489000000000000323,-5.529684278156146604
0.490000000000000324,-5.491936637048844716
0.491000000000000325,-5.454399706361067857
0.492000000000000326,-5.417075578066046226
0.493000000000000327,-5.379966208512815484
0.494000000000000328,-5.343073421396333345
0.495000000000000329,-5.306398910725710572
0.496000000000000330,-5.269944243787696436
0.497000000000000330,-5.233710864103072069
0.498000000000000331,-5.197700094373192137
0.499000000000000332,-5.161913139414695095
0.500000000000000333,-5.126351089079935086
0.501000000000000334,-5.091014921161082896
0.502000000000000335,-5.055905504275987283
0.503000000000000336,-5.021023600733887982
0.504000000000000337,-4.986369869379173814
0.505000000000000338,-4.951944868411560563
0.506000000000000338,-4.917749058181126287
0.507000000000000339,-4.883782803956709273
0.508000000000000340,-4.850046378666259983
0.509000000000000341,-4.816539965608001239
0.510000000000000342,-4.783263661130994215
0.511000000000000343,-4.750217477284152778
0.512000000000000344,-4.717401344432589738
0.513000000000000345,-4.684815113840357981
0.514000000000000346,-4.652458560218777350
0.515000000000000346,-4.620331384239394268
0.516000000000000347,-4.588433215010942590
0.517000000000000348,-4.556763612519702633
0.518000000000000349,-4.525322070032427924
0.519000000000000350,-4.494108016461566990
0.520000000000000351,-4.463120818692103420
0.521000000000000352,-4.432359783869724623
0.522000000000000353,-4.401824161649860123
0.523000000000000353,-4.371513146407298933
0.524000000000000354,-4.341425879406227928
0.525000000000000355,-4.311561450930298633
0.526000000000000356,-4.281918902372696678
0.527000000000000357,-4.252497228286088671
0.528000000000000358,-4.223295378392246668
0.529000000000000359,-4.194312259551507438
0.530000000000000360,-4.165546737691867563
0.531000000000000361,-4.136997639697915119
0.532000000000000361,-4.108663755259579276
0.533000000000000362,-4.080543838680847912
0.534000000000000363,-4.052636610648574944
0.535000000000000364,-4.024940759961562975
0.536000000000000365,-3.997454945220096256
0.537000000000000366,-3.970177796476201060
0.538000000000000367,-3.943107916844783567
0.539000000000000368,-3.916243884076081372
0.540000000000000369,-3.889584252089529848
0.541000000000000369,-3.863127552469559411
0.542000000000000370,-3.836872295923499987
0.543000000000000371,-3.810816973702037647
0.544000000000000372,-3.784960058982596909
0.545000000000000373,-3.759300008216020395
0.546000000000000374,-3.733835262436916658
0.547000000000000375,-3.708564248538166019
0.548000000000000376,-3.683485380509997409
0.549000000000000377,-3.658597060644036336
0.550000000000000377,-3.633897680702831146
0.551000000000000378,-3.609385623055282544
0.552000000000000379,-3.585059261778520856
0.553000000000000380,-3.560916963726616924
0.554000000000000381,-3.536957089566655554
0.555000000000000382,-3.513177994782776814
0.556000000000000383,-3.489578030648431195
0.557000000000000384,-3.466155545167670660
0.558000000000000385,-3.442908883985715818
0.559000000000000385,-3.419836391269492459
0.560000000000000386,-3.396936410558561992
0.561000000000000387,-3.374207285587025318
0.562000000000000388,-3.351647361076838028
0.563000000000000389,-3.329254983503196375
0.564000000000000390,-3.307028501832357303
0.565000000000000391,-3.284966268232561326
0.566000000000000392,-3.263066638758462368
0.567000000000000393,-3.241327974009714730
0.568000000000000393,-3.219748639764082210
0.569000000000000394,-3.198327007585739512
0.570000000000000395,-3.177061455409222468
0.571000000000000396,-3.155950368099472492
0.572000000000000397,-3.134992137988656058
0.573000000000000398,-3.114185165390085164
0.574000000000000399,-3.093527859089898246
0.575000000000000400,-3.073018636816883919
0.576000000000000401,-3.052655925691016403
0.577000000000000401,-3.032438162651231561
0.578000000000000402,-3.012363794862812583
0.579000000000000403,-2.992431280104962177
0.580000000000000404,-2.972639087139081759
0.581000000000000405,-2.952985696058086251
0.582000000000000406,-2.933469598617397089
0.583000000000000407,-2.914089298547930973
0.584000000000000408,-2.894843311851657663
0.585000000000000409,-2.875730167080110977
0.586000000000000409,-2.856748405596317486
0.587000000000000410,-2.837896581820626096
0.588000000000000411,-2.819173263460782231
0.589000000000000412,-2.800577031726819932
0.590000000000000413,-2.782106481531016140
0.591000000000000414,-2.763760221673478679
0.592000000000000415,-2.745536875013737443
0.593000000000000416,-2.727435078628659859
0.594000000000000417,-2.709453483957191988
0.595000000000000417,-2.691590756932344508
0.596000000000000418,-2.673845578100594533
0.597000000000000419,-2.656216642729417821
0.598000000000000420,-2.638702660902974451
0.599000000000000421,-2.621302357606600797
0.600000000000000422,-2.604014472800269875
0.601000000000000423,-2.586837761481485920
0.602000000000000424,-2.569770993737906739
0.603000000000000425,-2.552812954790061095
0.604000000000000425,-2.535962445024458667
0.605000000000000426,-2.519218280017442968
0.606000000000000427,-2.502579290550180247
0.607000000000000428,-2.486044322614840762
0.608000000000000429,-2.469612237412717182
0.609000000000000430,-2.453281911344058486
0.610000000000000431,-2.437052235990400550
0.611000000000000432,-2.420922118089331665
0.612000000000000433,-2.404890479502116651
