# ZnO10m10NBDry_TYRSCA-AC
# h[nm],U(h)[kJ/mol]
0.200000000000000011,80.889353842234385183
0.201000000000000012,79.594019464784565798
0.202000000000000013,78.138136165536508315
0.203000000000000014,76.628857505263198391
0.204000000000000015,75.122989662124183496
0.205000000000000016,73.646369976151092374
0.206000000000000016,72.206830550967637805
0.207000000000000017,70.802639400042281181
0.208000000000000018,69.427800656719867334
0.209000000000000019,68.075213257536091760
0.210000000000000020,66.738403421344315802
0.211000000000000021,65.412336436180751775
0.212000000000000022,64.093659493078547484
0.213000000000000023,62.780615604289280896
0.214000000000000024,61.472788351683014696
0.215000000000000024,60.170780221670256083
0.216000000000000025,58.875887454762882101
0.217000000000000026,57.589807040833512986
0.218000000000000027,56.314393252519700184
0.219000000000000028,55.051469339835513495
0.220000000000000029,53.802692791560843943
0.221000000000000030,52.569468494863102137
0.222000000000000031,51.352902168828151730
0.223000000000000032,50.153785872538357182
0.224000000000000032,48.972607670539112235
0.225000000000000033,47.809578312801441768
0.226000000000000034,46.664668803505563233
0.227000000000000035,45.537653828260246769
0.228000000000000036,44.428157078216699460
0.229000000000000037,43.335695490030019528
0.230000000000000038,42.259720280341028342
0.231000000000000039,41.199653379850687429
0.232000000000000040,40.154918465511777015
0.233000000000000040,39.124966258194149304
0.234000000000000041,38.109294110170210956
0.235000000000000042,37.107460166759182130
0.236000000000000043,36.119092564758105368
0.237000000000000044,35.143894241605295292
0.238000000000000045,34.181643987120040151
0.239000000000000046,33.232194386194592539
0.240000000000000047,32.295467286398341855
0.241000000000000048,31.371447387900122550
0.242000000000000048,30.460174501680903347
0.243000000000000049,29.561734961562319057
0.244000000000000050,28.676252610745159188
0.245000000000000051,27.803879717871609500
0.246000000000000052,26.944788113742738744
0.247000000000000053,26.099160779601184856
0.248000000000000054,25.267184062587823234
0.249000000000000055,24.449040644352145080
0.250000000000000056,23.644903345206358836
0.251000000000000056,22.854929808725451323
0.252000000000000057,22.079258080156861865
0.253000000000000058,21.318003066097837461
0.254000000000000059,20.571253842204065165
0.255000000000000060,19.839071759725140254
0.256000000000000061,19.121489289898669028
0.257000000000000062,18.418509537149578392
0.258000000000000063,17.730106347114610088
0.259000000000000064,17.056224933252288167
0.260000000000000064,16.396782945742451432
0.261000000000000065,15.751671908107676146
0.262000000000000066,15.120758950115959607
0.263000000000000067,14.503888769718292551
0.264000000000000068,13.900885761736038404
0.265000000000000069,13.311556256489168959
0.266000000000000070,12.735690817332729452
0.267000000000000071,12.173066551962355319
0.268000000000000071,11.623449398216479267
0.269000000000000072,11.086596350821508850
0.270000000000000073,10.562257601006750818
0.271000000000000074,10.050178566087877741
0.272000000000000075,9.550101790930503043
0.273000000000000076,9.061768707627958719
0.274000000000000077,8.584921243738232732
0.275000000000000078,8.119303273018701361
0.276000000000000079,7.664661905775751904
0.277000000000000079,7.220748618718199729
0.278000000000000080,6.787320226587418404
0.279000000000000081,6.364139699849963527
0.280000000000000082,5.950976834407319949
0.281000000000000083,5.547608780625237657
0.282000000000000084,5.153820440041195106
0.283000000000000085,4.769404738899027052
0.284000000000000086,4.394162788211946058
0.285000000000000087,4.027903940398152471
0.286000000000000087,3.670445752689737162
0.287000000000000088,3.321613867513165896
0.288000000000000089,2.981241819900128043
0.289000000000000090,2.649170781732574920
0.290000000000000091,2.325249252276946343
0.291000000000000092,2.009332704035405648
0.292000000000000093,1.701283192456215954
0.293000000000000094,1.400968937513530577
0.294000000000000095,1.108263884603744476
0.295000000000000095,0.823047251621418341
0.296000000000000096,0.545203068484833575
0.297000000000000097,0.274619714785948765
0.298000000000000098,0.011189460651643479
0.299000000000000099,-0.245191984672935959
0.300000000000000100,-0.494625912565330839
0.301000000000000101,-0.737211039673436153
0.302000000000000102,-0.973043914561524614
0.303000000000000103,-1.202219303928984129
0.304000000000000103,-1.424830556427119088
0.305000000000000104,-1.640969942520646541
0.306000000000000105,-1.850728969229256338
0.307000000000000106,-2.054198668941262351
0.308000000000000107,-2.251469861816620899
0.309000000000000108,-2.442633391589875469
0.310000000000000109,-2.627780334847261479
0.311000000000000110,-2.807002184085077623
0.312000000000000111,-2.980391005062783538
0.313000000000000111,-3.148039569142006222
0.314000000000000112,-3.310041461456278089
0.315000000000000113,-3.466491165885325021
0.316000000000000114,-3.617484127914978753
0.317000000000000115,-3.763116796549791587
0.318000000000000116,-3.903486646513028457
0.319000000000000117,-4.038692182018318810
0.320000000000000118,-4.168832923431191162
0.321000000000000119,-4.294009378158440526
0.322000000000000119,-4.414322997109707991
0.323000000000000120,-4.529876118070679247
0.324000000000000121,-4.640771897312606420
0.325000000000000122,-4.747114230738497476
0.326000000000000123,-4.849007665834757397
0.327000000000000124,-4.946557305658662251
0.328000000000000125,-5.039868706048306279
0.329000000000000126,-5.129047767192867369
0.330000000000000127,-5.214200620648938411
0.331000000000000127,-5.295433512833422895
0.332000000000000128,-5.372852685966101660
0.333000000000000129,-5.446564257376103058
0.334000000000000130,-5.516674098026516759
0.335000000000000131,-5.583287711051624136
0.336000000000000132,-5.646510111040509372
0.337000000000000133,-5.706445704741796021
0.338000000000000134,-5.763198173805415436
0.339000000000000135,-5.816870360119649419
0.340000000000000135,-5.867564154246277752
0.341000000000000136,-5.915380387401929063
0.342000000000000137,-5.960418727381893156
0.343000000000000138,-6.002777578772143130
0.344000000000000139,-6.042553987747698585
0.345000000000000140,-6.079843551709557481
0.346000000000000141,-6.114740333969307606
0.347000000000000142,-6.147336783649566705
0.348000000000000143,-6.177723660930247718
0.349000000000000143,-6.205989967734415025
0.350000000000000144,-6.232222883914301903
0.351000000000000145,-6.256507708966717374
0.352000000000000146,-6.278927809278616934
0.353000000000000147,-6.299564570876980518
0.354000000000000148,-6.318497357633265921
0.355000000000000149,-6.335803474850506767
0.356000000000000150,-6.351558138141522925
0.357000000000000151,-6.365834447488763814
0.358000000000000151,-6.378703366360491955
0.359000000000000152,-6.390233705743996850
0.360000000000000153,-6.400492112944405676
0.361000000000000154,-6.409543064986844563
0.362000000000000155,-6.417448866450982337
0.363000000000000156,-6.424269651559346705
0.364000000000000157,-6.430063390334564311
0.365000000000000158,-6.434885898636312440
0.366000000000000159,-6.438790851884505173
0.367000000000000159,-6.441829802273436378
0.368000000000000160,-6.444052199279676429
0.369000000000000161,-6.445505413266323202
0.370000000000000162,-6.446234761986431749
0.371000000000000163,-6.446283539789879669
0.372000000000000164,-6.445693049339500824
0.373000000000000165,-6.444502635645309674
0.374000000000000166,-6.442749722228549913
0.375000000000000167,-6.440469849230997745
0.376000000000000167,-6.437696713289332351
0.377000000000000168,-6.434462208998731114
0.378000000000000169,-6.430796471794877789
0.379000000000000170,-6.426727922088828038
0.380000000000000171,-6.422283310494654174
0.381000000000000172,-6.417487763995393557
0.382000000000000173,-6.412364832898840739
0.383000000000000174,-6.406936538440701767
0.384000000000000175,-6.401223420898626060
0.385000000000000175,-6.395244588086862692
0.386000000000000176,-6.389017764107648212
0.387000000000000177,-6.382559338241247993
0.388000000000000178,-6.375884413863246891
0.389000000000000179,-6.369006857283440404
0.390000000000000180,-6.361939346406957796
0.391000000000000181,-6.354693419124253673
0.392000000000000182,-6.347279521342466424
0.393000000000000183,-6.339707054576395606
0.394000000000000183,-6.331984423023180319
0.395000000000000184,-6.324119080050153663
0.396000000000000185,-6.316117574030814197
0.397000000000000186,-6.307985593469036090
0.398000000000000187,-6.299728011356849677
0.399000000000000188,-6.291348928715902566
0.400000000000000189,-6.282851717277447179
0.401000000000000190,-6.274239061260476369
0.402000000000000191,-6.265512998211743678
0.403000000000000191,-6.256674958875777293
0.404000000000000192,-6.247725806067069954
0.405000000000000193,-6.238665872520298805
0.406000000000000194,-6.229494997698311387
0.407000000000000195,-6.220212563540978401
0.408000000000000196,-6.210817529141371196
0.409000000000000197,-6.201308464338869619
0.410000000000000198,-6.191683582221833682
0.411000000000000199,-6.181940770535127250
0.412000000000000199,-6.172077621990625929
0.413000000000000200,-6.162091463481178977
0.414000000000000201,-6.151979384200895851
0.415000000000000202,-6.141738262676699200
0.416000000000000203,-6.131364792718285273
0.417000000000000204,-6.120855508295337088
0.418000000000000205,-6.110206807352660974
0.419000000000000206,-6.099414974575559256
0.420000000000000207,-6.088476203119085994
0.421000000000000207,-6.077386615316443752
0.422000000000000208,-6.066142282382624096
0.423000000000000209,-6.054739243130979887
0.424000000000000210,-6.043173521721040053
0.425000000000000211,-6.031441144456914039
0.426000000000000212,-6.019538155656601219
0.427000000000000213,-6.007460632612877660
0.428000000000000214,-5.995204699667405990
0.429000000000000214,-5.982766541419997530
0.430000000000000215,-5.970142415095533117
0.431000000000000216,-5.957328662091377680
0.432000000000000217,-5.944321718728429182
0.433000000000000218,-5.931118126229113940
0.434000000000000219,-5.917714539945967189
0.435000000000000220,-5.904107737864327632
0.436000000000000221,-5.890294628402910959
0.437000000000000222,-5.876272257535863908
0.438000000000000222,-5.862037815259973250
0.439000000000000223,-5.847588641430557566
0.440000000000000224,-5.832922230989343149
0.441000000000000225,-5.818036238607577459
0.442000000000000226,-5.802928482767359064
0.443000000000000227,-5.787596949303786431
0.444000000000000228,-5.772039794430514625
0.445000000000000229,-5.756255347270704092
0.446000000000000230,-5.740242111915149437
0.447000000000000230,-5.723998769029078559
0.448000000000000231,-5.707524177028570733
0.449000000000000232,-5.690817372847202016
0.450000000000000233,-5.673877572313234197
0.451000000000000234,-5.656704170156976019
0.452000000000000235,-5.639296739667775782
0.453000000000000236,-5.621655032019384990
0.454000000000000237,-5.603778975282251551
0.455000000000000238,-5.585668673140520291
0.456000000000000238,-5.567324403331318727
0.457000000000000239,-5.548746615823210604
0.458000000000000240,-5.529935930750395912
0.459000000000000241,-5.510893136118514057
0.460000000000000242,-5.491619185297737182
0.461000000000000243,-5.472115194317992426
0.462000000000000244,-5.452382438981040025
0.463000000000000245,-5.432422351803181115
0.464000000000000246,-5.412236518802475693
0.465000000000000246,-5.391826676143312902
0.466000000000000247,-5.371194706651033712
0.467000000000000248,-5.350342636208759828
0.468000000000000249,-5.329272630048069281
0.469000000000000250,-5.307986988944763951
0.470000000000000251,-5.286488145330493715
0.471000000000000252,-5.264778659330490385
0.472000000000000253,-5.242861214737513542
0.473000000000000254,-5.220738614931153876
0.474000000000000254,-5.198413778751868719
0.475000000000000255,-5.175889736338111113
0.476000000000000256,-5.153169624934975879
0.477000000000000257,-5.130256684682107604
0.478000000000000258,-5.107154254388345471
0.479000000000000259,-5.083865767300212113
0.480000000000000260,-5.060394746870955807
0.481000000000000261,-5.036744802536481380
0.482000000000000262,-5.012919625504238752
0.483000000000000262,-4.988922984560748120
0.484000000000000263,-4.964758721903068661
0.485000000000000264,-4.940430748999334654
0.486000000000000265,-4.915943042483054803
0.487000000000000266,-4.891299640085589928
0.488000000000000267,-4.866504636611031387
0.489000000000000268,-4.841562179957316303
0.490000000000000269,-4.816476467187181143
0.491000000000000270,-4.791251740652356261
0.492000000000000270,-4.765892284174016780
0.493000000000000271,-4.740402419282455426
0.494000000000000272,-4.714786501518539730
0.495000000000000273,-4.689048916799343658
0.496000000000000274,-4.663194077850244312
0.497000000000000275,-4.637226420705348851
0.498000000000000276,-4.611150401278131028
0.499000000000000277,-4.584970492003854758
0.500000000000000222,-4.558691178555169365
0.501000000000000334,-4.532316956632181260
0.502000000000000224,-4.505852328828060749
0.503000000000000336,-4.479301801571043740
0.504000000000000226,-4.452669882143757363
0.505000000000000338,-4.425961075780280751
0.506000000000000227,-4.399179882841663947
0.507000000000000339,-4.372330796070054149
0.508000000000000229,-4.345418297921846751
0.509000000000000341,-4.318446857979788334
0.510000000000000231,-4.291420930444301618
0.511000000000000343,-4.264344951703626485
0.512000000000000233,-4.237223337982841898
0.513000000000000345,-4.210060483071291770
0.514000000000000234,-4.182860756128228275
0.515000000000000346,-4.155628499565949596
0.516000000000000236,-4.128368027010172803
0.517000000000000348,-4.101083621336797158
0.518000000000000238,-4.073779532784556068
0.519000000000000350,-4.046459977142650821
0.520000000000000240,-4.019129134012679572
0.521000000000000352,-3.991791145143964936
0.522000000000000242,-3.964450112841328089
0.523000000000000353,-3.937110098444409179
0.524000000000000243,-3.909775120877486021
0.525000000000000355,-3.882449155268759000
0.526000000000000245,-3.855136131638067898
0.527000000000000357,-3.827839933651806525
0.528000000000000247,-3.800564397444067488
0.529000000000000359,-3.773313310502659501
0.530000000000000249,-3.746090410618965194
0.531000000000000361,-3.718899384900284044
0.532000000000000250,-3.691743868843566645
0.533000000000000362,-3.664627445469154310
0.534000000000000252,-3.637553644513344953
0.535000000000000364,-3.610525941678481843
0.536000000000000254,-3.583547757939322231
0.537000000000000366,-3.556622458904250550
0.538000000000000256,-3.529753354230299234
0.539000000000000368,-3.502943697090355357
0.540000000000000258,-3.476196683691581857
0.541000000000000369,-3.449515452843424868
0.542000000000000259,-3.422903085574225290
0.543000000000000371,-3.396362604794858520
0.544000000000000261,-3.369896975008310314
0.545000000000000373,-3.343509102063788596
0.546000000000000263,-3.317201832954186358
0.547000000000000375,-3.290977955655452369
0.548000000000000265,-3.264840199006909138
0.549000000000000377,-3.238791232630889194
0.550000000000000266,-3.212833666890823281
0.551000000000000378,-3.186970052886248794
0.552000000000000268,-3.161202882483740595
0.553000000000000380,-3.135534588382429710
0.554000000000000270,-3.109967544213037005
0.555000000000000382,-3.084504064669100210
0.556000000000000272,-3.059146405669468827
0.557000000000000384,-3.033896764550636505
0.558000000000000274,-3.008757280288127056
0.559000000000000385,-2.983730033745489507
0.560000000000000275,-2.958817047950121903
0.561000000000000387,-2.934020288394640463
0.562000000000000277,-2.909341663362863706
0.563000000000000389,-2.884783024279330199
0.564000000000000279,-2.860346166081385810
0.565000000000000391,-2.836032827612787077
0.566000000000000281,-2.811844692037917870
0.567000000000000393,-2.787783387275595270
0.568000000000000282,-2.763850486451647992
0.569000000000000394,-2.740047508369171769
0.570000000000000284,-2.716375917995785372
0.571000000000000396,-2.692837126966822758
0.572000000000000286,-2.669432494103778808
0.573000000000000398,-2.646163325946988110
0.574000000000000288,-2.623030877301919084
0.575000000000000400,-2.600036351798137524
0.576000000000000290,-2.577180902460264544
0.577000000000000401,-2.554465632290094490
0.578000000000000291,-2.531891594859219996
0.579000000000000403,-2.509459794911363062
0.580000000000000293,-2.487171188973816172
0.581000000000000405,-2.465026685977173226
0.582000000000000295,-2.443027147882882666
0.583000000000000407,-2.421173390317775009
0.584000000000000297,-2.399466183215108295
0.585000000000000409,-2.377906251461422205
0.586000000000000298,-2.356494275548699058
0.587000000000000410,-2.335230892231158872
0.588000000000000300,-2.314116695186266170
0.589000000000000412,-2.293152235679264628
0.590000000000000302,-2.272338023230873638
0.591000000000000414,-2.251674526287537503
0.592000000000000304,-2.231162172893809803
0.593000000000000416,-2.210801351366319611
0.594000000000000306,-2.190592410969010029
0.595000000000000417,-2.170535662589053505
0.596000000000000307,-2.150631379413136646
0.597000000000000419,-2.130879797603654868
0.598000000000000309,-2.111281116974461192
0.599000000000000421,-2.091835501665728625
0.600000000000000311,-2.072543080817671246
0.601000000000000423,-2.053403949242639470
0.602000000000000313,-2.034418168095409207
0.603000000000000425,-2.015585765541155094
0.604000000000000314,-1.996906737421045630
0.605000000000000426,-1.978381047914876900
0.606000000000000316,-1.960008630200738677
0.607000000000000428,-1.941789387111208409
0.608000000000000318,-1.923723191786021802
0.609000000000000430,-1.905809888320767698
0.610000000000000320,-1.888049292411578595
0.611000000000000432,-1.870441191995390939
0.612000000000000322,-1.852985347885745426
0.613000000000000433,-1.835681494403772707
0.614000000000000323,-1.818529340004283457
0.615000000000000435,-1.801528567896705457
0.616000000000000325,-1.784678836660745116
0.617000000000000437,-1.767979780856561600
0.618000000000000327,-1.751431011629369205
0.619000000000000439,-1.735032117308223931
0.620000000000000329,-1.718782663998962956
0.621000000000000441,-1.702682196171097617
0.622000000000000330,-1.686730237238567964
0.623000000000000442,-1.670926290134234549
0.624000000000000332,-1.655269837878027506
0.625000000000000444,-1.639760344138619486
0.626000000000000334,-1.624397253788585571
0.627000000000000446,-1.609179993452895419
0.628000000000000336,-1.594107972050748501
0.629000000000000448,-1.579180581330602573
0.630000000000000338,-1.564397196398412904
0.631000000000000449,-1.549757176238938827
0.632000000000000339,-1.535259864230157811
0.633000000000000451,-1.520904588650666911
0.634000000000000341,-1.506690663180095591
0.635000000000000453,-1.492617387392446648
0.636000000000000343,-1.478684047242377009
0.637000000000000455,-1.464889915544359766
0.638000000000000345,-1.451234252444771222
0.639000000000000457,-1.437716305886779455
0.640000000000000346,-1.424335312068186088
0.641000000000000458,-1.411090495892031615
0.642000000000000348,-1.397981071410154597
0.643000000000000460,-1.385006242259531062
0.644000000000000350,-1.372165202091561342
0.645000000000000462,-1.359457134994177085
0.646000000000000352,-1.346881215906911233
0.647000000000000464,-1.334436611028816611
0.648000000000000353,-1.322122478219424524
0.649000000000000465,-1.309937967392555525
0.650000000000000355,-1.297882220903244122
0.651000000000000467,-1.285954373927587380
0.652000000000000357,-1.274153554835752544
0.653000000000000469,-1.262478885557994257
0.654000000000000359,-1.250929481943894972
0.655000000000000471,-1.239504454114712662
0.656000000000000361,-1.228202906809021444
0.657000000000000473,-1.217023939721556758
0.658000000000000362,-1.205966647835443384
0.659000000000000474,-1.195030121747738372
0.660000000000000364,-1.184213447988450962
0.661000000000000476,-1.173515709332979107
0.662000000000000366,-1.162935985108125347
0.663000000000000478,-1.152473351491669851
