# ZnO10m10NBDry_ARGSCA-JS
# h[nm],U(h)[kJ/mol]
0.149999999999999994,153.168905642121956134
0.150999999999999995,152.532279527293184174
0.151999999999999996,150.559759223109722370
0.152999999999999997,148.346951814435584538
0.153999999999999998,146.253379156536453820
0.154999999999999999,144.320408339662606068
0.156000000000000000,142.483234869069747219
0.157000000000000001,140.667211812390064551
0.158000000000000002,138.822829892069677271
0.159000000000000002,136.930945337303228371
0.160000000000000003,134.995817603397597395
0.161000000000000004,133.035072276672906355
0.162000000000000005,131.070798129712414948
0.163000000000000006,129.123277678287934123
0.164000000000000007,127.207467557795183666
0.165000000000000008,125.331734213536122979
0.166000000000000009,123.498165792699495569
0.167000000000000010,121.703812502462341172
0.168000000000000010,119.942331898778746790
0.169000000000000011,118.205664193181476662
0.170000000000000012,116.485500872482703016
0.171000000000000013,114.774422745039800020
0.172000000000000014,113.066667156043735076
0.173000000000000015,111.358540539761179389
0.174000000000000016,109.648526244168849075
0.175000000000000017,107.937153928710742434
0.176000000000000018,106.226700782504096310
0.177000000000000018,104.520790593944155944
0.178000000000000019,102.823947703558545186
0.179000000000000020,101.141151615993905466
0.180000000000000021,99.477426309487938738
0.181000000000000022,97.837487222014743793
0.182000000000000023,96.225459194589234357
0.183000000000000024,94.644670642979065178
0.184000000000000025,93.097522990753390104
0.185000000000000026,91.585429847821515636
0.186000000000000026,90.108817380300251898
0.187000000000000027,88.667175560944215817
0.188000000000000028,87.259149269846460584
0.189000000000000029,85.882658294760716444
0.190000000000000030,84.535035941911672808
0.191000000000000031,83.213177022447695208
0.192000000000000032,81.913687268826905097
0.193000000000000033,80.633027632629435288
0.194000000000000034,79.367648322873989741
0.195000000000000034,78.114108790154674011
0.196000000000000035,76.869181097346398701
0.197000000000000036,75.629935211257560468
0.198000000000000037,74.393805685252146986
0.199000000000000038,73.158639975805925815
0.200000000000000039,71.922729250024900693
0.201000000000000040,70.684823006192161188
0.202000000000000041,69.444129159237263593
0.203000000000000042,68.200301453759252013
0.204000000000000042,66.953416175989374892
0.205000000000000043,65.703940159989059566
0.206000000000000044,64.452692038876719494
0.207000000000000045,63.200798594225410909
0.208000000000000046,61.949647919745792990
0.209000000000000047,60.700840951088615327
0.210000000000000048,59.456142732494228653
0.211000000000000049,58.217434601829062046
0.212000000000000050,56.986668285435186476
0.213000000000000050,55.765822708872050839
0.214000000000000051,54.556864153402422346
0.215000000000000052,53.361710224169975447
0.216000000000000053,52.182197946619034212
0.217000000000000054,51.020056174143981309
0.218000000000000055,49.876882372861210513
0.219000000000000056,48.754123748812581596
0.220000000000000057,47.653062598438943098
0.221000000000000058,46.574805694063186934
0.222000000000000058,45.520277461389916596
0.223000000000000059,44.490216664502312938
0.224000000000000060,43.485176284236572997
0.225000000000000061,42.505526256817887543
0.226000000000000062,41.551458729917897017
0.227000000000000063,40.622995491537537305
0.228000000000000064,39.719997232088303463
0.229000000000000065,38.842174310556515593
0.230000000000000066,37.989098710613838250
0.231000000000000066,37.160216890981935478
0.232000000000000067,36.354863255387691368
0.233000000000000068,35.572273990261621179
0.234000000000000069,34.811601042249854743
0.235000000000000070,34.071926032031328191
0.236000000000000071,33.352273925353472350
0.237000000000000072,32.651626306199574401
0.238000000000000073,31.968934120237502583
0.239000000000000073,31.303129778899041469
0.240000000000000074,30.653138535389967245
0.241000000000000075,30.017889063483117695
0.242000000000000076,29.396323187990653025
0.243000000000000077,28.787404732287228626
0.244000000000000078,28.190127463135222996
0.245000000000000079,27.603522126349737675
0.246000000000000080,27.026662578564696560
0.247000000000000081,26.458671030568602589
0.248000000000000081,25.898722426436826538
0.249000000000000082,25.346047990072680278
0.250000000000000111,24.799937976867852285
0.251000000000000112,24.259743673097272421
0.252000000000000113,23.724878689468543058
0.253000000000000114,23.194819598051914511
0.254000000000000115,22.669105963715775687
0.255000000000000115,22.147339822285839972
0.256000000000000116,21.629184658020893295
0.257000000000000117,21.114363932746773145
0.258000000000000118,20.602659218195938706
0.259000000000000119,20.093907981841489629
0.260000000000000120,19.588001074866369322
0.261000000000000121,19.084879968940509087
0.262000000000000122,18.584533786250464260
0.263000000000000123,18.086996164799344911
0.264000000000000123,17.592341998416689108
0.265000000000000124,17.100684088239216152
0.266000000000000125,16.612169739681604597
0.267000000000000126,16.126977336150947195
0.268000000000000127,15.645312917998456470
0.269000000000000128,15.167406792477470034
0.270000000000000129,14.693510197808416606
0.271000000000000130,14.223892041860457525
0.272000000000000131,13.758835733462287720
0.273000000000000131,13.298636121962578827
0.274000000000000132,12.843596558386050077
0.275000000000000133,12.394026089379929445
0.276000000000000134,11.950236793124306089
0.277000000000000135,11.512541264492170967
0.278000000000000136,11.081250254990489879
0.279000000000000137,10.656670471395219835
0.280000000000000138,10.239102535508219916
0.281000000000000139,9.828839106109175106
0.282000000000000139,9.426163162950402352
0.283000000000000140,9.031346451539629783
0.284000000000000141,8.644648086473281978
0.285000000000000142,8.266313310213700305
0.286000000000000143,7.896572403443097521
0.287000000000000144,7.535639742469529168
0.288000000000000145,7.183712998597933108
0.289000000000000146,6.840972473909235241
0.290000000000000147,6.507580567502552427
0.291000000000000147,6.183681365947529152
0.292000000000000148,5.869400351456100395
0.293000000000000149,5.564844221112847045
0.294000000000000150,5.270100810391711299
0.295000000000000151,4.985239114131288396
0.296000000000000152,4.710309398133772696
0.297000000000000153,4.445343394590449471
0.298000000000000154,4.190354574612811689
0.299000000000000155,3.945338491260167224
0.300000000000000155,3.710273186595861805
0.301000000000000156,3.485119656472615901
0.302000000000000157,3.269822366937129576
0.303000000000000158,3.064309816353999683
0.304000000000000159,2.868495137573185083
0.305000000000000160,2.682276734703160859
0.306000000000000161,2.505538949298578011
0.307000000000000162,2.338152751025957876
0.308000000000000163,2.179976448130287903
0.309000000000000163,2.030856413287565942
0.310000000000000164,1.890627820691531014
0.311000000000000165,1.759115390485495478
0.312000000000000166,1.636134136910349257
0.313000000000000167,1.521490116796770042
0.314000000000000168,1.414981175281876169
0.315000000000000169,1.316397685876987911
0.316000000000000170,1.225523282253158097
0.317000000000000171,1.142135579344102814
0.318000000000000171,1.066006881590881417
0.319000000000000172,0.996904876369336002
0.320000000000000173,0.934593310849164416
0.321000000000000174,0.878832650732490506
0.322000000000000175,0.829380719509114628
0.323000000000000176,0.785993317046135176
0.324000000000000177,0.748424816500293355
0.325000000000000178,0.716428738702899026
0.326000000000000179,0.689758303318875554
0.327000000000000179,0.668166956224416686
0.328000000000000180,0.651408872681254691
0.329000000000000181,0.639239436009602757
0.330000000000000182,0.631415691578332883
0.331000000000000183,0.627696776037335646
0.332000000000000184,0.627844321816508733
0.333000000000000185,0.631622837006460935
0.334000000000000186,0.638800060819088578
0.335000000000000187,0.649147294902169825
0.336000000000000187,0.662439710850438623
0.337000000000000188,0.678456634317813667
0.338000000000000189,0.696981806190321462
0.339000000000000190,0.717803621328847119
0.340000000000000191,0.740715345434016070
0.341000000000000192,0.765515310623320788
0.342000000000000193,0.792007090343365361
0.343000000000000194,0.819999654267541067
0.344000000000000195,0.849307503853133361
0.345000000000000195,0.879750789249962417
0.346000000000000196,0.911155408268231382
0.347000000000000197,0.943353088123867090
0.348000000000000198,0.976181450687481744
0.349000000000000199,1.009484061967623969
0.350000000000000200,1.043110466560286387
0.351000000000000201,1.076916207795724834
0.352000000000000202,1.110762834309793501
0.353000000000000203,1.144517893761135996
0.354000000000000203,1.178054914407703269
0.355000000000000204,1.211253375246267527
0.356000000000000205,1.243998665407076043
0.357000000000000206,1.276182033482942124
0.358000000000000207,1.307700527457932527
0.359000000000000208,1.338456925885339155
0.360000000000000209,1.368359660948262668
0.361000000000000210,1.397322734019101231
0.362000000000000210,1.425265624316051971
0.363000000000000211,1.452113191236460654
0.364000000000000212,1.477795570927621593
0.365000000000000213,1.502248067636376083
0.366000000000000214,1.525411040359098358
0.367000000000000215,1.547229785293853910
0.368000000000000216,1.567654414576380217
0.369000000000000217,1.586639731761761540
0.370000000000000218,1.604145104493432061
0.371000000000000218,1.620134334781489382
0.372000000000000219,1.634575527292398744
0.373000000000000220,1.647440956032772075
0.374000000000000221,1.658706929790550788
0.375000000000000222,1.668353656678232211
0.376000000000000223,1.676365108103648582
0.377000000000000224,1.682728882476211663
0.378000000000000225,1.687436068938128031
0.379000000000000226,1.690481111393069558
0.380000000000000226,1.691861673087511786
0.381000000000000227,1.691578501983714844
0.382000000000000228,1.689635297147069171
0.383000000000000229,1.686038576355101570
0.384000000000000230,1.680797545120445324
0.385000000000000231,1.673923967305366300
0.386000000000000232,1.665432037491679562
0.387000000000000233,1.655338255256120661
0.388000000000000234,1.643661301488518189
0.389000000000000234,1.630421916877383470
0.390000000000000235,1.615642782675834610
0.391000000000000236,1.599348403849072398
0.392000000000000237,1.581564994693937853
0.393000000000000238,1.562320367010392230
0.394000000000000239,1.541643820895011174
0.395000000000000240,1.519566038216952020
0.396000000000000241,1.496118978827979840
0.397000000000000242,1.471335779549475475
0.398000000000000242,1.445250655971352938
0.399000000000000243,1.417898807090152591
0.400000000000000244,1.389316322806323001
0.401000000000000245,1.359540094293844037
0.402000000000000246,1.328607727249233816
0.403000000000000247,1.296557458020496156
0.404000000000000248,1.263428072611462838
0.405000000000000249,1.229258828551305971
0.406000000000000250,1.194089379614427404
0.407000000000000250,1.157959703371078231
0.408000000000000251,1.120910031545114149
0.409000000000000252,1.082980783151139770
0.410000000000000253,1.044212500379880115
0.411000000000000254,1.004645787197164353
0.412000000000000255,0.964321250618994319
0.413000000000000256,0.923279444622243650
0.414000000000000257,0.881560816648246259
0.415000000000000258,0.839205656653984056
0.416000000000000258,0.796254048663894709
0.417000000000000259,0.752745824773113692
0.418000000000000260,0.708720521551751137
0.419000000000000261,0.664217338798064882
0.420000000000000262,0.619275100587468819
0.421000000000000263,0.573932218562971719
0.422000000000000264,0.528226657412174228
0.423000000000000265,0.482195902474818694
0.424000000000000266,0.435876929424609649
0.425000000000000266,0.389306175968603507
0.426000000000000267,0.342519515507023864
0.427000000000000268,0.295552232696329464
0.428000000000000269,0.248439000858360876
0.429000000000000270,0.201213861178320741
0.430000000000000271,0.153910203634667647
0.431000000000000272,0.106560749604138930
0.432000000000000273,0.059197536085630276
0.433000000000000274,0.011851901486946837
0.434000000000000274,-0.035445527080988096
0.435000000000000275,-0.082664845057207698
0.436000000000000276,-0.129776880285314533
0.437000000000000277,-0.176753201523074471
0.438000000000000278,-0.223566125659674764
0.439000000000000279,-0.270188723692581512
0.440000000000000280,-0.316594825515054468
0.441000000000000281,-0.362759023564420080
0.442000000000000282,-0.408656675380479839
0.443000000000000282,-0.454263905122147871
0.444000000000000283,-0.499557604089847729
0.445000000000000284,-0.544515430299777226
0.446000000000000285,-0.589115807155442761
0.447000000000000286,-0.633337921260688441
0.448000000000000287,-0.677161719417355812
0.449000000000000288,-0.720567904849775065
0.450000000000000289,-0.763537932697084032
0.451000000000000290,-0.806054004813356761
0.452000000000000290,-0.848099063914518503
0.453000000000000291,-0.889656787109714187
0.454000000000000292,-0.930711578854004129
0.455000000000000293,-0.971248563357981154
0.456000000000000294,-1.011253576488870376
0.457000000000000295,-1.050713157196699665
0.458000000000000296,-1.089614538497915897
0.459000000000000297,-1.127945638047917365
0.460000000000000298,-1.165695048332857642
0.461000000000000298,-1.202852026510022432
0.462000000000000299,-1.239406483925178382
0.463000000000000300,-1.275348975334125390
0.464000000000000301,-1.310670687854910810
0.465000000000000302,-1.345363429675926259
0.466000000000000303,-1.379419618544432069
0.467000000000000304,-1.412832270058917539
0.468000000000000305,-1.445594985787826303
0.469000000000000306,-1.477701941236346794
0.470000000000000306,-1.509147873682020968
0.471000000000000307,-1.539928069899012986
0.472000000000000308,-1.570038353790144114
0.473000000000000309,-1.599475073944914394
0.474000000000000310,-1.628235091140827651
0.475000000000000311,-1.656315765804791784
0.476000000000000312,-1.683714945450256462
0.477000000000000313,-1.710430952105374214
0.478000000000000314,-1.736462569746363815
0.479000000000000314,-1.761809031749891563
0.480000000000000315,-1.786470008377285312
0.481000000000000316,-1.810445594303006001
0.482000000000000317,-1.833736296198869908
0.483000000000000318,-1.856343020385126108
0.484000000000000319,-1.878267060558729940
0.485000000000000320,-1.899510085608576260
0.486000000000000321,-1.920074127526955055
0.487000000000000322,-1.939961569425846077
0.488000000000000322,-1.959175133666122504
0.489000000000000323,-1.977717870107339238
0.490000000000000324,-1.995593144485121373
0.491000000000000325,-2.012804626922751972
0.492000000000000326,-2.029356280583080707
0.493000000000000327,-2.045252350466464364
0.494000000000000328,-2.060497352359896173
0.495000000000000329,-2.075096061942214298
0.496000000000000330,-2.089053504049693366
0.497000000000000330,-2.102374942106199462
0.498000000000000331,-2.115065867721311221
0.499000000000000332,-2.127131990459930844
0.500000000000000333,-2.138579227786192583
0.501000000000000334,-2.149413695184245299
0.502000000000000335,-2.159641696458327154
0.503000000000000336,-2.169269714213983846
0.504000000000000337,-2.178304400522238726
0.505000000000000338,-2.186752567768039501
0.506000000000000338,-2.194621179684218770
0.507000000000000339,-2.201917342571823255
0.508000000000000340,-2.208648296707452996
0.509000000000000341,-2.214821407938158071
0.510000000000000342,-2.220444159463933254
0.511000000000000343,-2.225524143807994015
0.512000000000000344,-2.230069054974504805
0.513000000000000345,-2.234086680793461177
0.514000000000000346,-2.237584895452211509
0.515000000000000346,-2.240571652212760778
0.516000000000000347,-2.243054976314115656
0.517000000000000348,-2.245042958058609539
0.518000000000000349,-2.246543746080987169
0.519000000000000350,-2.247565540799037365
0.520000000000000351,-2.248116588044253739
0.521000000000000352,-2.248205172871128976
0.522000000000000353,-2.247839613543253900
0.523000000000000353,-2.247028255694625720
0.524000000000000354,-2.245779466664272750
0.525000000000000355,-2.244101630002243830
0.526000000000000356,-2.242003140144951168
0.527000000000000357,-2.239492397257858425
0.528000000000000358,-2.236577802243242097
0.529000000000000359,-2.233267751910923415
0.530000000000000360,-2.229570634309578470
0.531000000000000361,-2.225494824216418532
0.532000000000000361,-2.221048678782773678
0.533000000000000362,-2.216240533333203810
0.534000000000000363,-2.211078697315657760
0.535000000000000364,-2.205571450400235278
0.536000000000000365,-2.199727038723956252
0.537000000000000366,-2.193553671279091066
0.538000000000000367,-2.187059516442343643
0.539000000000000368,-2.180252698642516584
0.540000000000000369,-2.173141295163796727
0.541000000000000369,-2.165733333082316747
0.542000000000000370,-2.158036786333135115
0.543000000000000371,-2.150059572905210992
0.544000000000000372,-2.141809552161613617
0.545000000000000373,-2.133294522282426886
0.546000000000000374,-2.124522217827673920
0.547000000000000375,-2.115500307417676140
0.548000000000000376,-2.106236391528259144
0.549000000000000377,-2.096738000398162605
0.550000000000000377,-2.087012592046119330
0.551000000000000378,-2.077067550394987361
0.552000000000000379,-2.066910183500452636
0.553000000000000380,-2.056547721881691437
0.554000000000000381,-2.045987316951509705
0.555000000000000382,-2.035236039543538045
0.556000000000000383,-2.024300878533826342
0.557000000000000384,-2.013188739554643725
0.558000000000000385,-2.001906443797808688
0.559000000000000385,-1.990460726905355360
0.560000000000000386,-1.978858237945049670
0.561000000000000387,-1.967105538468454595
0.562000000000000388,-1.955209101649217018
0.563000000000000389,-1.943175311499345526
0.564000000000000390,-1.931010462161143693
0.565000000000000391,-1.918720757272644351
0.566000000000000392,-1.906312309404337713
0.567000000000000393,-1.893791139565045301
0.568000000000000393,-1.881163176774788282
0.569000000000000394,-1.868434257702581203
0.570000000000000395,-1.855610126367137180
0.571000000000000396,-1.842696433898342701
0.572000000000000397,-1.829698738357683485
0.573000000000000398,-1.816622504615497347
0.574000000000000399,-1.803473104283279227
0.575000000000000400,-1.790255815699034914
0.576000000000000401,-1.776975823963911294
0.577000000000000401,-1.763638221028314801
0.578000000000000402,-1.750248005825605802
0.579000000000000403,-1.736810084451759995
0.580000000000000404,-1.723329270389256651
0.581000000000000405,-1.709810284773445321
0.582000000000000406,-1.696257756699870445
0.583000000000000407,-1.682676223570809482
0.584000000000000408,-1.669070131479604147
0.585000000000000409,-1.655443835631115856
0.586000000000000409,-1.641801600796873206
0.587000000000000410,-1.628147601803454192
0.588000000000000411,-1.614485924052575516
0.589000000000000412,-1.600820564071637975
0.590000000000000413,-1.587155430093184050
0.591000000000000414,-1.573494342662060230
0.592000000000000415,-1.559841035268953346
0.593000000000000416,-1.546199155008957549
0.594000000000000417,-1.532572263263997536
0.595000000000000417,-1.518963836407951629
0.596000000000000418,-1.505377266533086011
0.597000000000000419,-1.491815862196941289
0.598000000000000420,-1.478282849188278014
0.599000000000000421,-1.464781371311201674
0.600000000000000422,-1.451314491186262323
0.601000000000000423,-1.437885191067581392
0.602000000000000424,-1.424496373674964067
0.603000000000000425,-1.411150863040057990
0.604000000000000425,-1.397851405365541311
0.605000000000000426,-1.384600669896492331
0.606000000000000427,-1.371401249803051670
0.607000000000000428,-1.358255663073363761
0.608000000000000429,-1.345166353416236138
0.609000000000000430,-1.332135691172346315
0.610000000000000431,-1.319165974233551086
0.611000000000000432,-1.306259428969267722
0.612000000000000433,-1.293418211159308218
0.613000000000000433,-1.280644406932451629
0.614000000000000434,-1.267940033710012404
0.615000000000000435,-1.255307041153721936
