# ZnO10m10NBDry_SERSCA-JS
# h[nm],U(h)[kJ/mol]
0.149999999999999994,73.069837797075507524
0.150999999999999995,72.524104843828297362
0.151999999999999996,71.303528384377685256
0.152999999999999997,69.903240005884839547
0.153999999999999998,68.522326738634873777
0.154999999999999999,67.215113678204218672
0.156000000000000000,65.974627780215200801
0.157000000000000001,64.775571011984041547
0.158000000000000002,63.594023229463076063
0.159000000000000002,62.414478788417667943
0.160000000000000003,61.230553660372017077
0.161000000000000004,60.042997471997843206
0.162000000000000005,58.856972721702142337
0.163000000000000006,57.679559792616416303
0.164000000000000007,56.517868954385832581
0.165000000000000008,55.377828773491692971
0.166000000000000009,54.263569292163893465
0.167000000000000010,53.177260540693872315
0.168000000000000010,52.119259982685356647
0.169000000000000011,51.088440402454430966
0.170000000000000012,50.082597262413486305
0.171000000000000013,49.098863217769810774
0.172000000000000014,48.134083021262838997
0.173000000000000015,47.185122747143296351
0.174000000000000016,46.249102807264726778
0.175000000000000017,45.323555065176002188
0.176000000000000018,44.406511247298411149
0.177000000000000018,43.496533659919087711
0.178000000000000019,42.592700756431661091
0.179000000000000020,41.694560060835087256
0.180000000000000021,40.802059909232156087
0.181000000000000022,39.915469859192775459
0.182000000000000023,39.035297759130649808
0.183000000000000024,38.162209590129215542
0.184000000000000025,37.296956436376476063
0.185000000000000026,36.440311392763007348
0.186000000000000026,35.593017920159603307
0.187000000000000027,34.755750120125988190
0.188000000000000028,33.929084610277392642
0.189000000000000029,33.113483115537846402
0.190000000000000030,32.309284518590786206
0.191000000000000031,31.516704902090367568
0.192000000000000032,30.735844033139791520
0.193000000000000033,29.966696756970243598
0.194000000000000034,29.209167854815916598
0.195000000000000034,28.463089057655373892
0.196000000000000035,27.728237073711710536
0.197000000000000036,27.004351668082705373
0.198000000000000037,26.291153015778206736
0.199000000000000038,25.588357725999152592
0.200000000000000039,24.895693099527200332
0.201000000000000040,24.212909328599490522
0.202000000000000041,23.539789477358297631
0.203000000000000042,22.876157190000665054
0.204000000000000042,22.221882163251592601
0.205000000000000043,21.576883490649212405
0.206000000000000044,20.941131039772724165
0.207000000000000045,20.314645061708599627
0.208000000000000046,19.697494256644862531
0.209000000000000047,19.089792532474813669
0.210000000000000048,18.491694696607517301
0.211000000000000049,17.903391316657483401
0.212000000000000050,17.325102975007403927
0.213000000000000050,16.757074126935247449
0.214000000000000051,16.199566753410095998
0.215000000000000052,15.652853978955572956
0.216000000000000053,15.117213803136476002
0.217000000000000054,14.592923072056217748
0.218000000000000055,14.080251794417616651
0.219000000000000056,13.579457885710340292
0.220000000000000057,13.090782404332207634
0.221000000000000058,12.614445325209860727
0.222000000000000058,12.150641879935450973
0.223000000000000059,11.699539477689912204
0.224000000000000060,11.261275208314463825
0.225000000000000061,10.835953917808982538
0.226000000000000062,10.423646837222158013
0.227000000000000063,10.024390738266685474
0.228000000000000064,9.638187582934145681
0.229000000000000065,9.265004629770466238
0.230000000000000066,8.904774956171412015
0.231000000000000066,8.557398353925854906
0.232000000000000067,8.222742554134274684
0.233000000000000068,7.900644737422477526
0.234000000000000069,7.590913285924568932
0.235000000000000070,7.293329734699979028
0.236000000000000071,7.007650881960836742
0.237000000000000072,6.733611019610966864
0.238000000000000073,6.470924248040441640
0.239000000000000073,6.219286841793001841
0.240000000000000074,5.978379635549670112
0.241000000000000075,5.747870402786018573
0.242000000000000076,5.527416202402482881
0.243000000000000077,5.316665671549043459
0.244000000000000078,5.115261245726030026
0.245000000000000079,4.922841290008184600
0.246000000000000080,4.739042127882435729
0.247000000000000081,4.563499956690085568
0.248000000000000081,4.395852641006195327
0.249000000000000082,4.235741377461997637
0.250000000000000111,4.082812226513214071
0.251000000000000112,3.936717508476033522
0.252000000000000113,3.797117062791952158
0.253000000000000114,3.663679370947087399
0.254000000000000115,3.536082544763210045
0.255000000000000115,3.414015182905278500
0.256000000000000116,3.297177099419381641
0.257000000000000117,3.185279928935540905
0.258000000000000118,3.078047613850765529
0.259000000000000119,2.975216779358581753
0.260000000000000120,2.876537002622382211
0.261000000000000121,2.781770982711655904
0.262000000000000122,2.690694618141921346
0.263000000000000123,2.603096998991682565
0.264000000000000123,2.518780320621711422
0.265000000000000124,2.437559726003553529
0.266000000000000125,2.359263083583192255
0.267000000000000126,2.283730707471539390
0.268000000000000127,2.210815026572737096
0.269000000000000128,2.140380209042256787
0.270000000000000129,2.072301748215541473
0.271000000000000130,2.006466015870903341
0.272000000000000131,1.942769788393284625
0.273000000000000131,1.881119751093284886
0.274000000000000132,1.821431985613130689
0.275000000000000133,1.763631445022246780
0.276000000000000134,1.707651420873452341
0.277000000000000135,1.653433006159608087
0.278000000000000136,1.600924557782737567
0.279000000000000137,1.550081161825565657
0.280000000000000138,1.500864104601214333
0.281000000000000139,1.453240352152062487
0.282000000000000139,1.407182040575090998
0.283000000000000140,1.362665979269407801
0.284000000000000141,1.319673168933163776
0.285000000000000142,1.278188335882152860
0.286000000000000143,1.238199484021748287
0.287000000000000144,1.199697465577790556
0.288000000000000145,1.162675571480211500
0.289000000000000146,1.127129142096629399
0.290000000000000147,1.093055198830372277
0.291000000000000147,1.060452096929541455
0.292000000000000148,1.029319199699302745
0.293000000000000149,0.999656574169161649
0.294000000000000150,0.971464708139447630
0.295000000000000151,0.944744248416289123
0.296000000000000152,0.919495759941786117
0.297000000000000153,0.895719505434613650
0.298000000000000154,0.873415245076195057
0.299000000000000155,0.852582055707448605
0.300000000000000155,0.833218168940912607
0.301000000000000156,0.815320827541917814
0.302000000000000157,0.798886159389789463
0.303000000000000158,0.783909068295363443
0.304000000000000159,0.770383140923582177
0.305000000000000160,0.758300569049430218
0.306000000000000161,0.747652086360801382
0.307000000000000162,0.738426919013119964
0.308000000000000163,0.730612749136932749
0.309000000000000163,0.724195690500496037
0.310000000000000164,0.719160275534623361
0.311000000000000165,0.715489452935935022
0.312000000000000166,0.713164595076754670
0.313000000000000167,0.712165514465118776
0.314000000000000168,0.712470488515939970
0.315000000000000169,0.714056291914298091
0.316000000000000170,0.716898235873472234
0.317000000000000171,0.720970213613716382
0.318000000000000171,0.726244751412389533
0.319000000000000172,0.732693064601615540
0.320000000000000173,0.740285117916160251
0.321000000000000174,0.748989689621258892
0.322000000000000175,0.758774438877481749
0.323000000000000176,0.769605975827397537
0.324000000000000177,0.781449933916472994
0.325000000000000178,0.794271043988250214
0.326000000000000179,0.808033209721100709
0.327000000000000179,0.822699584000984196
0.328000000000000180,0.838232645851216041
0.329000000000000181,0.854594277566054883
0.330000000000000182,0.871745841720755088
0.331000000000000183,0.889648257755026095
0.332000000000000184,0.908262077851228034
0.333000000000000185,0.927547561851660540
0.334000000000000186,0.947464750981767523
0.335000000000000187,0.967973540167741064
0.336000000000000187,0.989033748757562892
0.337000000000000188,1.010605189474524490
0.338000000000000189,1.032647735451020399
0.339000000000000190,1.055121385208545703
0.340000000000000191,1.077986325466974815
0.341000000000000192,1.101202991682275201
0.342000000000000193,1.124732126227386164
0.343000000000000194,1.148534834145204631
0.344000000000000195,1.172572636416512326
0.345000000000000195,1.196807520698137006
0.346000000000000196,1.221201989498856388
0.347000000000000197,1.245719105771523783
0.348000000000000198,1.270322535910292316
0.349000000000000199,1.294976590151493134
0.350000000000000200,1.319646260385457737
0.351000000000000201,1.344297255394914403
0.352000000000000202,1.368896033542962964
0.353000000000000203,1.393409832940509574
0.354000000000000203,1.417806699129344761
0.355000000000000204,1.442055510322586720
0.356000000000000205,1.466126000249350358
0.357000000000000206,1.489988778654993684
0.358000000000000207,1.513615349512389185
0.359000000000000208,1.536978127003125305
0.360000000000000209,1.560050449330672162
0.361000000000000210,1.582806590430232418
0.362000000000000210,1.605221769642182661
0.363000000000000211,1.627272159417940456
0.364000000000000212,1.648934891128558844
0.365000000000000213,1.670188059047588380
0.366000000000000214,1.691010722580557957
0.367000000000000215,1.711382906814064908
0.368000000000000216,1.731285601457715373
0.369000000000000217,1.750700758252297096
0.370000000000000218,1.769611286917347925
0.371000000000000218,1.788001049710947754
0.372000000000000219,1.805854854673973886
0.373000000000000220,1.823158447630345735
0.374000000000000221,1.839898503013843278
0.375000000000000222,1.856062613591150434
0.376000000000000223,1.871639279149417856
0.377000000000000224,1.886617894215574465
0.378000000000000225,1.900988734873026775
0.379000000000000226,1.914742944740063679
0.380000000000000226,1.927872520172595472
0.381000000000000227,1.940370294752339575
0.382000000000000228,1.952229923119797039
0.383000000000000229,1.963445864209649727
0.384000000000000230,1.974013363944503441
0.385000000000000231,1.983928437440944048
0.386000000000000232,1.993187850780212766
0.387000000000000233,2.001789102393832565
0.388000000000000234,2.009730404112750612
0.389000000000000234,2.017010661926591730
0.390000000000000235,2.023629456497920032
0.391000000000000236,2.029587023474339169
0.392000000000000237,2.034884233639650652
0.393000000000000238,2.039522572943262002
0.394000000000000239,2.043504122445359172
0.395000000000000240,2.046831538213524038
0.396000000000000241,2.049508031204729797
0.397000000000000242,2.051537347164900549
0.398000000000000242,2.052923746576559516
0.399000000000000243,2.053671984683393958
0.400000000000000244,2.053787291619001643
0.401000000000000245,2.053275352665343334
0.402000000000000246,2.052142288665110836
0.403000000000000247,2.050394636610482824
0.404000000000000248,2.048039330429418658
0.405000000000000249,2.045083681989141589
0.406000000000000250,2.041535362335147319
0.407000000000000250,2.037402383182630672
0.408000000000000251,2.032693078676059528
0.409000000000000252,2.027416087431248126
0.410000000000000253,2.021580334873169793
0.411000000000000254,2.015195015881528828
0.412000000000000255,2.008269577755020574
0.413000000000000256,2.000813703504101149
0.414000000000000257,1.992837295481110882
0.415000000000000258,1.984350459355522123
0.416000000000000258,1.975363488441231441
0.417000000000000259,1.965886848381805496
0.418000000000000260,1.955931162198816464
0.419000000000000261,1.945507195707508075
0.420000000000000262,1.934625843303284354
0.421000000000000263,1.923298114121721580
0.422000000000000264,1.911535118574178238
0.423000000000000265,1.899348055260288159
0.424000000000000266,1.886748198258053844
0.425000000000000266,1.873746884791657408
0.426000000000000267,1.860355503276495570
0.427000000000000268,1.846585481740418810
0.428000000000000269,1.832448276619681682
0.429000000000000270,1.817955361927586555
0.430000000000000271,1.803118218793387184
0.431000000000000272,1.787948325368596159
0.432000000000000273,1.772457147097453056
0.433000000000000274,1.756656127347941965
0.434000000000000274,1.740556678399393764
0.435000000000000275,1.724170172782471422
0.436000000000000276,1.707507934966939755
0.437000000000000277,1.690581233392436600
0.438000000000000278,1.673401272837219622
0.439000000000000279,1.655979187119581253
0.440000000000000280,1.638326032126488752
0.441000000000000281,1.620452779163825241
0.442000000000000282,1.602370308622344197
0.443000000000000282,1.584089403953505393
0.444000000000000283,1.565620745948989923
0.445000000000000284,1.546974907317788972
0.446000000000000285,1.528162347554563372
0.447000000000000286,1.509193408092872835
0.448000000000000287,1.490078307736902641
0.449000000000000288,1.470827138365153219
0.450000000000000289,1.451449860899596045
0.451000000000000290,1.431956301533734877
0.452000000000000290,1.412356148212999596
0.453000000000000291,1.392658947360894128
0.454000000000000292,1.372874100844326595
0.455000000000000293,1.353010863171553835
0.456000000000000294,1.333078338916201977
0.457000000000000295,1.313085480360848711
0.458000000000000296,1.293041085353687558
0.459000000000000297,1.272953795371854158
0.460000000000000298,1.252832093785005707
0.461000000000000298,1.232684304312877677
0.462000000000000299,1.212518589670493974
0.463000000000000300,1.192342950394895684
0.464000000000000301,1.172165223847222659
0.465000000000000302,1.151993083384148520
0.466000000000000303,1.131834037692652339
0.467000000000000304,1.111695430282313879
0.468000000000000305,1.091584439129295259
0.469000000000000306,1.071508076466341830
0.470000000000000306,1.051473188713189177
0.471000000000000307,1.031486456541885754
0.472000000000000308,1.011554395071614598
0.473000000000000309,0.991683354187709809
0.474000000000000310,0.971879518979704038
0.475000000000000311,0.952148910293235340
0.476000000000000312,0.932497385390935185
0.477000000000000313,0.912930638717291076
0.478000000000000314,0.893454202762816840
0.479000000000000314,0.874073449022785498
0.480000000000000315,0.854793589046012103
0.481000000000000316,0.835619675569205578
0.482000000000000317,0.816556603732571440
0.483000000000000318,0.797609112372405726
0.484000000000000319,0.778781785386575054
0.485000000000000320,0.760079053168852825
0.486000000000000321,0.741505194108193488
0.487000000000000322,0.723064336149154552
0.488000000000000322,0.704760458409753987
0.489000000000000323,0.686597392853174116
0.490000000000000324,0.668578826009811888
0.491000000000000325,0.650708300746296708
0.492000000000000326,0.632989218078182092
0.493000000000000327,0.615424839023124060
0.494000000000000328,0.598018286491464268
0.495000000000000329,0.580772547211213741
0.496000000000000330,0.563690473684572591
0.497000000000000330,0.546774786173135352
0.498000000000000331,0.530028074709137820
0.499000000000000332,0.513452801130099501
0.500000000000000333,0.497051301134320223
0.501000000000000334,0.480825786354844076
0.502000000000000335,0.464778346449502444
0.503000000000000336,0.448910951204803232
0.504000000000000337,0.433225452651462006
0.505000000000000338,0.417723587189508472
0.506000000000000338,0.402406977720934034
0.507000000000000339,0.387277135787943538
0.508000000000000340,0.372335463714971671
0.509000000000000341,0.357583256752656231
0.510000000000000342,0.343021705222083140
0.511000000000000343,0.328651896657636944
0.512000000000000344,0.314474817946919338
0.513000000000000345,0.300491357466227682
0.514000000000000346,0.286702307210128182
0.515000000000000346,0.273108364913822510
0.516000000000000347,0.259710136166949657
0.517000000000000348,0.246508136517597787
0.518000000000000349,0.233502793565357913
0.519000000000000350,0.220694449042282553
0.520000000000000351,0.208083360880688240
0.521000000000000352,0.195669705266785787
0.522000000000000353,0.183453578679208112
0.523000000000000353,0.171434999911486752
0.524000000000000354,0.159613912077665482
0.525000000000000355,0.147990184600221064
0.526000000000000356,0.136563615179556563
0.527000000000000357,0.125333931744332494
0.528000000000000358,0.114300794381977752
0.529000000000000359,0.103463797248784545
0.530000000000000360,0.092822470458966549
0.531000000000000361,0.082376281952167188
0.532000000000000361,0.072124639338908905
0.533000000000000362,0.062066891723525905
0.534000000000000363,0.052202331504152301
0.535000000000000364,0.042530196149367080
0.536000000000000365,0.033049669951160841
0.537000000000000366,0.023759885753874721
0.538000000000000367,0.014659926658850419
0.539000000000000368,0.005748827704491144
0.540000000000000369,-0.002974422478453892
0.541000000000000369,-0.011510880036624593
0.542000000000000370,-0.019861644288946795
0.543000000000000371,-0.028027856146865586
0.544000000000000372,-0.036010696560031308
0.545000000000000373,-0.043811384987530351
0.546000000000000374,-0.051431177894757138
0.547000000000000375,-0.058871367275954489
0.548000000000000376,-0.066133279202496051
0.549000000000000377,-0.073218272396875478
0.550000000000000377,-0.080127736832451002
0.551000000000000378,-0.086863092358864843
0.552000000000000379,-0.093425787353144066
0.553000000000000380,-0.099817297396396026
0.554000000000000381,-0.106039123976023705
0.555000000000000382,-0.112092793213395853
0.556000000000000383,-0.117979854616822172
0.557000000000000384,-0.123701879859768549
0.558000000000000385,-0.129260461584127490
0.559000000000000385,-0.134657212228441736
0.560000000000000386,-0.139893762880895889
0.561000000000000387,-0.144971762156926531
0.562000000000000388,-0.149892875101251821
0.563000000000000389,-0.154658782114168336
0.564000000000000390,-0.159271177901866234
0.565000000000000391,-0.163731770450608105
0.566000000000000392,-0.168042280024516127
0.567000000000000393,-0.172204438186774500
0.568000000000000393,-0.176219986843990289
0.569000000000000394,-0.180090677313501868
0.570000000000000395,-0.183818269413377589
0.571000000000000396,-0.187404530574844186
0.572000000000000397,-0.190851234976928907
0.573000000000000398,-0.194160162703009620
0.574000000000000399,-0.197333098919045519
0.575000000000000400,-0.200371833073195116
0.576000000000000401,-0.203278158116564495
0.577000000000000401,-0.206053869744814599
0.578000000000000402,-0.208700765660329024
0.579000000000000403,-0.211220644854673761
0.580000000000000404,-0.213615306911080605
0.581000000000000405,-0.215886551326629705
0.582000000000000406,-0.218036176853891123
0.583000000000000407,-0.220065980861686883
0.584000000000000408,-0.221977758714735740
0.585000000000000409,-0.223773303171840132
0.586000000000000409,-0.225454403802353653
0.587000000000000410,-0.227022846420640884
0.588000000000000411,-0.228480412538197009
0.589000000000000412,-0.229828878833198080
0.590000000000000413,-0.231070016637120595
0.591000000000000414,-0.232205591438186643
0.592000000000000415,-0.233237362401337078
0.593000000000000416,-0.234167081904410601
0.594000000000000417,-0.234996495090272040
0.595000000000000417,-0.235727339434601058
0.596000000000000418,-0.236361344329013068
0.597000000000000419,-0.236900230679289725
0.598000000000000420,-0.237345710518369307
0.599000000000000421,-0.237699486633866863
0.600000000000000422,-0.237963252209808879
0.601000000000000423,-0.238138690482315590
0.602000000000000424,-0.238227474408952256
0.603000000000000425,-0.238231266351489473
0.604000000000000425,-0.238151717771758087
0.605000000000000426,-0.237990468940373651
0.606000000000000427,-0.237749148658050524
0.607000000000000428,-0.237429373989196668
0.608000000000000429,-0.237032750007616450
0.609000000000000430,-0.236560869553946646
0.610000000000000431,-0.236015313004681648
0.611000000000000432,-0.235397648052440844
0.612000000000000433,-0.234709429497276550
0.613000000000000433,-0.233952199048768794
0.614000000000000434,-0.233127485138642843
0.615000000000000435,-0.232236802743666454
0.616000000000000436,-0.231281653218611882
0.617000000000000437,-0.230263524139022874
0.618000000000000438,-0.229183889153553727
0.619000000000000439,-0.228044207845648467
0.620000000000000440,-0.226845925604347798
