# ZnO10m10NBDry_BGLC-JS
# h[nm],U(h)[kJ/mol]
0.149999999999999994,191.749862656420532403
0.150999999999999995,188.967652129673325589
0.151999999999999996,186.357836678568531852
0.152999999999999997,183.758225373493644383
0.153999999999999998,181.127600880797501759
0.154999999999999999,178.475419489306801779
0.156000000000000000,175.825763701435249686
0.157000000000000001,173.200898450789793515
0.158000000000000002,170.615457143343235202
0.159000000000000002,168.075921118301693014
0.160000000000000003,165.582345657845593223
0.161000000000000004,163.130694098497144751
0.162000000000000005,160.714982192454783672
0.163000000000000006,158.328915933739210686
0.164000000000000007,155.966964551262378791
0.165000000000000008,153.624935101723423259
0.166000000000000009,151.300162715365729582
0.167000000000000010,148.991436415603573096
0.168000000000000010,146.698766003454295515
0.169000000000000011,144.423073283697846136
0.170000000000000012,142.165867791559833222
0.171000000000000013,139.928946577401632112
0.172000000000000014,137.714140895450526614
0.173000000000000015,135.523120044718893951
0.174000000000000016,133.357253759163455697
0.175000000000000017,131.217528819027108966
0.176000000000000018,129.104512274654467774
0.177000000000000018,127.018352198741993675
0.178000000000000019,124.958806664048410084
0.179000000000000020,122.925292237560739750
0.180000000000000021,120.916944348287188404
0.181000000000000022,118.932683174512021651
0.182000000000000023,116.971280033648184826
0.183000000000000024,115.031420530126894164
0.184000000000000025,113.111761856364324785
0.185000000000000026,111.210982614668381530
0.186000000000000026,109.327824323478949964
0.187000000000000027,107.461124394690003214
0.188000000000000028,105.609840834700804635
0.189000000000000029,103.773069250173833211
0.190000000000000030,101.950052952166700493
0.191000000000000031,100.140187071198937474
0.192000000000000032,98.343017641347358904
0.193000000000000033,96.558236601875734095
0.194000000000000034,94.785673615910425838
0.195000000000000034,93.025285530352306296
0.196000000000000035,91.277144210151817560
0.197000000000000036,89.541423381551140892
0.198000000000000037,87.818385019179885376
0.199000000000000038,86.108365715531789419
0.200000000000000039,84.411763381463245537
0.201000000000000040,82.729024544910657823
0.202000000000000041,81.060632443082823784
0.203000000000000042,79.407096041317331014
0.204000000000000042,77.768940059457818847
0.205000000000000043,76.146696043520805119
0.206000000000000044,74.540894485841960204
0.207000000000000045,72.952057969960065975
0.208000000000000046,71.380695296277991702
0.209000000000000047,69.827296530093718729
0.210000000000000048,68.292328904009423240
0.211000000000000049,66.776233501157420847
0.212000000000000050,65.279422643337994714
0.213000000000000050,63.802277908370001569
0.214000000000000051,62.345148703087581055
0.215000000000000052,60.908351321966314629
0.216000000000000053,59.492168425888984018
0.217000000000000054,58.096848880701074336
0.218000000000000055,56.722607900670119818
0.219000000000000056,55.369627447519768282
0.220000000000000057,54.038056841175944101
0.221000000000000058,52.728013543618338588
0.222000000000000058,51.439584082167982615
0.223000000000000059,50.172825083112499556
0.224000000000000060,48.927764390731596222
0.225000000000000061,47.704402250523848750
0.226000000000000062,46.502712538754266802
0.227000000000000063,45.322644023350939335
0.228000000000000064,44.164121643704149278
0.229000000000000065,43.027047799084449764
0.230000000000000066,41.911303637236272834
0.231000000000000066,40.816750336245910091
0.232000000000000067,39.743230374067778143
0.233000000000000068,38.690568781147931077
0.234000000000000069,37.658574372444569178
0.235000000000000070,36.647040955837681508
0.236000000000000071,35.655748514474545630
0.237000000000000072,34.684464361034336832
0.238000000000000073,33.732944262239385580
0.239000000000000073,32.800933532211431043
0.240000000000000074,31.888168093479016818
0.241000000000000075,30.994375504610911065
0.242000000000000076,30.119275953582633321
0.243000000000000077,29.262583216093560168
0.244000000000000078,28.424005578147056639
0.245000000000000079,27.603246722291181925
0.246000000000000080,26.800006576999329866
0.247000000000000081,26.013982128748864397
0.248000000000000081,25.244868196437156627
0.249000000000000082,24.492358167858704121
0.250000000000000111,23.756144698053464737
0.251000000000000112,23.035920369428570353
0.252000000000000113,22.331378313648816203
0.253000000000000114,21.642212795391021274
0.254000000000000115,20.968119758155360444
0.255000000000000115,20.308797332429257665
0.256000000000000116,19.663946306600529113
0.257000000000000117,19.033270561116140129
0.258000000000000118,18.416477466483236469
0.259000000000000119,17.813278245803466859
0.260000000000000120,17.223388302623519053
0.261000000000000121,16.646527514972234485
0.262000000000000122,16.082420496535306143
0.263000000000000123,15.530796825994443111
0.264000000000000123,14.991391245625298012
0.265000000000000124,14.463943830310588723
0.266000000000000125,13.948200128177779433
0.267000000000000126,13.443911274117294141
0.268000000000000127,12.950834077474832284
0.269000000000000128,12.468731085242552581
0.270000000000000129,11.997370622096449111
0.271000000000000130,11.536526808642275199
0.272000000000000131,11.085979559241067705
0.273000000000000131,10.645514560785958480
0.274000000000000132,10.214923233796877611
0.275000000000000133,9.794002677187810590
0.276000000000000134,9.382555598043669676
0.277000000000000135,8.980390227721560592
0.278000000000000136,8.587320225562766751
0.279000000000000137,8.203164571469748978
0.280000000000000138,7.827747448566798383
0.281000000000000139,7.460898117122385820
0.282000000000000139,7.102450780869385305
0.283000000000000140,6.752244446813395307
0.284000000000000141,6.410122779572342999
0.285000000000000142,6.075933951241129449
0.286000000000000143,5.749530487724437755
0.287000000000000144,5.430769112429887358
0.288000000000000145,5.119510588160555820
0.289000000000000146,4.815619557994962108
0.290000000000000147,4.518964385888840418
0.291000000000000147,4.229416997682212909
0.292000000000000148,3.946852723142872943
0.293000000000000149,3.671150139627674669
0.294000000000000150,3.402190917892703226
0.295000000000000151,3.139859670535392944
0.296000000000000152,2.884043803504554582
0.297000000000000153,2.634633371068750396
0.298000000000000154,2.391520934589503433
0.299000000000000155,2.154601425403713133
0.300000000000000155,1.923772012079234983
0.301000000000000156,1.698931972269222657
0.302000000000000157,1.479982569353853750
0.303000000000000158,1.266826934023932427
0.304000000000000159,1.059369950927652404
0.305000000000000160,0.857518150471498819
0.306000000000000161,0.661179605837199147
0.307000000000000162,0.470263835249885909
0.308000000000000163,0.284681709507795033
0.309000000000000163,0.104345364760739301
0.310000000000000164,-0.070831879496751959
0.311000000000000165,-0.240935597270859947
0.312000000000000166,-0.406050327823676060
0.313000000000000167,-0.566259642425227305
0.314000000000000168,-0.721646206203722107
0.315000000000000169,-0.872291835208381050
0.316000000000000170,-1.018277548810564870
0.317000000000000171,-1.159683617578683545
0.318000000000000171,-1.296589606771125558
0.319000000000000172,-1.429074415598792891
0.320000000000000173,-1.557216312414838377
0.321000000000000174,-1.681092965994166688
0.322000000000000175,-1.800781473069433591
0.323000000000000176,-1.916358382292890017
0.324000000000000177,-2.027899714795779573
0.325000000000000178,-2.135480981517681176
0.326000000000000179,-2.239177197479287340
0.327000000000000179,-2.339062893170935631
0.328000000000000180,-2.435212123228688963
0.329000000000000181,-2.527698472568191246
0.330000000000000182,-2.616595060143781737
0.331000000000000183,-2.701974540498421895
0.332000000000000184,-2.783909103266179130
0.333000000000000185,-2.862470470785896559
0.334000000000000186,-2.937729893980650875
0.335000000000000187,-3.009758146653376709
0.336000000000000187,-3.078625518344801471
0.337000000000000188,-3.144401805894659674
0.338000000000000189,-3.207156303842958689
0.339000000000000190,-3.266957793802573118
0.340000000000000191,-3.323874532929301573
0.341000000000000192,-3.377974241610631534
0.342000000000000193,-3.429324090488765187
0.343000000000000194,-3.477990686928521313
0.344000000000000195,-3.524040061034770410
0.345000000000000195,-3.567537651319604208
0.346000000000000196,-3.608548290113176904
0.347000000000000197,-3.647136188807600377
0.348000000000000198,-3.683364923017694359
0.349000000000000199,-3.717297417737339238
0.350000000000000200,-3.748995932565246214
0.351000000000000201,-3.778522047068849865
0.352000000000000202,-3.805936646350265740
0.353000000000000203,-3.831299906873605554
0.354000000000000203,-3.854671282608362670
0.355000000000000204,-3.876109491538839880
0.356000000000000205,-3.895672502585777686
0.357000000000000206,-3.913417522981874619
0.358000000000000207,-3.929400986138759322
0.359000000000000208,-3.943678540039450731
0.360000000000000209,-3.956305036186424928
0.361000000000000210,-3.967334519131804349
0.362000000000000210,-3.976820216612984016
0.363000000000000211,-3.984814530313508296
0.364000000000000212,-3.991369027266226333
0.365000000000000213,-3.996534431912493801
0.366000000000000214,-4.000360618828652903
0.367000000000000215,-4.002896606128199863
0.368000000000000216,-4.004190549545830535
0.369000000000000217,-4.004289737206745414
0.370000000000000218,-4.003240585083000624
0.371000000000000218,-4.001088633135978512
0.372000000000000219,-3.997878542142673464
0.373000000000000220,-3.993654091201382705
0.374000000000000221,-3.988458175910788661
0.375000000000000222,-3.982332807214757686
0.376000000000000223,-3.975319110904135922
0.377000000000000224,-3.967457327764978281
0.378000000000000225,-3.958786814361828110
0.379000000000000226,-3.949346044443343029
0.380000000000000226,-3.939172610956870102
0.381000000000000227,-3.928303228657154200
0.382000000000000228,-3.916773737294165336
0.383000000000000229,-3.904619105363889453
0.384000000000000230,-3.891873434405378251
0.385000000000000231,-3.878569963827050771
0.386000000000000232,-3.864741076244384566
0.387000000000000233,-3.850418303311104573
0.388000000000000234,-3.835632332025325830
0.389000000000000234,-3.820413011492177269
0.390000000000000235,-3.804789360123896902
0.391000000000000236,-3.788789573258557031
0.392000000000000237,-3.772441031178234816
0.393000000000000238,-3.755770307507629191
0.394000000000000239,-3.738803177973919922
0.395000000000000240,-3.721564629508943511
0.396000000000000241,-3.704078869674712227
0.397000000000000242,-3.686369336393433116
0.398000000000000242,-3.668458707963520915
0.399000000000000243,-3.650368913343098765
0.400000000000000244,-3.632121142682792847
0.401000000000000245,-3.613735858090100894
0.402000000000000246,-3.595232804607428445
0.403000000000000247,-3.576631021386742937
0.404000000000000248,-3.557948853043716220
0.405000000000000249,-3.539203961174862023
0.406000000000000250,-3.520413336021268602
0.407000000000000250,-3.501593308263217352
0.408000000000000251,-3.482759560930104303
0.409000000000000252,-3.463927141410681365
0.410000000000000253,-3.445110473548908203
0.411000000000000254,-3.426323369811254516
0.412000000000000255,-3.407579043511582917
0.413000000000000256,-3.388890121080401663
0.414000000000000257,-3.370268654365350613
0.415000000000000258,-3.351726132950716419
0.416000000000000258,-3.333273496483683207
0.417000000000000259,-3.314921146995946977
0.418000000000000260,-3.296678961209402736
0.419000000000000261,-3.278556302815297752
0.420000000000000262,-3.260562034716492974
0.421000000000000263,-3.242704531223147946
0.422000000000000264,-3.224991690192234639
0.423000000000000265,-3.207430945102051734
0.424000000000000266,-3.190029277053215928
0.425000000000000266,-3.172793226687811607
0.426000000000000267,-3.155728906019180879
0.427000000000000268,-3.138842010164909269
0.428000000000000269,-3.122137828976079277
0.429000000000000270,-3.105621258556341413
0.430000000000000271,-3.089296812664508174
0.431000000000000272,-3.073168633995005727
0.432000000000000273,-3.057240505330651281
0.433000000000000274,-3.041515860562776563
0.434000000000000274,-3.025997795573887927
0.435000000000000275,-3.010689078978509237
0.436000000000000276,-2.995592162718172524
0.437000000000000277,-2.980709192506734162
0.438000000000000278,-2.966042018122636570
0.439000000000000279,-2.951592203544991300
0.440000000000000280,-2.937361036930573821
0.441000000000000281,-2.923349540429184934
0.442000000000000282,-2.909558479835175238
0.443000000000000282,-2.895988374072906879
0.444000000000000283,-2.882639504514593831
0.445000000000000284,-2.869511924128834046
0.446000000000000285,-2.856605466458525200
0.447000000000000286,-2.843919754427269631
0.448000000000000287,-2.831454208973142705
0.449000000000000288,-2.819208057509443588
0.450000000000000289,-2.807180342211752055
0.451000000000000290,-2.795369928131184789
0.452000000000000290,-2.783775511133733893
0.453000000000000291,-2.772395625665736052
0.454000000000000292,-2.761228652345824042
0.455000000000000293,-2.750272825383718089
0.456000000000000294,-2.739526239826452159
0.457000000000000295,-2.728986858632802104
0.458000000000000296,-2.718652519576678195
0.459000000000000297,-2.708520941980557595
0.460000000000000298,-2.698589733280012837
0.461000000000000298,-2.688856395420571310
0.462000000000000299,-2.679318331088265559
0.463000000000000300,-2.669972849775224422
0.464000000000000301,-2.660817173681956582
0.465000000000000302,-2.651848443457853310
0.466000000000000303,-2.643063723781629015
0.467000000000000304,-2.634460008783522156
0.468000000000000305,-2.626034227311072389
0.469000000000000306,-2.617783248040381761
0.470000000000000306,-2.609703884434948939
0.471000000000000307,-2.601792899553933669
0.472000000000000308,-2.594047010712134060
0.473000000000000309,-2.586462893993704437
0.474000000000000310,-2.579037188621829735
0.475000000000000311,-2.571766501186573350
0.476000000000000312,-2.564647409733207706
0.477000000000000313,-2.557676467713233315
0.478000000000000314,-2.550850207800438696
0.479000000000000314,-2.544165145574417863
0.480000000000000315,-2.537617783073742750
0.481000000000000316,-2.531204612221359174
0.482000000000000317,-2.524922118124413917
0.483000000000000318,-2.518766782251068648
0.484000000000000319,-2.512735085486597963
0.485000000000000320,-2.506823511071250010
0.486000000000000321,-2.501028547422256221
0.487000000000000322,-2.495346690842431769
0.488000000000000322,-2.489774448117683558
0.489000000000000323,-2.484308339006011668
0.490000000000000324,-2.478944898620221160
0.491000000000000325,-2.473680679706841357
0.492000000000000326,-2.468512254823565399
0.493000000000000327,-2.463436218417657919
0.494000000000000328,-2.458449188807576569
0.495000000000000329,-2.453547810070245028
0.496000000000000330,-2.448728753836163730
0.497000000000000330,-2.443988720994858532
0.498000000000000331,-2.439324443312643975
0.499000000000000332,-2.434732684965268401
0.500000000000000333,-2.430210243987475760
0.501000000000000334,-2.425753953641689442
0.502000000000000335,-2.421360683708118966
0.503000000000000336,-2.417027341698320342
0.504000000000000337,-2.412750873994418122
0.505000000000000338,-2.408528266916014182
0.506000000000000338,-2.404356547716937964
0.507000000000000339,-2.400232785513798817
0.508000000000000340,-2.396154092148376158
0.509000000000000341,-2.392117622985902248
0.510000000000000342,-2.388120577651023702
0.511000000000000343,-2.384160200703550281
0.512000000000000344,-2.380233782255711805
0.513000000000000345,-2.376338658532870962
0.514000000000000346,-2.372472212379542089
0.515000000000000346,-2.368631873712379043
0.516000000000000347,-2.364815119922002662
0.517000000000000348,-2.361019476225397096
0.518000000000000349,-2.357242515970453312
0.519000000000000350,-2.353481860894453881
0.520000000000000351,-2.349735181338030721
0.521000000000000352,-2.346000196416262007
0.522000000000000353,-2.342274674148387970
0.523000000000000353,-2.338556431547751835
0.524000000000000354,-2.334843334673425197
0.525000000000000355,-2.331133298644980201
0.526000000000000356,-2.327424287621826515
0.527000000000000357,-2.323714314748588361
0.528000000000000358,-2.320001442067757491
0.529000000000000359,-2.316283780401116488
0.530000000000000360,-2.312559489201075458
0.531000000000000361,-2.308826776373334333
0.532000000000000361,-2.305083898072028958
0.533000000000000362,-2.301329158468609304
0.534000000000000363,-2.297560909495611092
0.535000000000000364,-2.293777550566507450
0.536000000000000365,-2.289977528272716611
0.537000000000000366,-2.286159336058918967
0.538000000000000367,-2.282321513877655583
0.539000000000000368,-2.278462647824400111
0.540000000000000369,-2.274581369753909232
0.541000000000000369,-2.270676356879054225
0.542000000000000370,-2.266746331352877064
0.543000000000000371,-2.262790059834959955
0.544000000000000372,-2.258806353042932091
0.545000000000000373,-2.254794065290012028
0.546000000000000374,-2.250752094009410342
0.547000000000000375,-2.246679379266447452
0.548000000000000376,-2.242574903259190844
0.549000000000000377,-2.238437689808347120
0.550000000000000377,-2.234266803837210880
0.551000000000000378,-2.230061350842343693
0.552000000000000379,-2.225820476355760302
0.553000000000000380,-2.221543365399242465
0.554000000000000381,-2.217229241931443884
0.555000000000000382,-2.212877368288517221
0.556000000000000383,-2.208487044618721029
0.557000000000000384,-2.204057608311783323
0.558000000000000385,-2.199588433423437017
0.559000000000000385,-2.195078930095813785
0.560000000000000386,-2.190528543974152420
0.561000000000000387,-2.185936755620387029
0.562000000000000388,-2.181303079924056920
0.563000000000000389,-2.176627065511135051
0.564000000000000390,-2.171908294151084995
0.565000000000000391,-2.167146380162726427
0.566000000000000392,-2.162340969819266157
0.567000000000000393,-2.157491740752945919
0.568000000000000393,-2.152598401359658187
0.569000000000000394,-2.147660690203962552
0.570000000000000395,-2.142678375424864168
0.571000000000000396,-2.137651254142622026
0.572000000000000397,-2.132579151867085798
0.573000000000000398,-2.127461921907696230
0.574000000000000399,-2.122299444785620270
0.575000000000000400,-2.117091627648192809
0.576000000000000401,-2.111838403686008725
0.577000000000000401,-2.106539731552966366
0.578000000000000402,-2.101195594789415644
0.579000000000000403,-2.095806001248731398
0.580000000000000404,-2.090370982527567811
0.581000000000000405,-2.084890593399905345
0.582000000000000406,-2.079364911255239257
0.583000000000000407,-2.073794035540978520
0.584000000000000408,-2.068178087209339822
0.585000000000000409,-2.062517208168866745
0.586000000000000409,-2.056811560740733125
0.587000000000000410,-2.051061327120060618
0.588000000000000411,-2.045266708842267800
0.589000000000000412,-2.039427926254767431
0.590000000000000413,-2.033545217993954601
0.591000000000000414,-2.027618840467750871
0.592000000000000415,-2.021649067343777251
0.593000000000000416,-2.015636189043207072
0.594000000000000417,-2.009580512240464856
0.595000000000000417,-2.003482359368892851
0.596000000000000418,-1.997342068132304194
0.597000000000000419,-1.991159991022744880
0.598000000000000420,-1.984936494844285138
0.599000000000000421,-1.978671960243112427
0.600000000000000422,-1.972366781243839684
0.601000000000000423,-1.966021364792149173
0.602000000000000424,-1.959636130303805457
0.603000000000000425,-1.953211509220083242
0.604000000000000425,-1.946747944569610755
0.605000000000000426,-1.940245890536686613
0.606000000000000427,-1.933705812036151883
0.607000000000000428,-1.927128184294630175
0.608000000000000429,-1.920513492438501668
0.609000000000000430,-1.913862231088194310
0.610000000000000431,-1.907174903959201639
0.611000000000000432,-1.900452023469541674
0.612000000000000433,-1.893694110353770110
