# ZnO10m10NBDry_CS-270-AC
# h[nm],U(h)[kJ/mol]
0.200000000000000011,43.381860587184625899
0.201000000000000012,41.341119188511896709
0.202000000000000013,40.024649781889948486
0.203000000000000014,39.025802860515774739
0.204000000000000015,38.122382737313188272
0.205000000000000016,37.206686990128119419
0.206000000000000016,36.238635991908651590
0.207000000000000017,35.215156381909693550
0.208000000000000018,34.150841318914871181
0.209000000000000019,33.066296293419540575
0.210000000000000020,31.981606482033054561
0.211000000000000021,30.913117875158604875
0.212000000000000022,29.872276901896043455
0.213000000000000023,28.865673313939350209
0.214000000000000024,27.895717701124556953
0.215000000000000024,26.961587776040289555
0.216000000000000025,26.060218810120773014
0.217000000000000026,25.187210100472597674
0.218000000000000027,24.337583626782581803
0.219000000000000028,23.506372427211971399
0.220000000000000029,22.689041543651889299
0.221000000000000030,21.881758679098606279
0.222000000000000031,21.081538608509667654
0.223000000000000032,20.286287491904499092
0.224000000000000032,19.494772391525732047
0.225000000000000033,18.706538766961255504
0.226000000000000034,17.921795375696358832
0.227000000000000035,17.141282407593379844
0.228000000000000036,16.366135185107335559
0.229000000000000037,15.597752573538244292
0.230000000000000038,14.837676472685913609
0.231000000000000039,14.087486440588012471
0.232000000000000040,13.348711625839518646
0.233000000000000040,12.622760725362454082
0.234000000000000041,11.910869593252053633
0.235000000000000042,11.214065351233500678
0.236000000000000043,10.533145339365058035
0.237000000000000044,9.868668946603184722
0.238000000000000045,9.220960228957896021
0.239000000000000046,8.590119218011826874
0.240000000000000047,7.976039910186585757
0.241000000000000048,7.378433078671756462
0.242000000000000048,6.796852242062878524
0.243000000000000049,6.230721337961940165
0.244000000000000050,5.679362871758006470
0.245000000000000051,5.142025529787775717
0.246000000000000052,4.617910454362192496
0.247000000000000053,4.106195570474592493
0.248000000000000054,3.606057527115930306
0.249000000000000055,3.116690968308132081
0.250000000000000056,2.637324979723976615
0.251000000000000056,2.167236666482379004
0.252000000000000057,1.705761907423154922
0.253000000000000058,1.252303402343200478
0.254000000000000059,0.806336183051381106
0.255000000000000060,0.367410798551861262
0.256000000000000061,-0.064845588887681244
0.257000000000000062,-0.490729944698185538
0.258000000000000063,-0.910465681906506008
0.259000000000000064,-1.324206303501008986
0.260000000000000064,-1.732040118531757766
0.261000000000000065,-2.133995795671219220
0.262000000000000066,-2.530048533933984878
0.263000000000000067,-2.920126648679942427
0.264000000000000068,-3.304118391003842525
0.265000000000000069,-3.681878839385274826
0.266000000000000070,-4.053236723408842224
0.267000000000000071,-4.418001059960894317
0.268000000000000071,-4.775967502165076262
0.269000000000000072,-5.126924320132443924
0.270000000000000073,-5.470657950149640847
0.271000000000000074,-5.806958065060007890
0.272000000000000075,-6.135622133216468654
0.273000000000000076,-6.456459446458397977
0.274000000000000077,-6.769294609087573633
0.275000000000000078,-7.073970489820746721
0.276000000000000079,-7.370350647235214936
0.277000000000000079,-7.658321246375706437
0.278000000000000080,-7.937792490043480420
0.279000000000000081,-8.208699592943455414
0.280000000000000082,-8.471003330424627720
0.281000000000000083,-8.724690196121823504
0.282000000000000084,-8.969772204498292822
0.283000000000000085,-9.206286375204783212
0.284000000000000086,-9.434293936411764392
0.285000000000000087,-9.653879283932980115
0.286000000000000087,-9.865148732131606479
0.287000000000000088,-10.068229091367841832
0.288000000000000089,-10.263266105185447685
0.289000000000000090,-10.450422778615932273
0.290000000000000091,-10.629877626963414983
0.291000000000000092,-10.801822872279549514
0.292000000000000093,-10.966462612493957707
0.293000000000000094,-11.124010985875374402
0.294000000000000095,-11.274690351199943450
0.295000000000000095,-11.418729501727559850
0.296000000000000096,-11.556361928860971133
0.297000000000000097,-11.687824149209159685
0.298000000000000098,-11.813354106712182556
0.299000000000000099,-11.933189659525563542
0.300000000000000100,-12.047567159516528790
0.301000000000000101,-12.156720130502080224
0.302000000000000102,-12.260878049762274244
0.303000000000000103,-12.360265235896719105
0.304000000000000103,-12.455099844755554983
0.305000000000000104,-12.545592973969885264
0.306000000000000105,-12.631947875526346792
0.307000000000000106,-12.714359274873098471
0.308000000000000107,-12.793012794205795402
0.309000000000000108,-12.868084476855699450
0.310000000000000109,-12.939740409083279715
0.311000000000000110,-13.008136435061421921
0.312000000000000111,-13.073417960408084681
0.313000000000000111,-13.135719839290086242
0.314000000000000112,-13.195166339862211657
0.315000000000000113,-13.251871182621579592
0.316000000000000114,-13.305937646139691211
0.317000000000000115,-13.357458734576903581
0.318000000000000116,-13.406517401380394716
0.319000000000000117,-13.453186823610767675
0.320000000000000118,-13.497530721427949629
0.321000000000000119,-13.539603717389805837
0.322000000000000119,-13.579451730370148965
0.323000000000000120,-13.617112399083012519
0.324000000000000121,-13.652615530402325561
0.325000000000000122,-13.685983567886063739
0.326000000000000123,-13.717232076148130560
0.327000000000000124,-13.746370236966011902
0.328000000000000125,-13.773401353264720370
0.329000000000000126,-13.798323357374371767
0.330000000000000127,-13.821129320218030756
0.331000000000000127,-13.841807958345478724
0.332000000000000128,-13.860344135985382508
0.333000000000000129,-13.876719359541592524
0.334000000000000130,-13.890912262206825289
0.335000000000000131,-13.902899076608255413
0.336000000000000132,-13.912654093632625063
0.337000000000000133,-13.920150105803235974
0.338000000000000134,-13.925358833796670055
0.339000000000000135,-13.928251334891914581
0.340000000000000135,-13.928798392340047130
0.341000000000000136,-13.926970884826420871
0.342000000000000137,-13.922740135370755610
0.343000000000000138,-13.916078239172932740
0.344000000000000139,-13.906958370063293273
0.345000000000000140,-13.895355065357090751
0.346000000000000141,-13.881244489041899115
0.347000000000000142,-13.864604673346056174
0.348000000000000143,-13.845415738845090914
0.349000000000000143,-13.823660093361402446
0.350000000000000144,-13.799322610002111134
0.351000000000000145,-13.772390784759195981
0.352000000000000146,-13.742854874167386825
0.353000000000000147,-13.710708013577402653
0.354000000000000148,-13.675946316656496293
0.355000000000000149,-13.638568956775017682
0.356000000000000150,-13.598578230977063086
0.357000000000000151,-13.555979607266081644
0.358000000000000151,-13.510781755962597117
0.359000000000000152,-13.462996565911666380
0.360000000000000153,-13.412639146332821838
0.361000000000000154,-13.359727815114785798
0.362000000000000155,-13.304284074362930923
0.363000000000000156,-13.246332574008054195
0.364000000000000157,-13.185901064282063544
0.365000000000000158,-13.123020337860012319
0.366000000000000159,-13.057724162457770234
0.367000000000000159,-12.990049204662204474
0.368000000000000160,-12.920034945755720202
0.369000000000000161,-12.847723590279352734
0.370000000000000162,-12.773159968059324854
0.371000000000000163,-12.696391430400995048
0.372000000000000164,-12.617467741131228820
0.373000000000000165,-12.536440963146784355
0.374000000000000166,-12.453365341101189756
0.375000000000000167,-12.368297180837069860
0.376000000000000167,-12.281294726144661666
0.377000000000000168,-12.192418033400389987
0.378000000000000169,-12.101728844612420488
0.379000000000000170,-12.009290459373122673
0.380000000000000171,-11.915167606190738780
0.381000000000000172,-11.819426313646086868
0.382000000000000173,-11.722133781792612339
0.383000000000000174,-11.623358254192156735
0.384000000000000175,-11.523168890952160126
0.385000000000000175,-11.421635643104682600
0.386000000000000176,-11.318829128642356352
0.387000000000000177,-11.214820510501779083
0.388000000000000178,-11.109681376761281868
0.389000000000000179,-11.003483623296492766
0.390000000000000180,-10.896299339115007143
0.391000000000000181,-10.788200694569580307
0.392000000000000182,-10.679259832628682503
0.393000000000000183,-10.569548763362911714
0.394000000000000183,-10.459139261786820185
0.395000000000000184,-10.348102769177241811
0.396000000000000185,-10.236510297971559424
0.397000000000000186,-10.124432340332987224
0.398000000000000187,-10.011938780453778719
0.399000000000000188,-9.899098810652343872
0.400000000000000189,-9.785980851306351980
0.401000000000000190,-9.672652474650014653
0.402000000000000191,-9.559180332451756357
0.403000000000000191,-9.445630087576191158
0.404000000000000192,-9.332066349423694618
0.405000000000000193,-9.218552613230304615
0.406000000000000194,-9.105151203201330645
0.407000000000000195,-8.991923219443208382
0.408000000000000196,-8.878928488649814099
0.409000000000000197,-8.766225518492145596
0.410000000000000198,-8.653871455653435518
0.411000000000000199,-8.541922047445286381
0.412000000000000199,-8.430431606935020028
0.413000000000000200,-8.319452981509263267
0.414000000000000201,-8.209037524794187135
0.415000000000000202,-8.099235071848761791
0.416000000000000203,-7.990093917544053070
0.417000000000000204,-7.881660798038152116
0.418000000000000205,-7.773980875254055789
0.419000000000000206,-7.667097724265377501
0.420000000000000207,-7.561053323492890499
0.421000000000000207,-7.455888047613798975
0.422000000000000208,-7.351640663083993665
0.423000000000000209,-7.248348326173354117
0.424000000000000210,-7.146046583413242281
0.425000000000000211,-7.044769374355411173
0.426000000000000212,-6.944549036541573628
0.427000000000000213,-6.845416312583180840
0.428000000000000214,-6.747400359251675361
0.429000000000000214,-6.650528758480054314
0.430000000000000215,-6.554827530177758099
0.431000000000000216,-6.460321146762074029
0.432000000000000217,-6.367032549310321698
0.433000000000000218,-6.274983165238943172
0.434000000000000219,-6.184192927416908958
0.435000000000000220,-6.094680294622861538
0.436000000000000221,-6.006462273257037410
0.437000000000000222,-5.919554440221096669
0.438000000000000222,-5.833970966881047993
0.439000000000000223,-5.749724644030423271
0.440000000000000224,-5.666826907773189426
0.441000000000000225,-5.585287866247930388
0.442000000000000226,-5.505116327117389297
0.443000000000000227,-5.426319825749382098
0.444000000000000228,-5.348904654017802685
0.445000000000000229,-5.272875889654551784
0.446000000000000230,-5.198237426085678514
0.447000000000000230,-5.124992002687440262
0.448000000000000231,-5.053141235400266496
0.449000000000000232,-4.982685647641050153
0.450000000000000233,-4.913624701456575039
0.451000000000000234,-4.845956828863131172
0.452000000000000235,-4.779679463319843613
0.453000000000000236,-4.714789071285342636
0.454000000000000237,-4.651281183809945929
0.455000000000000238,-4.589150428117451774
0.456000000000000238,-4.528390559133166349
0.457000000000000239,-4.468994490916641027
0.458000000000000240,-4.410954327960071808
0.459000000000000241,-4.354261396315015631
0.460000000000000242,-4.298906274512532377
0.461000000000000243,-4.244878824243448534
0.462000000000000244,-4.192168220767812592
0.463000000000000245,-4.140762983024048438
0.464000000000000246,-4.090651003410637365
0.465000000000000246,-4.041819577214628367
0.466000000000000247,-3.994255431663117584
0.467000000000000248,-3.947944754575621662
0.468000000000000249,-3.902873222596829006
0.469000000000000250,-3.859026028990808932
0.470000000000000251,-3.816387910979378351
0.471000000000000252,-3.774943176608673845
0.472000000000000253,-3.734675731129622811
0.473000000000000254,-3.695569102879173951
0.474000000000000254,-3.657606468650636877
0.475000000000000255,-3.620770678542703624
0.476000000000000256,-3.585044280277943862
0.477000000000000257,-3.550409542982824185
0.478000000000000258,-3.516848480422315681
0.479000000000000259,-3.484342873683371700
0.480000000000000260,-3.452874293302506281
0.481000000000000261,-3.422424120833684746
0.482000000000000262,-3.392973569853816596
0.483000000000000262,-3.364503706403850547
0.484000000000000263,-3.336995468864469849
0.485000000000000264,-3.310429687266149390
0.486000000000000265,-3.284787102034126605
0.487000000000000266,-3.260048382169519865
0.488000000000000267,-3.236194142868576762
0.489000000000000268,-3.213204962582691060
0.490000000000000269,-3.191061399522350239
0.491000000000000270,-3.169744007608914504
0.492000000000000270,-3.149233351878468312
0.493000000000000271,-3.129510023342705782
0.494000000000000272,-3.110554653312111117
0.495000000000000273,-3.092347927187236500
0.496000000000000274,-3.074870597724294718
0.497000000000000275,-3.058103497781556435
0.498000000000000276,-3.042027552553595804
0.499000000000000277,-3.026623791300497857
0.500000000000000222,-3.011873358579697513
0.501000000000000334,-2.997757524988172495
0.502000000000000224,-2.984257697423143618
0.503000000000000336,-2.971355428869471460
0.504000000000000226,-2.959032427722359415
0.505000000000000338,-2.947270566653911850
0.506000000000000227,-2.936051891032500638
0.507000000000000339,-2.925358626903778347
0.508000000000000229,-2.915173188542529825
0.509000000000000341,-2.905478185584473572
0.510000000000000231,-2.896256429747350758
0.511000000000000343,-2.887490941150557155
0.512000000000000233,-2.879164954242769969
0.513000000000000345,-2.871261923346939859
0.514000000000000234,-2.863765527832175195
0.515000000000000346,-2.856659676921830204
0.516000000000000236,-2.849928514147393344
0.517000000000000348,-2.843556421457508421
0.518000000000000238,-2.837528022991553378
0.519000000000000350,-2.831828188527171442
0.520000000000000240,-2.826442036611012121
0.521000000000000352,-2.821354937382005712
0.522000000000000242,-2.816552515096282683
0.523000000000000353,-2.812020650362941687
0.524000000000000243,-2.807745482099599066
0.525000000000000355,-2.803713409216748609
0.526000000000000245,-2.799911092039718774
0.527000000000000357,-2.796325453476980805
0.528000000000000247,-2.792943679943467927
0.529000000000000359,-2.789753222047367309
0.530000000000000249,-2.786741795048844672
0.531000000000000361,-2.783897379098927871
0.532000000000000250,-2.781208219266733561
0.533000000000000362,-2.778662825363045652
0.534000000000000252,-2.776249971568074848
0.535000000000000364,-2.773958695871280078
0.536000000000000254,-2.771778299330694306
0.537000000000000366,-2.769698345159341990
0.538000000000000256,-2.767708657646021031
0.539000000000000368,-2.765799320917622151
0.540000000000000258,-2.763960677550053369
0.541000000000000369,-2.762183327034593461
0.542000000000000259,-2.760458124106470734
0.543000000000000371,-2.758776176942199676
0.544000000000000261,-2.757128845232155623
0.545000000000000373,-2.755507738134634899
0.546000000000000263,-2.753904712117564380
0.547000000000000375,-2.752311868693827712
0.548000000000000265,-2.750721552056071495
0.549000000000000377,-2.749126346616644234
0.550000000000000266,-2.747519074458242727
0.551000000000000378,-2.745892792700642016
0.552000000000000268,-2.744240790788767814
0.553000000000000380,-2.742556587707205118
0.554000000000000270,-2.740833929126112345
0.555000000000000382,-2.739066784483351391
0.556000000000000272,-2.737249344007530283
0.557000000000000384,-2.735376015686445061
0.558000000000000274,-2.733441422185412417
0.559000000000000385,-2.731440397719645308
0.560000000000000275,-2.729367984884911280
0.561000000000000387,-2.727219431450399245
0.562000000000000277,-2.724990187117664497
0.563000000000000389,-2.722675900249460046
0.564000000000000279,-2.720272414571984321
0.565000000000000391,-2.717775765854092640
0.566000000000000281,-2.715182178566810212
0.567000000000000393,-2.712488062526397847
0.568000000000000282,-2.709690009524136300
0.569000000000000394,-2.706784789945783309
0.570000000000000284,-2.703769349383642329
0.571000000000000396,-2.700640805244046927
0.572000000000000286,-2.697396443352908513
0.573000000000000398,-2.694033714561913317
0.574000000000000288,-2.690550231357842659
0.575000000000000400,-2.686943764477406127
0.576000000000000290,-2.683212239529807697
0.577000000000000401,-2.679353733629265655
0.578000000000000291,-2.675366472039535370
0.579000000000000403,-2.671248824832415547
0.580000000000000293,-2.666999303562165302
0.581000000000000405,-2.662616557957579566
0.582000000000000295,-2.658099372633503155
0.583000000000000407,-2.653446663823369800
0.584000000000000297,-2.648657476134333333
0.585000000000000409,-2.643730979326481823
0.586000000000000298,-2.638666465117506021
0.587000000000000410,-2.633463344014146834
0.588000000000000300,-2.628121142171679026
0.589000000000000412,-2.622639498282596016
0.590000000000000302,-2.617018160495594437
0.591000000000000414,-2.611256983365929152
0.592000000000000304,-2.605355924838082871
0.593000000000000416,-2.599315043261645197
0.594000000000000306,-2.593134494441313276
0.595000000000000417,-2.586814528721736561
0.596000000000000307,-2.580355488107976658
0.597000000000000419,-2.573757803422231483
0.598000000000000309,-2.567021991497508981
0.599000000000000421,-2.560148652408702930
0.600000000000000311,-2.553138466741734725
0.601000000000000423,-2.545992192901112006
0.602000000000000313,-2.538710664456405475
0.603000000000000425,-2.531294787527971213
0.604000000000000314,-2.523745538212321282
0.605000000000000426,-2.516063960047334014
0.606000000000000316,-2.508251161517684125
0.607000000000000428,-2.500308313600566379
0.608000000000000318,-2.492236647352040091
0.609000000000000430,-2.484037451533986474
0.610000000000000320,-2.475712070281906652
0.611000000000000432,-2.467261900813544351
0.612000000000000322,-2.458688391178438071
0.613000000000000433,-2.449993038048353444
0.614000000000000323,-2.441177384548640195
0.615000000000000435,-2.432243018130399115
0.616000000000000325,-2.423191568483438196
0.617000000000000437,-2.414024705489878464
0.618000000000000327,-2.404744137218324695
0.619000000000000439,-2.395351607958385198
0.620000000000000329,-2.385848896295463373
0.621000000000000441,-2.376237813225531070
0.622000000000000330,-2.366520200309751853
0.623000000000000442,-2.356697927868659725
0.624000000000000332,-2.346772893215683276
0.625000000000000444,-2.336747018929730135
0.626000000000000334,-2.326622251166552413
0.627000000000000446,-2.316400558008585797
0.628000000000000336,-2.306083927852958571
0.629000000000000448,-2.295674367837333030
0.630000000000000338,-2.285173902303249793
0.631000000000000449,-2.274584571296593971
0.632000000000000339,-2.263908429104868336
0.633000000000000451,-2.253147542830825412
0.634000000000000341,-2.242303991002155161
0.635000000000000453,-2.231379862216761101
0.636000000000000343,-2.220377253823270003
0.637000000000000455,-2.209298270636331551
0.638000000000000345,-2.198145023686319810
0.639000000000000457,-2.186919629002962218
0.640000000000000346,-2.175624206432536401
0.641000000000000458,-2.164260878488113438
0.642000000000000348,-2.152831769232485204
0.643000000000000460,-2.141339003193250434
0.644000000000000350,-2.129784704309695353
0.645000000000000462,-2.118170994910911542
0.646000000000000352,-2.106499994724802427
0.647000000000000464,-2.094773819917406410
0.648000000000000353,-2.082994582162203123
0.649000000000000465,-2.071164387738771762
0.650000000000000355,-2.059285336660531929
0.651000000000000467,-2.047359521830900420
0.652000000000000357,-2.035389028227581498
0.653000000000000469,-2.023375932114347631
0.654000000000000359,-2.011322300280007802
0.655000000000000471,-1.999230189303958127
0.656000000000000361,-1.987101644847947046
0.657000000000000473,-1.974938700973511541
0.658000000000000362,-1.962743379484693573
0.659000000000000474,-1.950517689295503843
0.660000000000000364,-1.938263625821734504
