# ZnO10m10NBDry_CS-11227-AC
# h[nm],U(h)[kJ/mol]
0.200000000000000011,57.205649650600982170
0.201000000000000012,55.778477179064758218
0.202000000000000013,54.649647522167256852
0.203000000000000014,53.651555895821104514
0.204000000000000015,52.691420200494327730
0.205000000000000016,51.723694700343379793
0.206000000000000016,50.731295787939423292
0.207000000000000017,49.713117003194675192
0.208000000000000018,48.675974397093781931
0.209000000000000019,47.629623492479801428
0.210000000000000020,46.583863931416331639
0.211000000000000021,45.547027160523860800
0.212000000000000022,44.525349162636935318
0.213000000000000023,43.522881984970403835
0.214000000000000024,42.541708224167763319
0.215000000000000024,41.582302103701252349
0.216000000000000025,40.643937247751907194
0.217000000000000026,39.725080740078638541
0.218000000000000027,38.823740109728348102
0.219000000000000028,37.937747932637151393
0.220000000000000029,37.064980340178330209
0.221000000000000030,36.203512784481212350
0.222000000000000031,35.351720327227312168
0.223000000000000032,34.508331516492347646
0.224000000000000032,33.672445333297666537
0.225000000000000033,32.843520251399262122
0.226000000000000034,32.021343528178292104
0.227000000000000035,31.205987682880426348
0.228000000000000036,30.397759887856448557
0.229000000000000037,29.597148804998390403
0.230000000000000038,28.804772306207876653
0.231000000000000039,28.021328556452779424
0.232000000000000040,27.247552123414969572
0.233000000000000040,26.484176108267394767
0.234000000000000041,25.731900758863446299
0.235000000000000042,24.991368616032779926
0.236000000000000043,24.263145940003692402
0.237000000000000044,23.547709950931746903
0.238000000000000045,22.845441279349859798
0.239000000000000046,22.156620944500510006
0.240000000000000047,21.481431147927747105
0.241000000000000048,20.819959175048243338
0.242000000000000048,20.172203729025813601
0.243000000000000049,19.538083071098640175
0.244000000000000050,18.917444402997258379
0.245000000000000051,18.310073995003751435
0.246000000000000052,17.715707633470433535
0.247000000000000053,17.134041031146889367
0.248000000000000054,16.564739910209297591
0.249000000000000055,16.007449529876975447
0.250000000000000056,15.461803486929875717
0.251000000000000056,14.927431667741126731
0.252000000000000057,14.403967274389421149
0.253000000000000058,13.891052885058872590
0.254000000000000059,13.388345540500116826
0.255000000000000060,12.895520874186019000
0.256000000000000061,12.412276324403862304
0.257000000000000062,11.938333482393549190
0.258000000000000063,11.473439642300117924
0.259000000000000064,11.017368626692745082
0.260000000000000064,10.569920966230514026
0.261000000000000065,10.130923514220732784
0.262000000000000066,9.700228576774373224
0.263000000000000067,9.277712637437451448
0.264000000000000068,8.863274751940956264
0.265000000000000069,8.456834684400936553
0.266000000000000070,8.058330851208335588
0.267000000000000071,7.667718133225514876
0.268000000000000071,7.284965610970658645
0.269000000000000072,6.910054271400097647
0.270000000000000073,6.542974728841807419
0.271000000000000074,6.183724996709791810
0.272000000000000075,5.832308340932383928
0.273000000000000076,5.488731240630511543
0.274000000000000077,5.153001476535604475
0.275000000000000078,4.825126362977622207
0.276000000000000079,4.505111135023161850
0.277000000000000079,4.192957498510231140
0.278000000000000080,3.888662347312738632
0.279000000000000081,3.592216649163067821
0.280000000000000082,3.303604498754469709
0.281000000000000083,3.022802334615490416
0.282000000000000084,2.749778314375798782
0.283000000000000085,2.484491841501367482
0.284000000000000086,2.226893235340589250
0.285000000000000087,1.976923535366361451
0.286000000000000087,1.734514429793465151
0.287000000000000088,1.499588298270910558
0.288000000000000089,1.272058358068487216
0.289000000000000090,1.051828903070843868
0.290000000000000091,0.838795624938407536
0.291000000000000092,0.632846005968531911
0.292000000000000093,0.433859773473964871
0.293000000000000094,0.241709405868499705
0.294000000000000095,0.056260681095296625
0.295000000000000095,-0.122626741464782890
0.296000000000000096,-0.295098713922222644
0.297000000000000097,-0.461305975387951317
0.298000000000000098,-0.621403517210769918
0.299000000000000099,-0.775549944488126863
0.300000000000000100,-0.923906839790428314
0.301000000000000101,-1.066638134441031616
0.302000000000000102,-1.203909492107515522
0.303000000000000103,-1.335887708891454917
0.304000000000000103,-1.462740133555942901
0.305000000000000104,-1.584634111007579005
0.306000000000000105,-1.701736451653973914
0.307000000000000106,-1.814212928791041790
0.308000000000000107,-1.922227805738309980
0.309000000000000108,-2.025943394034987133
0.310000000000000109,-2.125519643636009981
0.311000000000000110,-2.221113765704203935
0.312000000000000111,-2.312879888283604579
0.313000000000000111,-2.400968744856925685
0.314000000000000112,-2.485527395538301931
0.315000000000000113,-2.566698980428204102
0.316000000000000114,-2.644622504460502732
0.317000000000000115,-2.719432652900066749
0.318000000000000116,-2.791259636502121833
0.319000000000000117,-2.860229065219999978
0.320000000000000118,-2.926461849244496261
0.321000000000000119,-2.990074126074527605
0.322000000000000119,-3.051177212253159965
0.323000000000000120,-3.109877578354210748
0.324000000000000121,-3.166276845771219151
0.325000000000000122,-3.220471803840622815
0.326000000000000123,-3.272554445823697478
0.327000000000000124,-3.322612022275551080
0.328000000000000125,-3.370727110343324284
0.329000000000000126,-3.416977697557979976
0.330000000000000127,-3.461437278714183829
0.331000000000000127,-3.504174964469425557
0.332000000000000128,-3.545255600335627921
0.333000000000000129,-3.584739894783546710
0.334000000000000130,-3.622684555230855530
0.335000000000000131,-3.659142430738959284
0.336000000000000132,-3.694162660299556755
0.337000000000000133,-3.727790825650248330
0.338000000000000134,-3.760069107617696638
0.339000000000000135,-3.791036445046542358
0.340000000000000135,-3.820728695432708655
0.341000000000000136,-3.849178796439252093
0.342000000000000137,-3.876416927532468470
0.343000000000000138,-3.902470671034136362
0.344000000000000139,-3.927365171943143274
0.345000000000000140,-3.951123295935368596
0.346000000000000141,-3.973765785004880424
0.347000000000000142,-3.995311410261761065
0.348000000000000143,-4.015777121452377862
0.349000000000000143,-4.035178192816077036
0.350000000000000144,-4.053528364938603801
0.351000000000000145,-4.070839982306389437
0.352000000000000146,-4.087124126307736027
0.353000000000000147,-4.102390743466213685
0.354000000000000148,-4.116648768728948582
0.355000000000000149,-4.129906243667280208
0.356000000000000150,-4.142170429479983262
0.357000000000000151,-4.153447914719746947
0.358000000000000151,-4.163744717691869823
0.359000000000000152,-4.173066383500275478
0.360000000000000153,-4.181418075740229057
0.361000000000000154,-4.188804662859040739
0.362000000000000155,-4.195230799226476570
0.363000000000000156,-4.200701000974806476
0.364000000000000157,-4.205219716685002496
0.365000000000000158,-4.208791393010683279
0.366000000000000159,-4.211420535344349680
0.367000000000000159,-4.213111763642537255
0.368000000000000160,-4.213869863536536364
0.369000000000000161,-4.213699832864415740
0.370000000000000162,-4.212606923767597600
0.371000000000000163,-4.210596680501777378
0.372000000000000164,-4.207674973117063288
0.373000000000000165,-4.203848027166658063
0.374000000000000166,-4.199122449606498719
0.375000000000000167,-4.193505251050551941
0.376000000000000167,-4.187003864548134224
0.377000000000000168,-4.179626161050135735
0.378000000000000169,-4.171380461731083678
0.379000000000000170,-4.162275547333384118
0.380000000000000171,-4.152320664698729402
0.381000000000000172,-4.141525530649950326
0.382000000000000173,-4.129900333384219913
0.383000000000000174,-4.117455731536016295
0.384000000000000175,-4.104202851064906454
0.385000000000000175,-4.090153280119984913
0.386000000000000176,-4.075319062029057804
0.387000000000000177,-4.059712686556538941
0.388000000000000178,-4.043347079570115632
0.389000000000000179,-4.026235591251511536
0.390000000000000180,-4.008391982982504764
0.391000000000000181,-3.989830413032426915
0.392000000000000182,-3.970565421168815057
0.393000000000000183,-3.950611912307961937
0.394000000000000183,-3.929985139317358822
0.395000000000000184,-3.908700685077075576
0.396000000000000185,-3.886774443902290876
0.397000000000000186,-3.864222602424317365
0.398000000000000187,-3.841061620022673484
0.399000000000000188,-3.817308208895915378
0.400000000000000189,-3.792979313854290435
0.401000000000000190,-3.768092091912612407
0.402000000000000191,-3.742663891757239014
0.403000000000000191,-3.716712233156457934
0.404000000000000192,-3.690254786379411733
0.405000000000000193,-3.663309351684252757
0.406000000000000194,-3.635893838932219069
0.407000000000000195,-3.608026247380274221
0.408000000000000196,-3.579724645700980368
0.409000000000000197,-3.551007152274647805
0.410000000000000198,-3.521891915795084316
0.411000000000000199,-3.492397096226734110
0.412000000000000199,-3.462540846147749818
0.413000000000000200,-3.432341292510170838
0.414000000000000201,-3.401816518845403259
0.415000000000000202,-3.370984547940084841
0.416000000000000203,-3.339863325004781558
0.417000000000000204,-3.308470701355035626
0.418000000000000205,-3.276824418621914425
0.419000000000000206,-3.244942093506645531
0.420000000000000207,-3.212841203091593378
0.421000000000000207,-3.180539070717811612
0.422000000000000208,-3.148052852437031923
0.423000000000000209,-3.115399524044333734
0.424000000000000210,-3.082595868695645613
0.425000000000000211,-3.049658465112597749
0.426000000000000212,-3.016603676375690490
0.427000000000000213,-2.983447639305063070
0.428000000000000214,-2.950206254426954278
0.429000000000000214,-2.916895176522423583
0.430000000000000215,-2.883529805753835440
0.431000000000000216,-2.850125279363453945
0.432000000000000217,-2.816696463937380823
0.433000000000000218,-2.783257948227220613
0.434000000000000219,-2.749824036520940762
0.435000000000000220,-2.716408742553618083
0.436000000000000221,-2.683025783948004950
0.437000000000000222,-2.649688577174267756
0.438000000000000222,-2.616410233017621323
0.439000000000000223,-2.583203552542105097
0.440000000000000224,-2.550081023538262048
0.441000000000000225,-2.517054817442077042
0.442000000000000226,-2.484136786712304534
0.443000000000000227,-2.451338462652813632
0.444000000000000228,-2.418671053666591853
0.445000000000000229,-2.386145443927647047
0.446000000000000230,-2.353772192457010526
0.447000000000000230,-2.321561532588927168
0.448000000000000231,-2.289523371813235286
0.449000000000000232,-2.257667291979839952
0.450000000000000233,-2.226002549851356704
0.451000000000000234,-2.194538077989823588
0.452000000000000235,-2.163282485963621937
0.453000000000000236,-2.132244061860670392
0.454000000000000237,-2.101430774094261711
0.455000000000000238,-2.070850273487823578
0.456000000000000238,-2.040509895625246983
0.457000000000000239,-2.010416663453443498
0.458000000000000240,-1.980577290124128975
0.459000000000000241,-1.950998182061842057
0.460000000000000242,-1.921685442245712805
0.461000000000000243,-1.892644873692404417
0.462000000000000244,-1.863881983128232944
0.463000000000000245,-1.835401984838363365
0.464000000000000246,-1.807209804681653154
0.465000000000000246,-1.779310084259627001
0.466000000000000247,-1.751707185228573493
0.467000000000000248,-1.724405193743925979
0.468000000000000249,-1.697407925026484410
0.469000000000000250,-1.670718928040199724
0.470000000000000251,-1.644341490271673978
0.471000000000000252,-1.618278642601679751
0.472000000000000253,-1.592533164259518852
0.473000000000000254,-1.567107587851075845
0.474000000000000254,-1.542004204451953520
0.475000000000000255,-1.517225068757233508
0.476000000000000256,-1.492772004279783404
0.477000000000000257,-1.468646608589294633
0.478000000000000258,-1.444850258584518432
0.479000000000000259,-1.421384115791504366
0.480000000000000260,-1.398249131680898483
0.481000000000000261,-1.375446052997632229
0.482000000000000262,-1.352975427096672290
0.483000000000000262,-1.330837607278725132
0.484000000000000263,-1.309032758120058926
0.485000000000000264,-1.287560860790931905
0.486000000000000265,-1.266421718357322090
0.487000000000000266,-1.245614961060918846
0.488000000000000267,-1.225140051572613631
0.489000000000000268,-1.204996290214977561
0.490000000000000269,-1.185182820149387251
0.491000000000000270,-1.165698632523810785
0.492000000000000270,-1.146542571577362057
0.493000000000000271,-1.127713339698090511
0.494000000000000272,-1.109209502430568373
0.495000000000000273,-1.091029493430129227
0.496000000000000274,-1.073171619360809625
0.497000000000000275,-1.055634064734174205
0.498000000000000276,-1.038414896686516764
0.499000000000000277,-1.021512069692010583
0.500000000000000222,-1.004923430209600621
0.501000000000000334,-0.988646721261635775
0.502000000000000224,-0.972679586942384211
0.503000000000000336,-0.957019576854674314
0.504000000000000226,-0.941664150473237371
0.505000000000000338,-0.926610681433224004
0.506000000000000227,-0.911856461742814317
0.507000000000000339,-0.897398705918665884
0.508000000000000229,-0.883234555043370451
0.509000000000000341,-0.869361080743975334
0.510000000000000231,-0.855775289090983216
0.511000000000000343,-0.842474124417107340
0.512000000000000233,-0.829454473055418418
0.513000000000000345,-0.816713166996440143
0.514000000000000234,-0.804246987464031671
0.515000000000000346,-0.792052668409745531
0.516000000000000236,-0.780126899925764894
0.517000000000000348,-0.768466331576310724
0.518000000000000238,-0.757067575647726532
0.519000000000000350,-0.745927210317354539
0.520000000000000240,-0.735041782741535865
0.521000000000000352,-0.724407812063055268
0.522000000000000242,-0.714021792338430439
0.523000000000000353,-0.703880195385556240
0.524000000000000243,-0.693979473552211679
0.525000000000000355,-0.684316062406059245
0.526000000000000245,-0.674886383346777086
0.527000000000000357,-0.665686846141015809
0.528000000000000247,-0.656713851380974711
0.529000000000000359,-0.647963792867339072
0.530000000000000249,-0.639433059917476010
0.531000000000000361,-0.631118039599720904
0.532000000000000250,-0.623015118894707953
0.533000000000000362,-0.615120686784662807
0.534000000000000252,-0.607431136271640471
0.535000000000000364,-0.599942866325745561
0.536000000000000254,-0.592652283764330434
0.537000000000000366,-0.585555805063220469
0.538000000000000256,-0.578649858101105030
0.539000000000000368,-0.571930883838092541
0.540000000000000258,-0.565395337929642805
0.541000000000000369,-0.559039692276904421
0.542000000000000259,-0.552860436514682752
0.543000000000000371,-0.546854079438114260
0.544000000000000261,-0.541017150369258126
0.545000000000000373,-0.535346200464738575
0.546000000000000263,-0.529837803965629517
0.547000000000000375,-0.524488559390717923
0.548000000000000265,-0.519295090674400162
0.549000000000000377,-0.514254048250289642
0.550000000000000266,-0.509362110081801323
0.551000000000000378,-0.504615982640843286
0.552000000000000268,-0.500012401835802645
0.553000000000000380,-0.495548133890000575
0.554000000000000270,-0.491219976171790751
0.555000000000000382,-0.487024757977429945
0.556000000000000272,-0.482959341267940268
0.557000000000000384,-0.479020621361019305
0.558000000000000274,-0.475205527579248166
0.559000000000000385,-0.471511023855614997
0.560000000000000275,-0.467934109297575174
0.561000000000000387,-0.464471818710692208
0.562000000000000277,-0.461121223082975373
0.563000000000000389,-0.457879430031030488
0.564000000000000279,-0.454743584209057139
0.565000000000000391,-0.451710867681794970
0.566000000000000281,-0.448778500262431934
0.567000000000000393,-0.445943739816543894
0.568000000000000282,-0.443203882533078630
0.569000000000000394,-0.440556263163377093
0.570000000000000284,-0.437998255229242073
0.571000000000000396,-0.435527271201036015
0.572000000000000286,-0.433140762646774313
0.573000000000000398,-0.430836220353125576
0.574000000000000288,-0.428611174419303631
0.575000000000000400,-0.426463194324751993
0.576000000000000290,-0.424389888971490215
0.577000000000000401,-0.422388906702058253
0.578000000000000291,-0.420457935293891250
0.579000000000000403,-0.418594701930990076
0.580000000000000293,-0.416796973153726213
0.581000000000000405,-0.415062554787602789
0.582000000000000295,-0.413389291851762875
0.583000000000000407,-0.411775068448057113
0.584000000000000297,-0.410217807631403641
0.585000000000000409,-0.408715471262249941
0.586000000000000298,-0.407266059841812911
0.587000000000000410,-0.405867612330879535
0.588000000000000300,-0.404518205952825838
0.589000000000000412,-0.403215955981576779
0.590000000000000302,-0.401959015515156171
0.591000000000000414,-0.400745575235528784
0.592000000000000304,-0.399573863155314513
0.593000000000000416,-0.398442144352051553
0.594000000000000306,-0.397348720690610668
0.595000000000000417,-0.396291930534344916
0.596000000000000307,-0.395270148445552416
0.597000000000000419,-0.394281784875847252
0.598000000000000309,-0.393325285846974737
0.599000000000000421,-0.392399132622573865
0.600000000000000311,-0.391501841371484471
0.601000000000000423,-0.390631962823035361
0.602000000000000313,-0.389788081914850371
0.603000000000000425,-0.388968817433628322
0.604000000000000314,-0.388172821649397815
0.605000000000000426,-0.387398779943649296
0.606000000000000316,-0.386645410431836478
0.607000000000000428,-0.385911463580631386
0.608000000000000318,-0.385195721820387860
0.609000000000000430,-0.384496999153174257
0.610000000000000320,-0.383814140756796263
0.611000000000000432,-0.383146022585171719
0.612000000000000322,-0.382491550965419924
0.613000000000000433,-0.381849662192032646
0.614000000000000323,-0.381219322118455828
0.615000000000000435,-0.380599525746421474
0.616000000000000325,-0.379989296813331934
0.617000000000000437,-0.379387687378031746
0.618000000000000327,-0.378793777405247223
0.619000000000000439,-0.378206674348971705
0.620000000000000329,-0.377625512735103253
0.621000000000000441,-0.377049453743574514
0.622000000000000330,-0.376477684790242961
0.623000000000000442,-0.375909419108795217
0.624000000000000332,-0.375343895332880151
0.625000000000000444,-0.374780377078739957
0.626000000000000334,-0.374218152528512982
0.627000000000000446,-0.373656534014459196
0.628000000000000336,-0.373094857604282792
0.629000000000000448,-0.372532482687767841
0.630000000000000338,-0.371968791564892598
0.631000000000000449,-0.371403189035626191
0.632000000000000339,-0.370835101991548677
0.633000000000000451,-0.370263979009483934
0.634000000000000341,-0.369689289947279065
0.635000000000000453,-0.369110525541912871
0.636000000000000343,-0.368527197010013463
0.637000000000000455,-0.367938835651001606
0.638000000000000345,-0.367344992452912855
0.639000000000000457,-0.366745237701065263
0.640000000000000346,-0.366139160589674106
0.641000000000000458,-0.365526368836522342
0.642000000000000348,-0.364906488300791199
0.643000000000000460,-0.364279162604151718
0.644000000000000350,-0.363644052755203895
0.645000000000000462,-0.363000836777355673
0.646000000000000352,-0.362349209340217082
0.647000000000000464,-0.361688881394590933
0.648000000000000353,-0.361019579811134694
0.649000000000000465,-0.360341047022744110
0.650000000000000355,-0.359653040670744661
0.651000000000000467,-0.358955333254919684
0.652000000000000357,-0.358247711787463063
0.653000000000000469,-0.357529977450862790
0.654000000000000359,-0.356801945259806630
0.655000000000000471,-0.356063443727104467
0.656000000000000361,-0.355314314533705544
0.657000000000000473,-0.354554412202810698
0.658000000000000362,-0.353783603778133671
0.659000000000000474,-0.353001768506316260
0.660000000000000364,-0.352208797523544614
0.661000000000000476,-0.351404593546361110
0.662000000000000366,-0.350589070566703298
0.663000000000000478,-0.349762153551184451
