# ZnO10m10NBDry_CS-12229-AC
# h[nm],U(h)[kJ/mol]
0.200000000000000011,80.861664811670877384
0.201000000000000012,79.449101259284958587
0.202000000000000013,77.987925101044467624
0.203000000000000014,76.526009745240571647
0.204000000000000015,75.085734484917495024
0.205000000000000016,73.674737266439095151
0.206000000000000016,72.292840941012798339
0.207000000000000017,70.936350665223557144
0.208000000000000018,69.600580372338583857
0.209000000000000019,68.281215835664355041
0.210000000000000020,66.974938625920373170
0.211000000000000021,65.679602320447514785
0.212000000000000022,64.394156798828959154
0.213000000000000023,63.118448618890639068
0.214000000000000024,61.852977961202086021
0.215000000000000024,60.598659940041649463
0.216000000000000025,59.356616080096650023
0.217000000000000026,58.128007387020581120
0.218000000000000027,56.913911435365797331
0.219000000000000028,55.715240603836853950
0.220000000000000029,54.532695804100491443
0.221000000000000030,53.366748913513660568
0.222000000000000031,52.217647023573498188
0.223000000000000032,51.085432129338904872
0.224000000000000032,49.969970720413400045
0.225000000000000033,48.870988698923532922
0.226000000000000034,47.788108021635778755
0.227000000000000035,46.720882368352327774
0.228000000000000036,45.668829937248908379
0.229000000000000037,44.631462142865828469
0.230000000000000038,43.608307541791262452
0.231000000000000039,42.598930741533294508
0.232000000000000040,41.602946371648691581
0.233000000000000040,40.620028427288175976
0.234000000000000041,39.649915448970773468
0.235000000000000042,38.692412093149748387
0.236000000000000043,37.747387689329798377
0.237000000000000044,36.814772382964761732
0.238000000000000045,35.894551439253127967
0.239000000000000046,34.986758239753804389
0.240000000000000047,34.091466448386761101
0.241000000000000048,33.208781761382262232
0.242000000000000048,32.338833591356213049
0.243000000000000049,31.481766972116965064
0.244000000000000050,30.637734910352754980
0.245000000000000051,29.806891354565191676
0.246000000000000052,28.989384901481212609
0.247000000000000053,28.185353316190173700
0.248000000000000054,27.394918904564907081
0.249000000000000055,26.618184745014133341
0.250000000000000056,25.855231760967960497
0.251000000000000056,25.106116595280205672
0.252000000000000057,24.370870232421864898
0.253000000000000058,23.649497303382386093
0.254000000000000059,22.941976001016399778
0.255000000000000060,22.248258529617864099
0.256000000000000061,21.568272011235247732
0.257000000000000062,20.901919772167477873
0.258000000000000063,20.249082935747551915
0.259000000000000064,19.609622251525888004
0.260000000000000064,18.983380095951368105
0.261000000000000065,18.370182585308722167
0.262000000000000066,17.769841747739924642
0.263000000000000067,17.182157707439426275
0.264000000000000068,16.606920840384493232
0.265000000000000069,16.043913867098453352
0.266000000000000070,15.492913853834977544
0.267000000000000071,14.953694099126863648
0.268000000000000071,14.426025887805346670
0.269000000000000072,13.909680099322255131
0.270000000000000073,13.404428661475360940
0.271000000000000074,12.910045844437931351
0.272000000000000075,12.426309393328015318
0.273000000000000076,11.953001500435220805
0.274000000000000077,11.489909620669603640
0.275000000000000078,11.036827135834382574
0.276000000000000079,10.593553874979507512
0.277000000000000079,10.159896499395822289
0.278000000000000080,9.735668761794606496
0.279000000000000081,9.320691649913158017
0.280000000000000082,8.914793425229671442
0.281000000000000083,8.517809567688562566
0.282000000000000084,8.129582637362370079
0.283000000000000085,7.749962063836234094
0.284000000000000086,7.378803873821335735
0.285000000000000087,7.015970367111830974
0.286000000000000087,6.661329750514816794
0.287000000000000088,6.314755738827856568
0.288000000000000089,5.976127131330523312
0.289000000000000090,5.645327371611538858
0.290000000000000091,5.322244097886795977
0.291000000000000092,5.006768690286116374
0.292000000000000093,4.698795820911210619
0.293000000000000094,4.398223011801024818
0.294000000000000095,4.104950205292129617
0.295000000000000095,3.818879350636117387
0.296000000000000096,3.539914010139720180
0.297000000000000097,3.267958987528252202
0.298000000000000098,3.002919980703733671
0.299000000000000099,2.744703260575957149
0.300000000000000100,2.493215377190687754
0.301000000000000101,2.248362893962624565
0.302000000000000102,2.010052150444090913
0.303000000000000103,1.778189053720189650
0.304000000000000103,1.552678898219801873
0.305000000000000104,1.333426213464826038
0.306000000000000105,1.120334639048249814
0.307000000000000106,0.913306825932412636
0.308000000000000107,0.712244362990016366
0.309000000000000108,0.517047727571072202
0.310000000000000109,0.327616258765591695
0.311000000000000110,0.143848151944531683
0.312000000000000111,-0.034359526904857704
0.313000000000000111,-0.207110808576922961
0.314000000000000112,-0.374510771332904169
0.315000000000000113,-0.536665476436724020
0.316000000000000114,-0.693681890098804432
0.317000000000000115,-0.845667793366333798
0.318000000000000116,-0.992731681468214666
0.319000000000000117,-1.134982654082517417
0.320000000000000118,-1.272530297945515088
0.321000000000000119,-1.405484563165843026
0.322000000000000119,-1.533955634545556057
0.323000000000000120,-1.658053799143699880
0.324000000000000121,-1.777889311248722182
0.325000000000000122,-1.893572255853407382
0.326000000000000123,-2.005212411652395499
0.327000000000000124,-2.112919114507469054
0.328000000000000125,-2.216801122250980693
0.329000000000000126,-2.316966481623116358
0.330000000000000127,-2.413522398065316210
0.331000000000000127,-2.506575109020057646
0.332000000000000128,-2.596229761316975804
0.333000000000000129,-2.682590293157465222
0.334000000000000130,-2.765759321144087401
0.335000000000000131,-2.845838032738833956
0.336000000000000132,-2.922926084473856712
0.337000000000000133,-2.997121506181882555
0.338000000000000134,-3.068520611459775616
0.339000000000000135,-3.137217914527974383
0.340000000000000135,-3.203306053601829184
0.341000000000000136,-3.266875720846414310
0.342000000000000137,-3.328015598946026721
0.343000000000000138,-3.386812304281765051
0.344000000000000139,-3.443350336676499701
0.345000000000000140,-3.497712035634948702
0.346000000000000141,-3.549977542978342004
0.347000000000000142,-3.600224771747549291
0.348000000000000143,-3.648529381225980472
0.349000000000000143,-3.694964757913238973
0.350000000000000144,-3.739602002263148872
0.351000000000000145,-3.782509920984334251
0.352000000000000146,-3.823755024688885840
0.353000000000000147,-3.863401530663558070
0.354000000000000148,-3.901511370529404665
0.355000000000000149,-3.938144202548612416
0.356000000000000150,-3.973357428332280783
0.357000000000000151,-4.007206213699204156
0.358000000000000151,-4.039743513433687205
0.359000000000000152,-4.071020099689704352
0.360000000000000153,-4.101084593789304122
0.361000000000000154,-4.129983501164734783
0.362000000000000155,-4.157761249196623154
0.363000000000000156,-4.184460227704105861
0.364000000000000157,-4.210120831847239842
0.365000000000000158,-4.234781507207491913
0.366000000000000159,-4.258478796817572132
0.367000000000000159,-4.281247389918692470
0.368000000000000160,-4.303120172230004314
0.369000000000000161,-4.324128277522378383
0.370000000000000162,-4.344301140296371599
0.371000000000000163,-4.363666549372134718
0.372000000000000164,-4.382250702207175053
0.373000000000000165,-4.400078259766221578
0.374000000000000166,-4.417172401775959045
0.375000000000000167,-4.433554882205599235
0.376000000000000167,-4.449246084823218261
0.377000000000000168,-4.464265078685873078
0.378000000000000169,-4.478629673430165603
0.379000000000000170,-4.492356474238246911
0.380000000000000171,-4.505460936362458035
0.381000000000000172,-4.517957419099905891
0.382000000000000173,-4.529859239116196257
0.383000000000000174,-4.541178723025387498
0.384000000000000175,-4.551927259140622795
0.385000000000000175,-4.562115348317319352
0.386000000000000176,-4.571752653818010437
0.387000000000000177,-4.580848050134473937
0.388000000000000178,-4.589409670709875044
0.389000000000000179,-4.597444954509524173
0.390000000000000180,-4.604960691395377559
0.391000000000000181,-4.611963066265000855
0.392000000000000182,-4.618457701921387937
0.393000000000000183,-4.624449700645383743
0.394000000000000183,-4.629943684447434649
0.395000000000000184,-4.634943833980324612
0.396000000000000185,-4.639453926098898506
0.397000000000000186,-4.643477370057236264
0.398000000000000187,-4.647017242337713405
0.399000000000000188,-4.650076320110143158
0.400000000000000189,-4.652657113322684168
0.401000000000000190,-4.654761895429718521
0.402000000000000191,-4.656392732764718545
0.403000000000000191,-4.657551512569107821
0.404000000000000192,-4.658239969690819215
0.405000000000000193,-4.658459711968485628
0.406000000000000194,-4.658212244319656747
0.407000000000000195,-4.657498991553279843
0.408000000000000196,-4.656321319928633073
0.409000000000000197,-4.654680557484512704
0.410000000000000198,-4.652578013164058390
0.411000000000000199,-4.650014994761730414
0.412000000000000199,-4.646992825720426268
0.413000000000000200,-4.643512860807448739
0.414000000000000201,-4.639576500699166495
0.415000000000000202,-4.635185205504759764
0.416000000000000203,-4.630340507260241267
0.417000000000000204,-4.625044021424328911
0.418000000000000205,-4.619297457408197083
0.419000000000000206,-4.613102628171410480
0.420000000000000207,-4.606461458916490059
0.421000000000000207,-4.599375994914797872
0.422000000000000208,-4.591848408496193024
0.423000000000000209,-4.583881005235115325
0.424000000000000210,-4.575476229365428082
0.425000000000000211,-4.566636668456132142
0.426000000000000212,-4.557365057379984208
0.427000000000000213,-4.547664281606394354
0.428000000000000214,-4.537537379849931440
0.429000000000000214,-4.526987546105043947
0.430000000000000215,-4.516018131097308874
0.431000000000000216,-4.504632643180914719
0.432000000000000217,-4.492834748711528547
0.433000000000000218,-4.480628271923114525
0.434000000000000219,-4.468017194336669107
0.435000000000000220,-4.455005653728216330
0.436000000000000221,-4.441597942682632194
0.437000000000000222,-4.427798506759312858
0.438000000000000222,-4.413611942294922486
0.439000000000000223,-4.399042993867809059
0.440000000000000224,-4.384096551447862922
0.441000000000000225,-4.368777647254930230
0.442000000000000226,-4.353091452348199830
0.443000000000000227,-4.337043272968076124
0.444000000000000228,-4.320638546651561107
0.445000000000000229,-4.303882838141193545
0.446000000000000230,-4.286781835106955540
0.447000000000000230,-4.269341343699916358
0.448000000000000231,-4.251567283955481891
0.449000000000000232,-4.233465685063476869
0.450000000000000233,-4.215042680521676743
0.451000000000000234,-4.196304503188465596
0.452000000000000235,-4.177257480249890520
0.453000000000000236,-4.157908028115399723
0.454000000000000237,-4.138262647256214066
0.455000000000000238,-4.118327916999251492
0.456000000000000238,-4.098110490289237795
0.457000000000000239,-4.077617088430730341
0.458000000000000240,-4.056854495821357709
0.459000000000000241,-4.035829554686786835
0.460000000000000242,-4.014549159827586422
0.461000000000000243,-3.993020253387304486
0.462000000000000244,-3.971249819650812363
0.463000000000000245,-3.949244879881067760
0.464000000000000246,-3.927012487202402813
0.465000000000000246,-3.904559721537404382
0.466000000000000247,-3.881893684604405870
0.467000000000000248,-3.859021494981843325
0.468000000000000249,-3.835950283245421755
0.469000000000000250,-3.812687187183541049
0.470000000000000251,-3.789239347095983756
0.471000000000000252,-3.765613901180432599
0.472000000000000253,-3.741817981011192895
0.473000000000000254,-3.717858707113696148
0.474000000000000254,-3.693743184638494714
0.475000000000000255,-3.669478499137661665
0.476000000000000256,-3.645071712446473988
0.477000000000000257,-3.620529858672813184
0.478000000000000258,-3.595859940296359802
0.479000000000000259,-3.571068924379494636
0.480000000000000260,-3.546163738891432438
0.481000000000000261,-3.521151269146859164
0.482000000000000262,-3.496038354360140321
0.483000000000000262,-3.470831784315902446
0.484000000000000263,-3.445538296156475333
0.485000000000000264,-3.420164571286637312
0.486000000000000265,-3.394717232395735529
0.487000000000000266,-3.369202840597104398
0.488000000000000267,-3.343627892684609471
0.489000000000000268,-3.317998818505841996
0.490000000000000269,-3.292321978451378417
0.491000000000000270,-3.266603661059429786
0.492000000000000270,-3.240850080734905880
0.493000000000000271,-3.215067375581978748
0.494000000000000272,-3.189261605348955975
0.495000000000000273,-3.163438749484181578
0.496000000000000274,-3.137604705301692221
0.497000000000000275,-3.111765286255046448
0.498000000000000276,-3.085926220317885438
0.499000000000000277,-3.060093148469505753
0.500000000000000222,-3.034271623283754771
0.501000000000000334,-3.008467107619465786
0.502000000000000224,-2.982684973410578699
0.503000000000000336,-2.956930500554006080
0.504000000000000226,-2.931208875893358545
0.505000000000000338,-2.905525192296392945
0.506000000000000227,-2.879884447824310634
0.507000000000000339,-2.854291544990640084
0.508000000000000229,-2.828751290107742733
0.509000000000000341,-2.803268392718663460
0.510000000000000231,-2.777847465112353920
0.511000000000000343,-2.752493021919860894
0.512000000000000233,-2.727209479789509228
0.513000000000000345,-2.702001157138694154
0.514000000000000234,-2.676872273980305916
0.515000000000000346,-2.651826951821298017
0.516000000000000236,-2.626869213631493505
0.517000000000000348,-2.602002983880191245
0.518000000000000238,-2.577232088638585772
0.519000000000000350,-2.552560255745640383
0.520000000000000240,-2.527991115035393754
0.521000000000000352,-2.503528198623488077
0.522000000000000242,-2.479174941250792408
0.523000000000000353,-2.454934680682020698
0.524000000000000243,-2.430810658157251058
0.525000000000000355,-2.406806018894285248
0.526000000000000245,-2.382923812639829997
0.527000000000000357,-2.359166994267419604
0.528000000000000247,-2.335538424420195547
0.529000000000000359,-2.312040870196491404
0.530000000000000249,-2.288677005876374349
0.531000000000000361,-2.265449413687190550
0.532000000000000250,-2.242360584606317264
0.533000000000000362,-2.219412919199222234
0.534000000000000252,-2.196608728491099782
0.535000000000000364,-2.173950234870284604
0.536000000000000254,-2.151439573021781015
0.537000000000000366,-2.129078790889090023
0.538000000000000256,-2.106869850662886900
0.539000000000000368,-2.084814629794702334
0.540000000000000258,-2.062914922034273069
0.541000000000000369,-2.041172438488764396
0.542000000000000259,-2.019588808702629912
0.543000000000000371,-1.998165581756405018
0.544000000000000261,-1.976904227383170065
0.545000000000000373,-1.955806137101214759
0.546000000000000263,-1.934872625361599319
0.547000000000000375,-1.914104930709189745
0.548000000000000265,-1.893504216956102271
0.549000000000000377,-1.873071574366028669
0.550000000000000266,-1.852808020848523585
0.551000000000000378,-1.832714503161851471
0.552000000000000268,-1.812791898123422785
0.553000000000000380,-1.793041013826612851
0.554000000000000270,-1.773462590863005506
0.555000000000000382,-1.754057303548886448
0.556000000000000272,-1.734825761155207591
0.557000000000000384,-1.715768509139786291
0.558000000000000274,-1.696886030381128396
0.559000000000000385,-1.678178746412675837
0.560000000000000275,-1.659647018656877915
0.561000000000000387,-1.641291149658071991
0.562000000000000277,-1.623111384313485672
0.563000000000000389,-1.605107911101546936
0.564000000000000279,-1.587280863306794743
0.565000000000000391,-1.569630320240652299
0.566000000000000281,-1.552156308457423473
0.567000000000000393,-1.534858802964826463
0.568000000000000282,-1.517737728428512956
0.569000000000000394,-1.500792960369869089
0.570000000000000284,-1.484024326356666368
0.571000000000000396,-1.467431607185904596
0.572000000000000286,-1.451014538058454928
0.573000000000000398,-1.434772809744867761
0.574000000000000288,-1.418706069742033060
0.575000000000000400,-1.402813923420160425
0.576000000000000290,-1.387095935159692539
0.577000000000000401,-1.371551629477756107
0.578000000000000291,-1.356180492143792105
0.579000000000000403,-1.340981971283988106
0.580000000000000293,-1.325955478474235782
0.581000000000000405,-1.311100389821223899
0.582000000000000295,-1.296416047031500041
0.583000000000000407,-1.281901758468098951
0.584000000000000297,-1.267556800194589162
0.585000000000000409,-1.253380417006263681
0.586000000000000298,-1.239371823448277343
0.587000000000000410,-1.225530204820511226
0.588000000000000300,-1.211854718169029788
0.589000000000000412,-1.198344493263899135
0.590000000000000302,-1.184998633563293158
0.591000000000000414,-1.171816217163715867
0.592000000000000304,-1.158796297736221614
0.593000000000000416,-1.145937905448517702
0.594000000000000306,-1.133240047872922762
0.595000000000000417,-1.120701710880010138
0.596000000000000307,-1.108321859517948482
0.597000000000000419,-1.096099438877443877
0.598000000000000309,-1.084033374942279027
0.599000000000000421,-1.072122575425359159
0.600000000000000311,-1.060365930590337014
0.601000000000000423,-1.048762314058708789
0.602000000000000313,-1.037310583602483183
0.603000000000000425,-1.026009581922318059
0.604000000000000314,-1.014858137411304817
0.605000000000000426,-1.003855064904236150
0.606000000000000316,-0.992999166412586454
0.607000000000000428,-0.982289231845091981
0.608000000000000318,-0.971724039714120913
0.609000000000000430,-0.961302357827764964
0.610000000000000320,-0.951022943967849477
0.611000000000000432,-0.940884546553816259
0.612000000000000322,-0.930885905292667681
0.613000000000000433,-0.921025751814972926
0.614000000000000323,-0.911302810297099697
0.615000000000000435,-0.901715798069719243
0.616000000000000325,-0.892263426212720923
0.617000000000000437,-0.882944400136618790
0.618000000000000327,-0.873757420150614195
0.619000000000000439,-0.864701182017347136
0.620000000000000329,-0.855774377494556426
0.621000000000000441,-0.846975694863706829
0.622000000000000330,-0.838303819445736620
0.623000000000000442,-0.829757434104060998
0.624000000000000332,-0.821335219734961486
0.625000000000000444,-0.813035855745504188
0.626000000000000334,-0.804858020519133577
0.627000000000000446,-0.796800391869070479
0.628000000000000336,-0.788861647479681793
0.629000000000000448,-0.781040465335953948
0.630000000000000338,-0.773335524141240960
0.631000000000000449,-0.765745503723409326
0.632000000000000339,-0.758269085429567946
0.633000000000000451,-0.750904952509513945
0.634000000000000341,-0.743651790488064623
0.635000000000000453,-0.736508287526435046
0.636000000000000343,-0.729473134772795739
0.637000000000000455,-0.722545026702212878
0.638000000000000345,-0.715722661446104302
0.639000000000000457,-0.709004741111349146
0.640000000000000346,-0.702389972089285775
0.641000000000000458,-0.695877065354667756
0.642000000000000348,-0.689464736754823893
0.643000000000000460,-0.683151707289113785
0.644000000000000350,-0.676936703378900773
0.645000000000000462,-0.670818457128154022
0.646000000000000352,-0.664795706574880962
0.647000000000000464,-0.658867195933506844
0.648000000000000353,-0.653031675828435354
0.649000000000000465,-0.647287903518843466
0.650000000000000355,-0.641634643114984748
0.651000000000000467,-0.636070665786059863
0.652000000000000357,-0.630594749959899281
0.653000000000000469,-0.625205681514527933
0.654000000000000359,-0.619902253961859828
0.655000000000000471,-0.614683268623584578
0.656000000000000361,-0.609547534799490753
0.657000000000000473,-0.604493869928290462
0.658000000000000362,-0.599521099741183283
0.659000000000000474,-0.594628058408227633
0.660000000000000364,-0.589813588677749134
0.661000000000000476,-0.585076542008854839
0.662000000000000366,-0.580415778697266238
0.663000000000000478,-0.575830167994578535
