# ZnO10m10NBDry_CS-311940-AC
# h[nm],U(h)[kJ/mol]
0.149999999999999994,112.018468105336609142
0.150999999999999995,110.329746226850645030
0.151999999999999996,108.354751764151416182
0.152999999999999997,106.339784997943908706
0.153999999999999998,104.378881668849132325
0.154999999999999999,102.492626367509544139
0.156000000000000000,100.671523702683913370
0.157000000000000001,98.898158755715584789
0.158000000000000002,97.157159503444361803
0.159000000000000002,95.438535473303375056
0.160000000000000003,93.737735241560017130
0.161000000000000004,92.054343564850867665
0.162000000000000005,90.390454158033634258
0.163000000000000006,88.749220411515537421
0.164000000000000007,87.133778052659025093
0.165000000000000008,85.546566982246446287
0.166000000000000009,83.988998953094693434
0.167000000000000010,82.461387556442801383
0.168000000000000010,80.963054393648292262
0.169000000000000011,79.492536296001219398
0.170000000000000012,78.047834677346614285
0.171000000000000013,76.626664889857039498
0.172000000000000014,75.226678425448568532
0.173000000000000015,73.845642976548958814
0.174000000000000016,72.481574553236939096
0.175000000000000017,71.132822287491038082
0.176000000000000018,69.798110671070531907
0.177000000000000018,68.476546258969392511
0.178000000000000019,67.167596792488069468
0.179000000000000020,65.871050663450162688
0.180000000000000021,64.586963989913641626
0.181000000000000022,63.315601566347559981
0.182000000000000023,62.057376783139275744
0.183000000000000024,60.812794419726472483
0.184000000000000025,59.582399094357569425
0.185000000000000026,58.366731156931038527
0.186000000000000026,57.166290967806602907
0.187000000000000027,55.981511823651473492
0.188000000000000028,54.812741266692952991
0.189000000000000029,53.660230133161249455
0.190000000000000030,52.524128442412539641
0.191000000000000031,51.404487080328422621
0.192000000000000032,50.301264168993128578
0.193000000000000033,49.214335020295493450
0.194000000000000034,48.143504626734980434
0.195000000000000034,47.088521733274269820
0.196000000000000035,46.049093646880599806
0.197000000000000036,45.024901065044616644
0.198000000000000037,44.015612332847588561
0.199000000000000038,43.020896663802162152
0.200000000000000039,42.040435978161482922
0.201000000000000040,41.073935120563170642
0.202000000000000041,40.121130314825123264
0.203000000000000042,39.181795796480642480
0.204000000000000042,38.255748633007144122
0.205000000000000043,37.342851798018855902
0.206000000000000044,36.443015609701276958
0.207000000000000045,35.556197676495102655
0.208000000000000046,34.682401515673085157
0.209000000000000047,33.821674024273086445
0.210000000000000048,32.974101988137860531
0.211000000000000049,32.139807814826440335
0.212000000000000050,31.318944671086143217
0.213000000000000050,30.511691196508564872
0.214000000000000051,29.718245952919353670
0.215000000000000052,28.938821754850028611
0.216000000000000053,28.173640010865426575
0.217000000000000054,27.422925189218734232
0.218000000000000055,26.686899504816505413
0.219000000000000056,25.965777908235207150
0.220000000000000057,25.259763441884473423
0.221000000000000058,24.569043013630846417
0.222000000000000058,23.893783624465811499
0.223000000000000059,23.234129074263719872
0.224000000000000060,22.590197158402055777
0.225000000000000061,21.962077358047714881
0.226000000000000062,21.349829018246353485
0.227000000000000063,20.753480000558710117
0.228000000000000064,20.173025790816723202
0.229000000000000065,19.608429037552475904
0.230000000000000066,19.059619492706808330
0.231000000000000066,18.526494323259431241
0.232000000000000067,18.008918760348176846
0.233000000000000068,17.506727051164375553
0.234000000000000069,17.019723678330837657
0.235000000000000070,16.547684811496473856
0.236000000000000071,16.090359956429146848
0.237000000000000072,15.647473767871598938
0.238000000000000073,15.218727993768785822
0.239000000000000073,14.803803520105887515
0.240000000000000074,14.402362487449002160
0.241000000000000075,14.014050452298789651
0.242000000000000076,13.638498568497160690
0.243000000000000077,13.275325766122833215
0.244000000000000078,12.924140907534365397
0.245000000000000079,12.584544902433670188
0.246000000000000080,12.256132766001115897
0.247000000000000081,11.938495606269684757
0.248000000000000081,11.631222528942322114
0.249000000000000082,11.333902449796685374
0.250000000000000111,11.046125806653378731
0.251000000000000112,10.767486164599398890
0.252000000000000113,10.497581709750186008
0.253000000000000114,10.236016628301211284
0.254000000000000115,9.982402368958064542
0.255000000000000115,9.736358788046796775
0.256000000000000116,9.497515177693573563
0.257000000000000117,9.265511178428599948
0.258000000000000118,9.039997578418820012
0.259000000000000119,8.820637002270952820
0.260000000000000120,8.607104492977514454
0.261000000000000121,8.399087991110569362
0.262000000000000122,8.196288715805792435
0.263000000000000123,7.998421452431810685
0.264000000000000123,7.805214752111652388
0.265000000000000124,7.616411048462971678
0.266000000000000125,7.431766697056476190
0.267000000000000126,7.251051943165895963
0.268000000000000127,7.074050823402440180
0.269000000000000128,6.900561006799668107
0.270000000000000129,6.730393580845462687
0.271000000000000130,6.563372787852354229
0.272000000000000131,6.399335716920963257
0.273000000000000131,6.238131956588150118
0.274000000000000132,6.079623213066431830
0.275000000000000133,5.923682898777764549
0.276000000000000134,5.770195695667418079
0.277000000000000135,5.619057097555253399
0.278000000000000136,5.470172935545043025
0.279000000000000137,5.323458890271274946
0.280000000000000138,5.178839994518558143
0.281000000000000139,5.036250129504158402
0.282000000000000139,4.895631517871084526
0.283000000000000140,4.756934216198963838
0.284000000000000141,4.620115609604729556
0.285000000000000142,4.485139910775331806
0.286000000000000143,4.351977665552047014
0.287000000000000144,4.220605266971119818
0.288000000000000145,4.091004479458583809
0.289000000000000146,3.963161974680102340
0.290000000000000147,3.837068880358020628
0.291000000000000147,3.712720343189997774
0.292000000000000148,3.590115106834548264
0.293000000000000149,3.469255105770879144
0.294000000000000150,3.350145075691602248
0.295000000000000151,3.232792180948549365
0.296000000000000152,3.117205659443162524
0.297000000000000153,3.003396485233900570
0.298000000000000154,2.891377049023414081
0.299000000000000155,2.781160856587672647
0.300000000000000155,2.672762245117491720
0.301000000000000156,2.566196117359754059
0.302000000000000157,2.461477693370301090
0.303000000000000158,2.358622279623374673
0.304000000000000159,2.257645055162258441
0.305000000000000160,2.158560874423069542
0.306000000000000161,2.061384086317116449
0.307000000000000162,1.966128369117142283
0.308000000000000163,1.872806580658606945
0.309000000000000163,1.781430623338201569
0.310000000000000164,1.692011323368107556
0.311000000000000165,1.604558323725508107
0.312000000000000166,1.519079990222166998
0.313000000000000167,1.435583330108257227
0.314000000000000168,1.354073922617748504
0.315000000000000169,1.274555860859017065
0.316000000000000170,1.197031704453841661
0.317000000000000171,1.121502442330301719
0.318000000000000171,1.047967465079884919
0.319000000000000172,0.976424546295977080
0.320000000000000173,0.906869832320180591
0.321000000000000174,0.839297839833551329
0.322000000000000175,0.773701460742188041
0.323000000000000176,0.710071973820360802
0.324000000000000177,0.648399062589125164
0.325000000000000178,0.588670838924325035
0.326000000000000179,0.530873871904234629
0.327000000000000179,0.474993221424717837
0.328000000000000180,0.421012476127353263
0.329000000000000181,0.368913795204140083
0.330000000000000182,0.318677953661127666
0.331000000000000183,0.270284390641548078
0.332000000000000184,0.223711260428088032
0.333000000000000185,0.178935485762367369
0.334000000000000186,0.135932813138354008
0.335000000000000187,0.094677869744830362
0.336000000000000187,0.055144221750102765
0.337000000000000188,0.017304433640223583
0.338000000000000189,-0.018869871660807204
0.339000000000000190,-0.053407952143021208
0.340000000000000191,-0.086339885772079045
0.341000000000000192,-0.117696509481914097
0.342000000000000193,-0.147509358303752169
0.343000000000000194,-0.175810604821919458
0.344000000000000195,-0.202632999131646313
0.345000000000000195,-0.228009809460440221
0.346000000000000196,-0.251974763600362306
0.347000000000000197,-0.274561991285799389
0.348000000000000198,-0.295805967638640144
0.349000000000000199,-0.315741457790653324
0.350000000000000200,-0.334403462781645122
0.351000000000000201,-0.351827166820811388
0.352000000000000202,-0.368047885988485812
0.353000000000000203,-0.383101018445661912
0.354000000000000203,-0.397021996209316996
0.355000000000000204,-0.409846238542755981
0.356000000000000205,-0.421609107002024253
0.357000000000000206,-0.432345862171650164
0.358000000000000207,-0.442091622115484473
0.359000000000000208,-0.450881322561859588
0.360000000000000209,-0.458749678835750019
0.361000000000000210,-0.465731149544625744
0.362000000000000210,-0.471859902019333532
0.363000000000000211,-0.477169779506065317
0.364000000000000212,-0.481694270100882282
0.365000000000000213,-0.485466477413802888
0.366000000000000214,-0.488519092945566336
0.367000000000000215,-0.490884370156441208
0.368000000000000216,-0.492594100203290197
0.369000000000000217,-0.493679589317863710
0.370000000000000218,-0.494171637796853802
0.371000000000000218,-0.494100520571546742
0.372000000000000219,-0.493495969322998551
0.373000000000000220,-0.492387156106585899
0.374000000000000221,-0.490802678448210183
0.375000000000000222,-0.488770545872879658
0.376000000000000223,-0.486318167825380843
0.377000000000000224,-0.483472342941479727
0.378000000000000225,-0.480259249627410512
0.379000000000000226,-0.476704437904665046
0.380000000000000226,-0.472832822476719872
0.381000000000000227,-0.468668676973749476
0.382000000000000228,-0.464235629331457733
0.383000000000000229,-0.459556658259876016
0.384000000000000230,-0.454654090758048302
0.385000000000000231,-0.449549600630858137
0.386000000000000232,-0.444264207964216840
0.387000000000000233,-0.438818279515497900
0.388000000000000234,-0.433231529976275620
0.389000000000000234,-0.427523024065198487
0.390000000000000235,-0.421711179409183345
0.391000000000000236,-0.415813770171982178
0.392000000000000237,-0.409847931389721309
0.393000000000000238,-0.403830163973934286
0.394000000000000239,-0.397776340343256263
0.395000000000000240,-0.391701710645970258
0.396000000000000241,-0.385620909536366852
0.397000000000000242,-0.379547963468811977
0.398000000000000242,-0.373496298474462529
0.399000000000000243,-0.367478748386362186
0.400000000000000244,-0.361507563479764094
0.401000000000000245,-0.355594419495549097
0.402000000000000246,-0.349750427015417087
0.403000000000000247,-0.343986141158777126
0.404000000000000248,-0.338311571572129932
0.405000000000000249,-0.332736192682807130
0.406000000000000250,-0.327268954189892658
0.407000000000000250,-0.321918291766264242
0.408000000000000251,-0.316692137946556040
0.409000000000000252,-0.311597933176982034
0.410000000000000253,-0.306642637003812002
0.411000000000000254,-0.301832739378376957
0.412000000000000255,-0.297174272057332212
0.413000000000000256,-0.292672820077989393
0.414000000000000257,-0.288333533289251265
0.415000000000000258,-0.284161137919861750
0.416000000000000258,-0.280159948166290973
0.417000000000000259,-0.276333877783697335
0.418000000000000260,-0.272686451664089224
0.419000000000000261,-0.269220817386739086
0.420000000000000262,-0.265939756726673193
0.421000000000000263,-0.262845697107903120
0.422000000000000264,-0.259940722988731832
0.423000000000000265,-0.257226587167336873
0.424000000000000266,-0.254704721996543038
0.425000000000000266,-0.252376250497269861
0.426000000000000267,-0.250241997361026480
0.427000000000000268,-0.248302499832331186
0.428000000000000269,-0.246558018462635531
0.429000000000000270,-0.245008547727975895
0.430000000000000271,-0.243653826503092613
0.431000000000000272,-0.242493348385428131
0.432000000000000273,-0.241526371862883144
0.433000000000000274,-0.240751930319812818
0.434000000000000274,-0.240168841876210015
0.435000000000000275,-0.239775719055522835
0.436000000000000276,-0.239570978277060753
0.437000000000000277,-0.239552849169334336
0.438000000000000278,-0.239719383701152200
0.439000000000000279,-0.240068465127721231
0.440000000000000280,-0.240597816749329368
0.441000000000000281,-0.241305010480612980
0.442000000000000282,-0.242187475228826360
0.443000000000000282,-0.243242505079681953
0.444000000000000283,-0.244467267289927209
0.445000000000000284,-0.245858810085881452
0.446000000000000285,-0.247414070267563263
0.447000000000000286,-0.249129880618401606
0.448000000000000287,-0.251002977120538151
0.449000000000000288,-0.253030005976272065
0.450000000000000289,-0.255207530436179886
0.451000000000000290,-0.257532037434828165
0.452000000000000290,-0.259999944035134489
0.453000000000000291,-0.262607603682601387
0.454000000000000292,-0.265351312270913631
0.455000000000000293,-0.268227314020461349
0.456000000000000294,-0.271231807171579131
0.457000000000000295,-0.274360949494403927
0.458000000000000296,-0.277610863617402559
0.459000000000000297,-0.280977642176731546
0.460000000000000298,-0.284457352788736517
0.461000000000000298,-0.288046042847957817
0.462000000000000299,-0.291739744153173053
0.463000000000000300,-0.295534477364002457
0.464000000000000301,-0.299426256290796222
0.465000000000000302,-0.303411092020495154
0.466000000000000303,-0.307484996881269956
0.467000000000000304,-0.311643988248813564
0.468000000000000305,-0.315884092197156963
0.469000000000000306,-0.320201346996983383
0.470000000000000306,-0.324591806464437582
0.471000000000000307,-0.329051543163390747
0.472000000000000308,-0.333576651464283169
0.473000000000000309,-0.338163250462553577
0.474000000000000310,-0.342807486759739488
0.475000000000000311,-0.347505537110378071
0.476000000000000312,-0.352253610937751538
0.477000000000000313,-0.357047952721626816
0.478000000000000314,-0.361884844261021688
0.479000000000000314,-0.366760606815173751
0.480000000000000315,-0.371671603125695527
0.481000000000000316,-0.376614239323071309
0.482000000000000317,-0.381584966720474650
0.483000000000000318,-0.386580283497990118
0.484000000000000319,-0.391596736280209856
0.485000000000000320,-0.396630921610219178
0.486000000000000321,-0.401679487322913586
0.487000000000000322,-0.406739133820584076
0.488000000000000322,-0.411806615253630881
0.489000000000000323,-0.416878740609340159
0.490000000000000324,-0.421952374711490219
0.491000000000000325,-0.427024439133603717
0.492000000000000326,-0.432091913028584518
0.493000000000000327,-0.437151833877489016
0.494000000000000328,-0.442201298160053491
0.495000000000000329,-0.447237461949664517
0.496000000000000330,-0.452257541435293509
0.497000000000000330,-0.457258813373043971
0.498000000000000331,-0.462238615469670933
0.499000000000000332,-0.467194346700665952
0.500000000000000333,-0.472123467565247368
0.501000000000000334,-0.477023500280603474
0.502000000000000335,-0.481892028917769721
0.503000000000000336,-0.486726699481351222
0.504000000000000337,-0.491525219935358915
0.505000000000000338,-0.496285360177299406
0.506000000000000338,-0.501004951962676581
0.507000000000000339,-0.505681888781982503
0.508000000000000340,-0.510314125692179599
0.509000000000000341,-0.514899679104735886
0.510000000000000342,-0.519436626532064349
0.511000000000000343,-0.523923106294340468
0.512000000000000344,-0.528357317188486109
0.513000000000000345,-0.532737518121150444
0.514000000000000346,-0.537062027707471579
0.515000000000000346,-0.541329223837250906
0.516000000000000347,-0.545537543210273146
0.517000000000000348,-0.549685480842393992
0.518000000000000349,-0.553771589543905596
0.519000000000000350,-0.557794479371794827
0.520000000000000351,-0.561752817057314946
0.521000000000000352,-0.565645325410381594
0.522000000000000353,-0.569470782702121814
0.523000000000000353,-0.573228022027014505
0.524000000000000354,-0.576915930645897856
0.525000000000000355,-0.580533449311136929
0.526000000000000356,-0.584079571575187750
0.527000000000000357,-0.587553343083788149
0.528000000000000358,-0.590953860854895985
0.529000000000000359,-0.594280272544544630
0.530000000000000360,-0.597531775700665735
0.531000000000000361,-0.600707617005968086
0.532000000000000361,-0.603807091510868421
0.533000000000000362,-0.606829541857465626
0.534000000000000363,-0.609774357495493802
0.535000000000000364,-0.612640973891198870
0.536000000000000365,-0.615428871729976623
0.537000000000000366,-0.618137576113672371
0.538000000000000367,-0.620766655753292151
0.539000000000000368,-0.623315722158011676
0.540000000000000369,-0.625784428821120287
0.541000000000000369,-0.628172470403747796
0.542000000000000370,-0.630479581916959186
0.543000000000000371,-0.632705537902982562
0.544000000000000372,-0.634850151616154990
0.545000000000000373,-0.636913274204227386
0.546000000000000374,-0.638894793890610879
0.547000000000000375,-0.640794635158120518
0.548000000000000376,-0.642612757934790557
0.549000000000000377,-0.644349156782227483
0.550000000000000377,-0.646003860087039472
0.551000000000000378,-0.647576929255771372
0.552000000000000379,-0.649068457913831498
0.553000000000000380,-0.650478571108807579
0.554000000000000381,-0.651807424518570322
0.555000000000000382,-0.653055203664604900
0.556000000000000383,-0.654222123130836386
0.557000000000000384,-0.655308425788411641
0.558000000000000385,-0.656314382026644716
0.559000000000000385,-0.657240288990538768
0.560000000000000386,-0.658086469825100773
0.561000000000000387,-0.658853272926763767
0.562000000000000388,-0.659541071202145335
0.563000000000000389,-0.660150261334420341
0.564000000000000390,-0.660681263057482981
0.565000000000000391,-0.661134518438156960
0.566000000000000392,-0.661510491166612313
0.567000000000000393,-0.661809665855209728
0.568000000000000393,-0.662032547345883904
0.569000000000000394,-0.662179660026281036
0.570000000000000395,-0.662251547154765641
0.571000000000000396,-0.662248770194394432
0.572000000000000397,-0.662171908156064637
0.573000000000000398,-0.662021556950829981
0.574000000000000399,-0.661798328751583176
0.575000000000000400,-0.661502851364115685
0.576000000000000401,-0.661135767607663238
0.577000000000000401,-0.660697734705023465
0.578000000000000402,-0.660189423682251419
0.579000000000000403,-0.659611518777998729
0.580000000000000404,-0.658964716862582067
0.581000000000000405,-0.658249726866725116
0.582000000000000406,-0.657467269220072925
0.583000000000000407,-0.656618075299440607
0.584000000000000408,-0.655702886886844416
0.585000000000000409,-0.654722455637278822
0.586000000000000409,-0.653677542556246549
0.587000000000000410,-0.652568917487058919
0.588000000000000411,-0.651397358607814114
0.589000000000000412,-0.650163651938121534
0.590000000000000413,-0.648868590855449789
0.591000000000000414,-0.647512975621128528
0.592000000000000415,-0.646097612915941477
0.593000000000000416,-0.644623315385242091
0.594000000000000417,-0.643090901193572595
0.595000000000000417,-0.641501193588736474
0.596000000000000418,-0.639855020475200709
0.597000000000000419,-0.638153213996872859
0.598000000000000420,-0.636396610129063900
0.599000000000000421,-0.634586048279678572
0.600000000000000422,-0.632722370899472364
0.601000000000000423,-0.630806423101343716
0.602000000000000424,-0.628839052288576505
0.603000000000000425,-0.626821107791949661
0.604000000000000425,-0.624753440515600111
0.605000000000000426,-0.622636902591592323
0.606000000000000427,-0.620472347043107386
0.607000000000000428,-0.618260627456071465
0.608000000000000429,-0.616002597659296214
0.609000000000000430,-0.613699111412830955
0.610000000000000431,-0.611351022104625885
0.611000000000000432,-0.608959182455259151
0.612000000000000433,-0.606524444230695514
0.613000000000000433,-0.604047657962986428
0.614000000000000434,-0.601529672678764560
