# ZnO10m10NBDry_CS-110510-AC
# h[nm],U(h)[kJ/mol]
0.149999999999999994,117.021781666609555828
0.150999999999999995,115.826572055296225017
0.151999999999999996,113.704668424326797549
0.152999999999999997,111.372577761977396449
0.153999999999999998,109.116321162411310297
0.154999999999999999,107.008918965884845420
0.156000000000000000,105.032086305660726566
0.157000000000000001,103.139970136880648965
0.158000000000000002,101.289056187298683653
0.159000000000000002,99.449306504673529616
0.160000000000000003,97.605669913138058291
0.161000000000000004,95.755309685318280799
0.162000000000000005,93.903506742198487700
0.163000000000000006,92.059738698086093223
0.164000000000000007,90.234577192939582346
0.165000000000000008,88.437568344420242283
0.166000000000000009,86.676018190072994685
0.167000000000000010,84.954501671659699014
0.168000000000000010,83.274889218123604451
0.169000000000000011,81.636701318764238522
0.170000000000000012,80.037635688753937302
0.171000000000000013,78.474150495868329358
0.172000000000000014,76.942023586881546748
0.173000000000000015,75.436838462228962499
0.174000000000000016,73.954371871379336767
0.175000000000000017,72.490875547889075392
0.176000000000000018,71.043256591312200499
0.177000000000000018,69.609168383700335880
0.178000000000000019,68.187027766803211648
0.179000000000000020,66.775975468428839577
0.180000000000000021,65.375796269238009017
0.181000000000000022,63.986813798781170703
0.182000000000000023,62.609772642289598821
0.183000000000000024,61.245717993100512899
0.184000000000000025,59.895880652883121797
0.185000000000000026,58.561572926883648904
0.186000000000000026,57.244098979537625382
0.187000000000000027,55.944681551817687648
0.188000000000000028,54.664405604750598400
0.189000000000000029,53.404178429019182772
0.190000000000000030,52.164705019147220355
0.191000000000000031,50.946477015272975564
0.192000000000000032,49.749773225791798836
0.193000000000000033,48.574669620420323213
0.194000000000000034,47.421056688309974447
0.195000000000000034,46.288662156367394118
0.196000000000000035,45.177077230076740477
0.197000000000000036,44.085784728666830290
0.198000000000000037,43.014187718752772582
0.199000000000000038,41.961637490111172610
0.200000000000000039,40.927459952259077625
0.201000000000000040,39.910979752460079339
0.202000000000000041,38.911541618863417114
0.203000000000000042,37.928528613111410550
0.204000000000000042,36.961377133125537853
0.205000000000000043,36.009588638495259261
0.206000000000000044,35.072738178564783595
0.207000000000000045,34.150479888317903487
0.208000000000000046,33.242549681365758829
0.209000000000000047,32.348765414925239270
0.210000000000000048,31.469024830955060423
0.211000000000000049,30.603301592946955623
0.212000000000000050,29.751639741531466399
0.213000000000000050,28.914146886221168131
0.214000000000000051,28.090986437264369613
0.215000000000000052,27.282369162522115857
0.216000000000000053,26.488544331099717510
0.217000000000000054,25.709790679541374203
0.218000000000000055,24.946407408909696102
0.219000000000000056,24.198705393002462927
0.220000000000000057,23.466998750105503291
0.221000000000000058,22.751596903686490236
0.222000000000000058,22.052797231781788412
0.223000000000000059,21.370878380888722603
0.224000000000000060,20.706094298192937231
0.225000000000000061,20.058669016094576421
0.226000000000000062,19.428792205324395326
0.227000000000000063,18.816615497473890173
0.228000000000000064,18.222249564463332661
0.229000000000000065,17.645761931255947275
0.230000000000000066,17.087175488887712760
0.231000000000000066,16.546467667483369723
0.232000000000000067,16.023570223226272446
0.233000000000000068,15.518369589082407600
0.234000000000000069,15.030707736290491283
0.235000000000000070,14.560383492058164734
0.236000000000000071,14.107154258395436131
0.237000000000000072,13.670738077418473466
0.238000000000000073,13.250815989630705616
0.239000000000000073,12.847034633500877376
0.240000000000000074,12.459009036985806418
0.241000000000000075,12.086325554381717851
0.242000000000000076,11.728544904928748238
0.243000000000000077,11.385205272851147029
0.244000000000000078,11.055825431911662449
0.245000000000000079,10.739907861024091673
0.246000000000000080,10.436941820944310777
0.247000000000000081,10.146406365496281055
0.248000000000000081,9.867773264145274226
0.249000000000000082,9.600509815970394101
0.250000000000000111,9.344081538185566416
0.251000000000000112,9.097954715291516337
0.252000000000000113,8.861598797694181684
0.253000000000000114,8.634488641188642788
0.254000000000000115,8.416106581072398285
0.255000000000000115,8.205944336817708518
0.256000000000000116,8.003504745197144388
0.257000000000000117,7.808303321523943907
0.258000000000000118,7.619869650243363601
0.259000000000000119,7.437748607499161224
0.260000000000000120,7.261501419509140298
0.261000000000000121,7.090706561624294579
0.262000000000000122,6.924960503826904201
0.263000000000000123,6.763878309154800483
0.264000000000000123,6.607094092131964302
0.265000000000000124,6.454261344751373031
0.266000000000000125,6.305053137903984251
0.267000000000000126,6.159162206390307759
0.268000000000000127,6.016300925796482346
0.269000000000000128,5.876201189577271222
0.270000000000000129,5.738614194671817437
0.271000000000000130,5.603310143894411510
0.272000000000000131,5.470077873200436258
0.273000000000000131,5.338724411734931508
0.274000000000000132,5.209074482335775080
0.275000000000000133,5.080969949891866122
0.276000000000000134,4.954269224656007609
0.277000000000000135,4.828846627287910920
0.278000000000000136,4.704591722060204262
0.279000000000000137,4.581408624304928345
0.280000000000000138,4.459215287813699469
0.281000000000000139,4.337942777535479522
0.282000000000000139,4.217534532545573533
0.283000000000000140,4.097945623890555389
0.284000000000000141,3.979142011549662961
0.285000000000000142,3.861099804395482060
0.286000000000000143,3.743804526687865231
0.287000000000000144,3.627250394296630098
0.288000000000000145,3.511439603521483210
0.289000000000000146,3.396381635064199322
0.290000000000000147,3.282092575407353330
0.291000000000000147,3.168594457568716827
0.292000000000000148,3.055914622929010172
0.293000000000000149,2.944085105575541039
0.294000000000000150,2.833142040363578307
0.295000000000000151,2.723125095672454421
0.296000000000000152,2.614076931623710465
0.297000000000000153,2.506042684333850357
0.298000000000000154,2.399069476594422490
0.299000000000000155,2.293205955206625291
0.300000000000000155,2.188501855046049549
0.301000000000000156,2.085007589795308203
0.302000000000000157,1.982773869156985835
0.303000000000000158,1.881851342247011116
0.304000000000000159,1.782290266767527553
0.305000000000000160,1.684140203469087549
0.306000000000000161,1.587449735333040790
0.307000000000000162,1.492266210836201923
0.308000000000000163,1.398635510600781284
0.309000000000000163,1.306601836681971829
0.310000000000000164,1.216207523703544791
0.311000000000000165,1.127492871017350184
0.312000000000000166,1.040495995035296106
0.313000000000000167,0.955252700861700665
0.314000000000000168,0.871796372339280312
0.315000000000000169,0.790157879612893299
0.316000000000000170,0.710365503311114588
0.317000000000000171,0.632444874446324135
0.318000000000000171,0.556418929138758234
0.319000000000000172,0.482307877278186248
0.320000000000000173,0.410129184248939183
0.321000000000000174,0.339897564858569867
0.322000000000000175,0.271624988627770014
0.323000000000000176,0.205320695618823240
0.324000000000000177,0.140991222001355998
0.325000000000000178,0.078640434577532045
0.326000000000000179,0.018269573513146842
0.327000000000000179,-0.040122697452716551
0.328000000000000180,-0.096540234020436252
0.329000000000000181,-0.150989348238480758
0.330000000000000182,-0.203478739953243976
0.331000000000000183,-0.254019423417519430
0.332000000000000184,-0.302624649646192456
0.333000000000000185,-0.349309825079478942
0.334000000000000186,-0.394092427085576680
0.335000000000000187,-0.436991916806316660
0.336000000000000187,-0.478029649821753000
0.337000000000000188,-0.517228785081791376
0.338000000000000189,-0.554614192526439842
0.339000000000000190,-0.590212359789558438
0.340000000000000191,-0.624051298355184469
0.341000000000000192,-0.656160449510733490
0.342000000000000193,-0.686570590416585080
0.343000000000000194,-0.715313740588372271
0.344000000000000195,-0.742423069065011987
0.345000000000000195,-0.767932802514066037
0.346000000000000196,-0.791878134504324760
0.347000000000000197,-0.814295136155548605
0.348000000000000198,-0.835220668355682649
0.349000000000000199,-0.854692295717224604
0.350000000000000200,-0.872748202426823161
0.351000000000000201,-0.889427110125071030
0.352000000000000202,-0.904768197937533936
0.353000000000000203,-0.918811024762809736
0.354000000000000203,-0.931595453908953930
0.355000000000000204,-0.943161580155977952
0.356000000000000205,-0.953549659309377851
0.357000000000000206,-0.962800040297621118
0.358000000000000207,-0.970953099854955703
0.359000000000000208,-0.978049179820679626
0.360000000000000209,-0.984128527075893822
0.361000000000000210,-0.989231236129545222
0.362000000000000210,-0.993397194357172664
0.363000000000000211,-0.996666029887694593
0.364000000000000212,-0.999077062126391802
0.365000000000000213,-1.000669254895379723
0.366000000000000214,-1.001481172166831524
0.367000000000000215,-1.001550936358440280
0.368000000000000216,-1.000916189155662162
0.369000000000000217,-0.999614054820381126
0.370000000000000218,-0.997681105941755630
0.371000000000000218,-0.995153331580967304
0.372000000000000219,-0.992066107758517668
0.373000000000000220,-0.988454170229622675
0.374000000000000221,-0.984351589490759182
0.375000000000000222,-0.979791747958110193
0.376000000000000223,-0.974807319256979832
0.377000000000000224,-0.969430249559396495
0.378000000000000225,-0.963691740906042371
0.379000000000000226,-0.957622236447504327
0.380000000000000226,-0.951251407539222216
0.381000000000000227,-0.944608142623735048
0.382000000000000228,-0.937720537833812040
0.383000000000000229,-0.930615889249720718
0.384000000000000230,-0.923320686744002805
0.385000000000000231,-0.915860609347539212
0.386000000000000232,-0.908260522070832854
0.387000000000000233,-0.900544474115242521
0.388000000000000234,-0.892735698409367728
0.389000000000000234,-0.884856612406829002
0.390000000000000235,-0.876928820082339855
0.391000000000000236,-0.868973115064240131
0.392000000000000237,-0.861009484842535699
0.393000000000000238,-0.853057115992870818
0.394000000000000239,-0.845134400357927751
0.395000000000000240,-0.837258942129214256
0.396000000000000241,-0.829447565773461570
0.397000000000000242,-0.821716324749281357
0.398000000000000242,-0.814080510961256443
0.399000000000000243,-0.806554664899972407
0.400000000000000244,-0.799152586418100164
0.401000000000000245,-0.791887346094228506
0.402000000000000246,-0.784771297137431656
0.403000000000000247,-0.777816087787396637
0.404000000000000248,-0.771032674166280296
0.405000000000000249,-0.764431333540109836
0.406000000000000250,-0.758021677949021977
0.407000000000000250,-0.751812668167241793
0.408000000000000251,-0.745812627955152130
0.409000000000000252,-0.740029258567403314
0.410000000000000253,-0.734469653482394458
0.411000000000000254,-0.729140313320058353
0.412000000000000255,-0.724047160916207799
0.413000000000000256,-0.719195556523287705
0.414000000000000257,-0.714590313108563580
0.415000000000000258,-0.710235711722428387
0.416000000000000258,-0.706135516910588512
0.417000000000000259,-0.702292992145421846
0.418000000000000260,-0.698710915252953368
0.419000000000000261,-0.695391593813245557
0.420000000000000262,-0.692336880513137132
0.421000000000000263,-0.689548188431590603
0.422000000000000264,-0.687026506238873069
0.423000000000000265,-0.684772413292119797
0.424000000000000266,-0.682786094610856042
0.425000000000000266,-0.681067355716995726
0.426000000000000267,-0.679615637325072020
0.427000000000000268,-0.678430029869274476
0.428000000000000269,-0.677509287854900166
0.429000000000000270,-0.676851844022761662
0.430000000000000271,-0.676455823315925131
0.431000000000000272,-0.676319056639094418
0.432000000000000273,-0.676439094401690477
0.433000000000000274,-0.676813219836552293
0.434000000000000274,-0.677438462086901616
0.435000000000000275,-0.678311609054928821
0.436000000000000276,-0.679429220006131374
0.437000000000000277,-0.680787637924102240
0.438000000000000278,-0.682383001611194695
0.439000000000000279,-0.684211257531069150
0.440000000000000280,-0.686268171389690873
0.441000000000000281,-0.688549339451907549
0.442000000000000282,-0.691050199591354497
0.443000000000000282,-0.693766042071736311
0.444000000000000283,-0.696692020058269246
0.445000000000000284,-0.699823159858297461
0.446000000000000285,-0.703154370890613500
0.447000000000000286,-0.706680455383525863
0.448000000000000287,-0.710396117801827764
0.449000000000000288,-0.714295974003502976
0.450000000000000289,-0.718374560127081230
0.451000000000000290,-0.722626341211020096
0.452000000000000290,-0.727045719546769997
0.453000000000000291,-0.731627042767376112
0.454000000000000292,-0.736364611673864133
0.455000000000000293,-0.741252687801774779
0.456000000000000294,-0.746285500730516138
0.457000000000000295,-0.751457255138392677
0.458000000000000296,-0.756762137606346696
0.459000000000000297,-0.762194323173640553
0.460000000000000298,-0.767747981648893241
0.461000000000000298,-0.773417283679968093
0.462000000000000299,-0.779196406586452617
0.463000000000000300,-0.785079539958455586
0.464000000000000301,-0.791060891025715751
0.465000000000000302,-0.797134689800963137
0.466000000000000303,-0.803295194001690582
0.467000000000000304,-0.809536693754479564
0.468000000000000305,-0.815853516086142094
0.469000000000000306,-0.822240029205980050
0.470000000000000306,-0.828690646583546853
0.471000000000000307,-0.835199830826227840
0.472000000000000308,-0.841762097361173467
0.473000000000000309,-0.848372017925958288
0.474000000000000310,-0.855024223872451472
0.475000000000000311,-0.861713409288405785
0.476000000000000312,-0.868434333941213721
0.477000000000000313,-0.875181826048336164
0.478000000000000314,-0.881950784878833494
0.479000000000000314,-0.888736183190524387
0.480000000000000315,-0.895533069507120416
0.481000000000000316,-0.902336570239842928
0.482000000000000317,-0.909141891657814560
0.483000000000000318,-0.915944321711653964
0.484000000000000319,-0.922739231714530761
0.485000000000000320,-0.929522077884986642
0.486000000000000321,-0.936288402755743099
0.487000000000000322,-0.943033836452677576
0.488000000000000322,-0.949754097848080070
0.489000000000000323,-0.956444995592315328
0.490000000000000324,-0.963102429027874352
0.491000000000000325,-0.969722388989803563
0.492000000000000326,-0.976300958496401527
0.493000000000000327,-0.982834313334057574
0.494000000000000328,-0.989318722539991313
0.495000000000000329,-0.995750548786637379
0.496000000000000330,-1.002126248671288522
0.497000000000000330,-1.008442372914672314
0.498000000000000331,-1.014695566471852439
0.499000000000000332,-1.020882568559040138
0.500000000000000333,-1.027000212599630702
0.501000000000000334,-1.033045426092763730
0.502000000000000335,-1.039015230407719370
0.503000000000000336,-1.044906740507260512
0.504000000000000337,-1.050717164603073961
0.505000000000000338,-1.056443803746305976
0.506000000000000338,-1.062084051356188441
0.507000000000000339,-1.067635392689642471
0.508000000000000340,-1.073095404254649221
0.509000000000000341,-1.078461753170219417
0.510000000000000342,-1.083732196475547305
0.511000000000000343,-1.088904580391059751
0.512000000000000344,-1.093976839533835399
0.513000000000000345,-1.098946996089898542
0.514000000000000346,-1.103813158945844641
0.515000000000000346,-1.108573522782045240
0.516000000000000347,-1.113226367129794170
0.517000000000000348,-1.117770055394594841
0.518000000000000349,-1.122203033847682496
0.519000000000000350,-1.126523830587946584
0.520000000000000351,-1.130731054476203701
0.521000000000000352,-1.134823394043850353
0.522000000000000353,-1.138799616377707657
0.523000000000000353,-1.142658565982992425
0.524000000000000354,-1.146399163626118822
0.525000000000000355,-1.150020405159098758
0.526000000000000356,-1.153521360327160128
0.527000000000000357,-1.156901171561254715
0.528000000000000358,-1.160159052756938980
0.529000000000000359,-1.163294288041174518
0.530000000000000360,-1.166306230528463939
0.531000000000000361,-1.169194301067738140
0.532000000000000361,-1.171957986981322142
0.533000000000000362,-1.174596840797275776
0.534000000000000363,-1.177110478976343133
0.535000000000000364,-1.179498580634734228
0.536000000000000365,-1.181760886263840460
0.537000000000000366,-1.183897196448044475
0.538000000000000367,-1.185907370581607001
0.539000000000000368,-1.187791325585744406
0.540000000000000369,-1.189549034626755653
0.541000000000000369,-1.191180525836242010
0.542000000000000370,-1.192685881034198259
0.543000000000000371,-1.194065234455913060
0.544000000000000372,-1.195318771483453224
0.545000000000000373,-1.196446727382501241
0.546000000000000374,-1.197449386045295494
0.547000000000000375,-1.198327078740355711
0.548000000000000376,-1.199080182869714850
0.549000000000000377,-1.199709120734203882
0.550000000000000377,-1.200214358307481133
0.551000000000000378,-1.200596404019298680
0.552000000000000379,-1.200855807548609544
0.553000000000000380,-1.200993158626977975
0.554000000000000381,-1.201009085852775105
0.555000000000000382,-1.200904255516674013
0.556000000000000383,-1.200679370438749061
0.557000000000000384,-1.200335168817723286
0.558000000000000385,-1.199872423092593232
0.559000000000000385,-1.199291938817095726
0.560000000000000386,-1.198594553547266184
0.561000000000000387,-1.197781135742424397
0.562000000000000388,-1.196852583679840931
0.563000000000000389,-1.195809824383377684
0.564000000000000390,-1.194653812566291107
0.565000000000000391,-1.193385529588453897
0.566000000000000392,-1.192005982428159472
0.567000000000000393,-1.190516202668726820
0.568000000000000393,-1.188917245500002107
0.569000000000000394,-1.187210188734959093
0.570000000000000395,-1.185396131841508272
0.571000000000000396,-1.183476194989570240
0.572000000000000397,-1.181451518113607824
0.573000000000000398,-1.179323259990585182
0.574000000000000399,-1.177092597333505797
0.575000000000000400,-1.174760723900518444
0.576000000000000401,-1.172328849619650226
0.577000000000000401,-1.169798199729221722
0.578000000000000402,-1.167170013933891193
0.579000000000000403,-1.164445545576364260
0.580000000000000404,-1.161626060824793250
0.581000000000000405,-1.158712837875754520
0.582000000000000406,-1.155707166172865730
0.583000000000000407,-1.152610345640932232
0.584000000000000408,-1.149423685935619499
0.585000000000000409,-1.146148505708557863
0.586000000000000409,-1.142786131887818302
0.587000000000000410,-1.139337898973722618
0.588000000000000411,-1.135805148349816385
0.589000000000000412,-1.132189227609032400
0.590000000000000413,-1.128491489894821287
0.591000000000000414,-1.124713293257243674
0.592000000000000415,-1.120856000023871646
0.593000000000000416,-1.116920976185369785
0.594000000000000417,-1.112909590795658321
0.595000000000000417,-1.108823215386549599
0.596000000000000418,-1.104663223396645577
0.597000000000000419,-1.100430989614484822
0.598000000000000420,-1.096127889635661212
0.599000000000000421,-1.091755299333892371
0.600000000000000422,-1.087314594345804242
0.601000000000000423,-1.082807149569313010
0.602000000000000424,-1.078234338675459814
0.603000000000000425,-1.073597533633535717
0.604000000000000425,-1.068898104249292880
0.605000000000000426,-1.064137417716152223
0.606000000000000427,-1.059316838179211739
0.607000000000000428,-1.054437726311821200
0.608000000000000429,-1.049501438904716810
0.609000000000000430,-1.044509328467333908
0.610000000000000431,-1.039462742841331888
0.611000000000000432,-1.034363024826004285
0.612000000000000433,-1.029211511815468993
0.613000000000000433,-1.024009535447476305
0.614000000000000434,-1.018758421263615821
