# ZnO10m10NBDry_CS-13867413-AC
# h[nm],U(h)[kJ/mol]
0.149999999999999994,135.974912495533516221
0.150999999999999995,133.648594351633107635
0.151999999999999996,131.974812874364715753
0.152999999999999997,130.433819640517384641
0.153999999999999998,128.846019723663687273
0.154999999999999999,127.186329900646114766
0.156000000000000000,125.486181017965833462
0.157000000000000001,123.786283058063034446
0.158000000000000002,122.117437048589778215
0.159000000000000002,120.495783197363920181
0.160000000000000003,118.924626278525153111
0.161000000000000004,117.398533997697683162
0.162000000000000005,115.907539464815087626
0.163000000000000006,114.440512963862261131
0.164000000000000007,112.987442121222187552
0.165000000000000008,111.540695099518003985
0.166000000000000009,110.095480358916120167
0.167000000000000010,108.649747602023040827
0.168000000000000010,107.203751832038932434
0.169000000000000011,105.759457736390089622
0.170000000000000012,104.319912468496866609
0.171000000000000013,102.888670251957279334
0.172000000000000014,101.469315817479980524
0.173000000000000015,100.065106326399813952
0.174000000000000016,98.678732440901285372
0.175000000000000017,97.312187204899018411
0.176000000000000018,95.966724853776526061
0.177000000000000018,94.642889109436453055
0.178000000000000019,93.340590677129014807
0.179000000000000020,92.059215525720631490
0.180000000000000021,90.797748328403173446
0.181000000000000022,89.554898605746842577
0.182000000000000023,88.329220265237921694
0.183000000000000024,87.119218129698239750
0.184000000000000025,85.923437556446316421
0.185000000000000026,84.740535311865301082
0.186000000000000026,83.569331477149532361
0.187000000000000027,82.408843349300425984
0.188000000000000028,81.258303115500851277
0.189000000000000029,80.117161576716014793
0.190000000000000030,78.985080437798856678
0.191000000000000031,77.861915724001079298
0.192000000000000032,76.747694779677530619
0.193000000000000033,75.642589099275170383
0.194000000000000034,74.546884971154554478
0.195000000000000034,73.460953611810168695
0.196000000000000035,72.385222155261175203
0.197000000000000036,71.320146557364211048
0.198000000000000037,70.266187189957889814
0.199000000000000038,69.223787643183300133
0.200000000000000039,68.193357030661815088
0.201000000000000040,67.175255903359399667
0.202000000000000041,66.169785723790383258
0.203000000000000042,65.177181731106387019
0.204000000000000042,64.197608936962666348
0.205000000000000043,63.231160928632696994
0.206000000000000044,62.277861116105064809
0.207000000000000045,61.337666040223290054
0.208000000000000046,60.410470355774542384
0.209000000000000047,59.496113113464637934
0.210000000000000048,58.594384984882182721
0.211000000000000049,57.705036102133796305
0.212000000000000050,56.827784216448890220
0.213000000000000050,55.962322915692766401
0.214000000000000051,55.108329677702251104
0.215000000000000052,54.265473573309350286
0.216000000000000053,53.433422468769684599
0.217000000000000054,52.611849611246498171
0.218000000000000055,51.800439512428816613
0.219000000000000056,50.998893073889448146
0.220000000000000057,50.206931923176000510
0.221000000000000058,49.424301951786091536
0.222000000000000058,48.650776065105233670
0.223000000000000059,47.886156170185778080
0.224000000000000060,47.130274440067196906
0.225000000000000061,46.382993903392133461
0.226000000000000062,45.644208415588153116
0.227000000000000063,44.913842073118885878
0.228000000000000064,44.191848135520054086
0.229000000000000065,43.478207521384838685
0.230000000000000066,42.772926944406371774
0.231000000000000066,42.076036754262659656
0.232000000000000067,41.387588544769869259
0.233000000000000068,40.707652588542792671
0.234000000000000069,40.036315153577305637
0.235000000000000070,39.373675752880686218
0.236000000000000071,38.719844373671968185
0.237000000000000072,38.074938727888614665
0.238000000000000073,37.439081560881263044
0.239000000000000073,36.812398050351845313
0.240000000000000074,36.195013322868099692
0.241000000000000075,35.587050110739518516
0.242000000000000076,34.988626567711747839
0.243000000000000077,34.399854257870345009
0.244000000000000078,33.820836328368244494
0.245000000000000079,33.251665873121183381
0.246000000000000080,32.692424491466056224
0.247000000000000081,32.143181042946636694
0.248000000000000081,31.603990596883640762
0.249000000000000082,31.074893573189577012
0.250000000000000111,30.555915068995211925
0.251000000000000112,30.047064364049163032
0.252000000000000113,29.548334596518323281
0.253000000000000114,29.059702599738859163
0.254000000000000115,28.581128889623425238
0.255000000000000115,28.112557791803009621
0.256000000000000116,27.653917697150831145
0.257000000000000117,27.205121434080570708
0.258000000000000118,26.766066745914418590
0.259000000000000119,26.336636861657439113
0.260000000000000120,25.916701148676871469
0.261000000000000121,25.506115836051385770
0.262000000000000122,25.104724797709014439
0.263000000000000123,24.712360384900325272
0.264000000000000123,24.328844298039648208
0.265000000000000124,23.953988488481471109
0.266000000000000125,23.587596081368076284
0.267000000000000126,23.229462311279469588
0.268000000000000127,22.879375463026715209
0.269000000000000128,22.537117810548789265
0.270000000000000129,22.202466547491788162
0.271000000000000130,21.875194703662810269
0.272000000000000131,21.555072042153586409
0.273000000000000131,21.241865932515359816
0.274000000000000132,20.935342195934737219
0.275000000000000133,20.635265918904664773
0.276000000000000134,20.341402232404995232
0.277000000000000135,20.053517054100758799
0.278000000000000136,19.771377791530252210
0.279000000000000137,19.494754004691333904
0.280000000000000138,19.223418026839961925
0.281000000000000139,18.957145542690575724
0.282000000000000139,18.695716123553935972
0.283000000000000140,18.438913719264348856
0.284000000000000141,18.186527107035551865
0.285000000000000142,17.938350297643868458
0.286000000000000143,17.694182899569085521
0.287000000000000144,17.453830441929916617
0.288000000000000145,17.217104657231267595
0.289000000000000146,16.983823725098613266
0.290000000000000147,16.753812478309065170
0.291000000000000147,16.526902572543100689
0.292000000000000148,16.302932621374765176
0.293000000000000149,16.081748298094431959
0.294000000000000150,15.863202406016748469
0.295000000000000151,15.647154918969874871
0.296000000000000152,15.433472993690987352
0.297000000000000153,15.222030955868783408
0.298000000000000154,15.012710261577790760
0.299000000000000155,14.805399435842446110
0.300000000000000155,14.599993990052601234
0.301000000000000156,14.396396319927527330
0.302000000000000157,14.194515585692787596
0.303000000000000158,13.994267576095847261
0.304000000000000159,13.795574557841637997
0.305000000000000160,13.598365111979926922
0.306000000000000161,13.402573958723133174
0.307000000000000162,13.208141772116334778
0.308000000000000163,13.015014985922089608
0.309000000000000163,12.823145592021154116
0.310000000000000164,12.632490932567410624
0.311000000000000165,12.443013487071322487
0.312000000000000166,12.254680655522085075
0.313000000000000167,12.067464538593952739
0.314000000000000168,11.881341715918154023
0.315000000000000169,11.696293023338196093
0.316000000000000170,11.512303330003526014
0.317000000000000171,11.329361316095141632
0.318000000000000171,11.147459251916483680
0.319000000000000172,10.966592779024203708
0.320000000000000173,10.786760694016690465
0.321000000000000174,10.607964735543147228
0.322000000000000175,10.430209375042858611
0.323000000000000176,10.253501611673415894
0.324000000000000177,10.077850771837763233
0.325000000000000178,9.903268313673226686
0.326000000000000179,9.729767636821165411
0.327000000000000179,9.557363897753798909
0.328000000000000180,9.386073830894572367
0.329000000000000181,9.215915575730694087
0.330000000000000182,9.046908510080939436
0.331000000000000183,8.879073089648283457
0.332000000000000184,8.712430693955681704
0.333000000000000185,8.547003478734188420
0.334000000000000186,8.382814234805264775
0.335000000000000187,8.219886253474093962
0.336000000000000187,8.058243198427254228
0.337000000000000188,7.897908984106978281
0.338000000000000189,7.738907660514188436
0.339000000000000190,7.581263304374819434
0.340000000000000191,7.424999916587639248
0.341000000000000192,7.270141325856945613
0.342000000000000193,7.116711098400292812
0.343000000000000194,6.964732453609626006
0.344000000000000195,6.814228185533870885
0.345000000000000195,6.665220590041461612
0.346000000000000196,6.517731397513747638
0.347000000000000197,6.371781710913063002
0.348000000000000198,6.227391949063560972
0.349000000000000199,6.084581794978188185
0.350000000000000200,5.943370149061162344
0.351000000000000201,5.803775087012504663
0.352000000000000202,5.665813822258889410
0.353000000000000203,5.529502672733719315
0.354000000000000203,5.394857031828466987
0.355000000000000204,5.261891343337492088
0.356000000000000205,5.130619080218758121
0.357000000000000206,5.001052726993949094
0.358000000000000207,4.873203765613267180
0.359000000000000208,4.747082664611781411
0.360000000000000209,4.622698871386698549
0.361000000000000210,4.500060807427856524
0.362000000000000210,4.379175866336336931
0.363000000000000211,4.260050414469855440
0.364000000000000212,4.142689794056838792
0.365000000000000213,4.027098328625072554
0.366000000000000214,3.913279330594667815
0.367000000000000215,3.801235110889324087
0.368000000000000216,3.690966990423952154
0.369000000000000217,3.582475313331379141
0.370000000000000218,3.475759461794963645
0.371000000000000218,3.370817872358827572
0.372000000000000219,3.267648053591652335
0.373000000000000220,3.166246604984735313
0.374000000000000221,3.066609236969641383
0.375000000000000222,2.968730791945356717
0.376000000000000223,2.872605266209145025
0.377000000000000224,2.778225832690361052
0.378000000000000225,2.685584864390499149
0.379000000000000226,2.594673958437496708
0.380000000000000226,2.505483960666442300
0.381000000000000227,2.418004990643431107
0.382000000000000228,2.332226467053219565
0.383000000000000229,2.248137133375746277
0.384000000000000230,2.165725083780454252
0.385000000000000231,2.084977789171325924
0.386000000000000232,2.005882123319525867
0.387000000000000233,1.928424389024040453
0.388000000000000234,1.852590344244659848
0.389000000000000234,1.778365228154855870
0.390000000000000235,1.705733787065782492
0.391000000000000236,1.634680300175785250
0.392000000000000237,1.565188605103065900
0.393000000000000238,1.497242123162169758
0.394000000000000239,1.430823884348053632
0.395000000000000240,1.365916551994161177
0.396000000000000241,1.302502447073840663
0.397000000000000242,1.240563572117011848
0.398000000000000242,1.180081634716436678
0.399000000000000243,1.121038070600544501
0.400000000000000244,1.063414066251809231
0.401000000000000245,1.007190581052120004
0.402000000000000246,0.952348368938581991
0.403000000000000247,0.898867999555087005
0.404000000000000248,0.846729878887076071
0.405000000000000249,0.795914269368562466
0.406000000000000250,0.746401309452288553
0.407000000000000250,0.698171032635424571
0.408000000000000251,0.651203385934784995
0.409000000000000252,0.605478247807020198
0.410000000000000253,0.560975445510450199
0.411000000000000254,0.517674771906687203
0.412000000000000255,0.475556001701212483
0.413000000000000256,0.434598907123240952
0.414000000000000257,0.394783273046384386
0.415000000000000258,0.356088911552303267
0.416000000000000258,0.318495675940836054
0.417000000000000259,0.281983474190560079
0.418000000000000260,0.246532281874813325
0.419000000000000261,0.212122154538706642
0.420000000000000262,0.178733239543518302
0.421000000000000263,0.146345787385254000
0.422000000000000264,0.114940162494965664
0.423000000000000265,0.084496853528674976
0.424000000000000266,0.054996483155353285
0.425000000000000266,0.026419817351861229
0.426000000000000267,-0.001252225786068628
0.427000000000000268,-0.028038567707165906
0.428000000000000269,-0.053957961532510798
0.429000000000000270,-0.079028984637908820
0.430000000000000271,-0.103270031680398500
0.431000000000000272,-0.126699308058510318
0.432000000000000273,-0.149334823795556237
0.433000000000000274,-0.171194387835266332
0.434000000000000274,-0.192295602738888100
0.435000000000000275,-0.212655859772837630
0.436000000000000276,-0.232292334375955756
0.437000000000000277,-0.251221981995365884
0.438000000000000278,-0.269461534279935466
0.439000000000000279,-0.287027495620427842
0.440000000000000280,-0.303936140025352408
0.441000000000000281,-0.320203508321652563
0.442000000000000282,-0.335845405669493557
0.443000000000000282,-0.350877399380308486
0.444000000000000283,-0.365314817027623695
0.445000000000000284,-0.379172744840046039
0.446000000000000285,-0.392466026366073084
0.447000000000000286,-0.405209261400530152
0.448000000000000287,-0.417416805162413307
0.449000000000000288,-0.429102767714326039
0.450000000000000289,-0.440281013613595118
0.451000000000000290,-0.450965161785519153
0.452000000000000290,-0.461168585609314952
0.453000000000000291,-0.470904413207401340
0.454000000000000292,-0.480185527929054889
0.455000000000000293,-0.489024569019451683
0.456000000000000294,-0.497433932465420614
0.457000000000000295,-0.505425772009454932
0.458000000000000296,-0.513012000323549211
0.459000000000000297,-0.520204290334893571
0.460000000000000298,-0.527014076695403788
0.461000000000000298,-0.533452557387446125
0.462000000000000299,-0.539530695458235510
0.463000000000000300,-0.545259220875573325
0.464000000000000301,-0.550648632497883206
0.465000000000000302,-0.555709200151616511
0.466000000000000303,-0.560450966809313389
0.467000000000000304,-0.564883750861882694
0.468000000000000305,-0.569017148478736301
0.469000000000000306,-0.572860536049709435
0.470000000000000306,-0.576423072702924033
0.471000000000000307,-0.579713702892742710
0.472000000000000308,-0.582741159052426072
0.473000000000000309,-0.585513964306122681
0.474000000000000310,-0.588040435235000380
0.475000000000000311,-0.590328684692611905
0.476000000000000312,-0.592386624664696715
0.477000000000000313,-0.594221969168815090
0.478000000000000314,-0.595842237189341817
0.479000000000000314,-0.597254755643647606
0.480000000000000315,-0.598466662375265912
0.481000000000000316,-0.599484909170221125
0.482000000000000317,-0.600316264792648657
0.483000000000000318,-0.600967318036187637
0.484000000000000319,-0.601444480787609925
0.485000000000000320,-0.601753991099419516
0.486000000000000321,-0.601901916268260728
0.487000000000000322,-0.601894155916107176
0.488000000000000322,-0.601736445071301640
0.489000000000000323,-0.601434357246818818
0.490000000000000324,-0.600993307513020492
0.491000000000000325,-0.600418555562483691
0.492000000000000326,-0.599715208764504903
0.493000000000000327,-0.598888225207103275
0.494000000000000328,-0.597942416724308923
0.495000000000000329,-0.596882451906838196
0.496000000000000330,-0.595712859094138403
0.497000000000000330,-0.594438029346178620
0.498000000000000331,-0.593062219393084900
0.499000000000000332,-0.591589554561263831
0.500000000000000333,-0.590024031674399319
0.501000000000000334,-0.588369521927898709
0.502000000000000335,-0.586629773735640070
0.503000000000000336,-0.584808415547644955
0.504000000000000337,-0.582908958637675112
0.505000000000000338,-0.580934799859627038
0.506000000000000338,-0.578889224371803013
0.507000000000000339,-0.576775408328166317
0.508000000000000340,-0.574596421535715107
0.509000000000000341,-0.572355230077347565
0.510000000000000342,-0.570054698899380541
0.511000000000000343,-0.567697594363268609
0.512000000000000344,-0.565286586760842424
0.513000000000000345,-0.562824252792656687
0.514000000000000346,-0.560313078009022414
0.515000000000000346,-0.557755459213273519
0.516000000000000347,-0.555153706827004823
0.517000000000000348,-0.552510047217021460
0.518000000000000349,-0.549826624983696499
0.519000000000000350,-0.547105505210668808
0.520000000000000351,-0.544348675675612292
0.521000000000000352,-0.541558049022147658
0.522000000000000353,-0.538735464892673321
0.523000000000000353,-0.535882692022228491
0.524000000000000354,-0.533001430293366107
0.525000000000000355,-0.530093312752067503
0.526000000000000356,-0.527159907584822340
0.527000000000000357,-0.524202720056996196
0.528000000000000358,-0.521223194412592239
0.529000000000000359,-0.518222715735659367
0.530000000000000360,-0.515202611773444175
0.531000000000000361,-0.512164154721630460
0.532000000000000361,-0.509108562971830603
0.533000000000000362,-0.506037002821646431
0.534000000000000363,-0.502950590147561827
0.535000000000000364,-0.499850392041035874
0.536000000000000365,-0.496737428408036863
0.537000000000000366,-0.493612673532478230
0.538000000000000367,-0.490477057603782796
0.539000000000000368,-0.487331468209112273
0.540000000000000369,-0.484176751790496240
0.541000000000000369,-0.481013715067402869
0.542000000000000370,-0.477843126425029907
0.543000000000000371,-0.474665717268872800
0.544000000000000372,-0.471482183345904471
0.545000000000000373,-0.468293186032874231
0.546000000000000374,-0.465099353592133558
0.547000000000000375,-0.461901282395465240
0.548000000000000376,-0.458699538116397687
0.549000000000000377,-0.455494656891427763
0.550000000000000377,-0.452287146450697897
0.551000000000000378,-0.449077487218501492
0.552000000000000379,-0.445866133384228480
0.553000000000000380,-0.442653513944118449
0.554000000000000381,-0.439440033714364131
0.555000000000000382,-0.436226074316093893
0.556000000000000383,-0.433011995132595640
0.557000000000000384,-0.429798134239448182
0.558000000000000385,-0.426584809307869572
0.559000000000000385,-0.423372318481920640
0.560000000000000386,-0.420160941229971718
0.561000000000000387,-0.416950939170948831
0.562000000000000388,-0.413742556875810741
0.563000000000000389,-0.410536022644831466
0.564000000000000390,-0.407331549261053749
0.565000000000000391,-0.404129334720481848
0.566000000000000392,-0.400929562939445927
0.567000000000000393,-0.397732404439657961
0.568000000000000393,-0.394538017011354214
0.569000000000000394,-0.391346546355064606
0.570000000000000395,-0.388158126702461415
0.571000000000000396,-0.384972881416674240
0.572000000000000397,-0.381790923572654262
0.573000000000000398,-0.378612356517899873
0.574000000000000399,-0.375437274414108402
0.575000000000000400,-0.372265762760105867
0.576000000000000401,-0.369097898896523058
0.577000000000000401,-0.365933752492701214
0.578000000000000402,-0.362773386016149835
0.579000000000000403,-0.359616855185029394
0.580000000000000404,-0.356464209404135757
0.581000000000000405,-0.353315492184645308
0.582000000000000406,-0.350170741548191666
0.583000000000000407,-0.347029990415527956
0.584000000000000408,-0.343893266980266732
0.585000000000000409,-0.340760595068038241
0.586000000000000409,-0.337631994481427999
0.587000000000000410,-0.334507481331147660
0.588000000000000411,-0.331387068353672209
0.589000000000000412,-0.328270765215877502
0.590000000000000413,-0.325158578806852616
0.591000000000000414,-0.322050513517382120
0.592000000000000415,-0.318946571507369714
0.593000000000000416,-0.315846752961539079
0.594000000000000417,-0.312751056333756439
0.595000000000000417,-0.309659478580357139
0.596000000000000418,-0.306572015382637952
0.597000000000000419,-0.303488661359043399
0.598000000000000420,-0.300409410267134747
0.599000000000000421,-0.297334255195831620
0.600000000000000422,-0.294263188748091153
0.601000000000000423,-0.291196203214349969
0.602000000000000424,-0.288133290737063175
0.603000000000000425,-0.285074443466551697
0.604000000000000425,-0.282019653708438234
0.605000000000000426,-0.278968914062977025
0.606000000000000427,-0.275922217556533844
0.607000000000000428,-0.272879557765358605
0.608000000000000429,-0.269840928932136626
0.609000000000000430,-0.266806326075263445
0.610000000000000431,-0.263775745091357039
0.611000000000000432,-0.260749182851047701
0.612000000000000433,-0.257726637288353544
0.613000000000000433,-0.254708107483877844
0.614000000000000434,-0.251693593742001898
