# ZnO10m10NBDry_CHOL-AC
# h[nm],U(h)[kJ/mol]
0.200000000000000011,151.163086201982935108
0.201000000000000012,148.885443062925361346
0.202000000000000013,146.810737887831265880
0.203000000000000014,144.848106603522410296
0.204000000000000015,142.941865244749976682
0.205000000000000016,141.059969210133459683
0.206000000000000016,139.185792964540894445
0.207000000000000017,137.312369565493440859
0.208000000000000018,135.438434752790186621
0.209000000000000019,133.565779788854257504
0.210000000000000020,131.697540525789833055
0.211000000000000021,129.837145066603966370
0.212000000000000022,127.987715048366567316
0.213000000000000023,126.151770891000950314
0.214000000000000024,124.331133190683459588
0.215000000000000024,122.526943838532616837
0.216000000000000025,120.739753809536566109
0.217000000000000026,118.969641772009339320
0.218000000000000027,117.216340181886565119
0.219000000000000028,115.479354491180174591
0.220000000000000029,113.758067401245995143
0.221000000000000030,112.051824412140419440
0.222000000000000031,110.359999783294668418
0.223000000000000032,108.682043827677219383
0.224000000000000032,107.017513514246587647
0.225000000000000033,105.366088879207651985
0.226000000000000034,103.727577914574069951
0.227000000000000035,102.101912537280597348
0.228000000000000036,100.489138033842564823
0.229000000000000037,98.889398088674084875
0.230000000000000038,97.302917183444407101
0.231000000000000039,95.729981830525176179
0.232000000000000040,94.170921795174365343
0.233000000000000040,92.626092180335916737
0.234000000000000041,91.095857000966802275
0.235000000000000042,89.580574663914745770
0.236000000000000043,88.080585594226448620
0.237000000000000044,86.596202107346854859
0.238000000000000045,85.127700515948617976
0.239000000000000046,83.675315376571091974
0.240000000000000047,82.239235721119683831
0.241000000000000048,80.819603077929770052
0.242000000000000048,79.416511063061179243
0.243000000000000049,78.030006311601908919
0.244000000000000050,76.660090518199737630
0.245000000000000051,75.306723363335478894
0.246000000000000052,73.969826114899930758
0.247000000000000053,72.649285711656219178
0.248000000000000054,71.344959154695189341
0.249000000000000055,70.056678053842617260
0.250000000000000056,68.784253197209054065
0.251000000000000056,67.527479032963142913
0.252000000000000057,66.286137972414564956
0.253000000000000058,65.060004442227224786
0.254000000000000059,63.848848630781866120
0.255000000000000060,62.652439889219465385
0.256000000000000061,61.470549761444580383
0.257000000000000062,60.302954629346558590
0.258000000000000063,59.149437969745783050
0.259000000000000064,58.009792228174340778
0.260000000000000064,56.883820321656841656
0.261000000000000065,55.771336788294760822
0.262000000000000066,54.672168605803790342
0.263000000000000067,53.586155704351234874
0.264000000000000068,52.513151201221113240
0.265000000000000069,51.453021386133777071
0.266000000000000070,50.405645486593392945
0.267000000000000071,49.370915242545486024
0.268000000000000071,48.348734319013203731
0.269000000000000072,47.339017584342570899
0.270000000000000073,46.341690280314651318
0.271000000000000074,45.356687108759885518
0.272000000000000075,44.383951257503341026
0.273000000000000076,43.423433386546001600
0.274000000000000077,42.475090593395428584
0.275000000000000078,41.538885374446799403
0.276000000000000079,40.614784597319726345
0.277000000000000079,39.702758497104341018
0.278000000000000080,38.802779707594694969
0.279000000000000081,37.914822336797023183
0.280000000000000082,37.038861094319472045
0.281000000000000083,36.174870476680453635
0.282000000000000084,35.322824015128233555
0.283000000000000085,34.482693589243901044
0.284000000000000086,33.654448808404183069
0.285000000000000087,32.838056462114550982
0.286000000000000087,32.033480039274706996
0.287000000000000088,31.240679315611760813
0.288000000000000089,30.459610007801067866
0.289000000000000090,29.690223492186028409
0.290000000000000091,28.932466585500424827
0.291000000000000092,28.186281384580610165
0.292000000000000093,27.451605161724891957
0.293000000000000094,26.728370312105756312
0.294000000000000095,26.016504349459232515
0.295000000000000095,25.315929946157332608
0.296000000000000096,24.626565013709317498
0.297000000000000097,23.948322819725312627
0.298000000000000098,23.281112137408811691
0.299000000000000099,22.624837423713632489
0.300000000000000100,21.979399022403661945
0.301000000000000101,21.344693388380932220
0.302000000000000102,20.720613329800091407
0.303000000000000103,20.107048264653180070
0.304000000000000103,19.503884488692886379
0.305000000000000104,18.911005451752888717
0.306000000000000105,18.328292039723606877
0.307000000000000106,17.755622859644454081
0.308000000000000107,17.192874525578130118
0.309000000000000108,16.639921943136833704
0.310000000000000109,16.096638590730670160
0.311000000000000110,15.562896795807375838
0.312000000000000111,15.038568004542053558
0.313000000000000111,14.523523043622560635
0.314000000000000112,14.017632372952494535
0.315000000000000113,13.520766328263372102
0.316000000000000114,13.032795352787584164
0.317000000000000115,12.553590217295196751
0.318000000000000116,12.083022227938727156
0.319000000000000117,11.620963421482358058
0.320000000000000118,11.167286747614131315
0.321000000000000119,10.721866238151925188
0.322000000000000119,10.284577163057607052
0.323000000000000120,9.855296173267543480
0.324000000000000121,9.433901430431918200
0.325000000000000122,9.020272723731904918
0.326000000000000123,8.614291574011440744
0.327000000000000124,8.215841325519798843
0.328000000000000125,7.824807225613362505
0.329000000000000126,7.441076492810248411
0.330000000000000127,7.064538373628988843
0.331000000000000127,6.695084188675015646
0.332000000000000128,6.332607368464119091
0.333000000000000129,5.977003479492604576
0.334000000000000130,5.628170241079557101
0.335000000000000131,5.286007533516583479
0.336000000000000132,4.950417398067989971
0.337000000000000133,4.621304029365951749
0.338000000000000134,4.298573760744490713
0.339000000000000135,3.982135043052894563
0.340000000000000135,3.671898417480861099
0.341000000000000136,3.367776482919629277
0.342000000000000137,3.069683858370968466
0.343000000000000138,2.777537140903096446
0.344000000000000139,2.491254859636710783
0.345000000000000140,2.210757426228751488
0.346000000000000141,1.935967082303208908
0.347000000000000142,1.666807844260209892
0.348000000000000143,1.403205445874978530
0.349000000000000143,1.145087279078735421
0.350000000000000144,0.892382333293051055
0.351000000000000145,0.645021133669184898
0.352000000000000146,0.402935678562760635
0.353000000000000147,0.166059376554217847
0.354000000000000148,-0.065673016695369929
0.355000000000000149,-0.292325461483500137
0.356000000000000150,-0.513960696750641821
0.357000000000000151,-0.730640302179572210
0.358000000000000151,-0.942424759498261766
0.359000000000000152,-1.149373512793360863
0.360000000000000153,-1.351545027659548648
0.361000000000000154,-1.548996849026491374
0.362000000000000155,-1.741785657522789466
0.363000000000000156,-1.929967324251421035
0.364000000000000157,-2.113596963866778644
0.365000000000000158,-2.292728985858231816
0.366000000000000159,-2.467417143958181569
0.367000000000000159,-2.637714583606769914
0.368000000000000160,-2.803673887416803012
0.369000000000000161,-2.965347118594802378
0.370000000000000162,-3.122785862284894964
0.371000000000000163,-3.276041264812335818
0.372000000000000164,-3.425164070813366379
0.373000000000000165,-3.570204658246773022
0.374000000000000166,-3.711213071291196375
0.375000000000000167,-3.848239051139051181
0.376000000000000167,-3.981332064706033513
0.377000000000000168,-4.110541331280759714
0.378000000000000169,-4.235915847145269808
0.379000000000000170,-4.357504408202396817
0.380000000000000171,-4.475355630650916794
0.381000000000000172,-4.589517969753260651
0.382000000000000173,-4.700039736744821894
0.383000000000000174,-4.806969113936977678
0.384000000000000175,-4.910354168068858272
0.385000000000000175,-5.010242861965275019
0.386000000000000176,-5.106683064560852969
0.387000000000000177,-5.199722559351151574
0.388000000000000178,-5.289409051334154732
0.389000000000000179,-5.375790172505455544
0.390000000000000180,-5.458913485972058943
0.391000000000000181,-5.538826488749871046
0.392000000000000182,-5.615576613310002685
0.393000000000000183,-5.689211227939504845
0.394000000000000183,-5.759777635981436106
0.395000000000000184,-5.827323074019050253
0.396000000000000185,-5.891894709068141722
0.397000000000000186,-5.953539634840749883
0.398000000000000187,-6.012304867142729492
0.399000000000000188,-6.068237338466373032
0.400000000000000189,-6.121383891838052094
0.401000000000000190,-6.171791273979906123
0.402000000000000191,-6.219506127842700849
0.403000000000000191,-6.264574984565824955
0.404000000000000192,-6.307044254918773518
0.405000000000000193,-6.346960220276684161
0.406000000000000194,-6.384369023181044156
0.407000000000000195,-6.419316657534797521
0.408000000000000196,-6.451848958479304841
0.409000000000000197,-6.482011591998985800
0.410000000000000198,-6.509850044297612826
0.411000000000000199,-6.535409610988089923
0.412000000000000199,-6.558735386136467227
0.413000000000000200,-6.579872251198193744
0.414000000000000201,-6.598864863883631138
0.415000000000000202,-6.615757646987506568
0.416000000000000203,-6.630594777215419455
0.417000000000000204,-6.643420174038769055
0.418000000000000205,-6.654277488607592161
0.419000000000000206,-6.663210092749316971
0.420000000000000207,-6.670261068079430977
0.421000000000000207,-6.675473195248871505
0.422000000000000208,-6.678888943350743901
0.423000000000000209,-6.680550459508054928
0.424000000000000210,-6.680499558662137183
0.425000000000000211,-6.678777713580045017
0.426000000000000212,-6.675426045098066474
0.427000000000000213,-6.670485312616554197
0.428000000000000214,-6.663995904860499309
0.429000000000000214,-6.655997830918481739
0.430000000000000215,-6.646530711571661421
0.431000000000000216,-6.635633770923220709
0.432000000000000217,-6.623345828337329877
0.433000000000000218,-6.609705290695716329
0.434000000000000219,-6.594750144978934081
0.435000000000000220,-6.578517951178170620
0.436000000000000221,-6.561045835542598681
0.437000000000000222,-6.542370484166309730
0.438000000000000222,-6.522528136917921771
0.439000000000000223,-6.501554581715224046
0.440000000000000224,-6.479485149146270828
0.441000000000000225,-6.456354707437553131
0.442000000000000226,-6.432197657769481047
0.443000000000000227,-6.407047929938116226
0.444000000000000228,-6.380938978362189040
0.445000000000000229,-6.353903778433170224
0.446000000000000230,-6.325974823205937625
0.447000000000000230,-6.297184120427154141
0.448000000000000231,-6.267563189897608744
0.449000000000000232,-6.237143061164557523
0.450000000000000233,-6.205954271539811273
0.451000000000000234,-6.174026864438452833
0.452000000000000235,-6.141390388033300951
0.453000000000000236,-6.108073894219281819
0.454000000000000237,-6.074105937882207762
0.455000000000000238,-6.039514576465589535
0.456000000000000238,-6.004327369829251637
0.457000000000000239,-5.968571380393169257
0.458000000000000240,-5.932273173559742929
0.459000000000000241,-5.895458818407428581
0.460000000000000242,-5.858153888648873320
0.461000000000000243,-5.820383463845987038
0.462000000000000244,-5.782172130874950966
0.463000000000000245,-5.743543985633250415
0.464000000000000246,-5.704522634981720408
0.465000000000000246,-5.665131198913620381
0.466000000000000247,-5.625392312943272799
0.467000000000000248,-5.585328130706605165
0.468000000000000249,-5.544960326765925984
0.469000000000000250,-5.504310099611235962
0.470000000000000251,-5.463398174850487621
0.471000000000000252,-5.422244808581061726
0.472000000000000253,-5.380869790935113528
0.473000000000000254,-5.339292449790928430
0.474000000000000254,-5.297531654643166554
0.475000000000000255,-5.255605820624300151
0.476000000000000256,-5.213532912670139297
0.477000000000000257,-5.171330449822123754
0.478000000000000258,-5.129015509659188510
0.479000000000000259,-5.086604732852310740
0.480000000000000260,-5.044114327834667399
0.481000000000000261,-5.001560075580647080
0.482000000000000262,-4.958957334486994384
0.483000000000000262,-4.916321045349588026
0.484000000000000263,-4.873665736429204642
0.485000000000000264,-4.831005528600210042
0.486000000000000265,-4.788354140575775908
0.487000000000000266,-4.745724894203637412
0.488000000000000267,-4.703130719826532413
0.489000000000000268,-4.660584161701478045
0.490000000000000269,-4.618097383472266060
0.491000000000000270,-4.575682173689758159
0.492000000000000270,-4.533349951374517239
0.493000000000000271,-4.491111771616699500
0.494000000000000272,-4.448978331208122583
0.495000000000000273,-4.406959974301523530
0.496000000000000274,-4.365066698092416431
0.497000000000000275,-4.323308158518764266
0.498000000000000276,-4.281693675974150182
0.499000000000000277,-4.240232241030057025
0.500000000000000222,-4.198932520163038085
0.501000000000000334,-4.157802861482873702
0.502000000000000224,-4.116851300457740059
0.503000000000000336,-4.076085565632608265
0.504000000000000226,-4.035513084337420509
0.505000000000000338,-3.995140988381338243
0.506000000000000227,-3.954976119730018613
0.507000000000000339,-3.915025036162419703
0.508000000000000229,-3.875294016904317296
0.509000000000000341,-3.835789068235379684
0.510000000000000231,-3.796515929067260764
0.511000000000000343,-3.757480076489677856
0.512000000000000233,-3.718686731282264901
0.513000000000000345,-3.680140863389437467
0.514000000000000234,-3.641847197356327115
0.515000000000000346,-3.603810217723086851
0.516000000000000236,-3.566034174375997789
0.517000000000000348,-3.528523087852958096
0.518000000000000238,-3.491280754601842951
0.519000000000000350,-3.454310752189635902
0.520000000000000240,-3.417616444460923386
0.521000000000000352,-3.381200986644100848
0.522000000000000242,-3.345067330403789008
0.523000000000000353,-3.309218228838134657
0.524000000000000243,-3.273656241419722335
0.525000000000000355,-3.238383738878899187
0.526000000000000245,-3.203402908028447627
0.527000000000000357,-3.168715756528502236
0.528000000000000247,-3.134324117590941761
0.529000000000000359,-3.100229654622217002
0.530000000000000249,-3.066433865804030212
0.531000000000000361,-3.032938088611020877
0.532000000000000250,-2.999743504264951177
0.533000000000000362,-2.966851142124749874
0.534000000000000252,-2.934261884011981625
0.535000000000000364,-2.901976468471307857
0.536000000000000254,-2.869995494965656757
0.537000000000000366,-2.838319428005589895
0.538000000000000256,-2.806948601212978289
0.539000000000000368,-2.775883221318443894
0.540000000000000258,-2.745123372092775238
0.541000000000000369,-2.714669018211925522
0.542000000000000259,-2.684520009055911149
0.543000000000000371,-2.654676082441326024
0.544000000000000261,-2.625136868287756275
0.545000000000000373,-2.595901892218130946
0.546000000000000263,-2.566970579093227123
0.547000000000000375,-2.538342256480345949
0.548000000000000265,-2.510016158056772362
0.549000000000000377,-2.481991426947831592
0.550000000000000266,-2.454267119000284936
0.551000000000000378,-2.426842205991084800
0.552000000000000268,-2.399715578772060098
0.553000000000000380,-2.372886050350872633
0.554000000000000270,-2.346352358908711189
0.555000000000000382,-2.320113170755072396
0.556000000000000272,-2.294167083220376213
0.557000000000000384,-2.268512627486563460
0.558000000000000274,-2.243148271356615542
0.559000000000000385,-2.218072421963166896
0.560000000000000275,-2.193283428417121428
0.561000000000000387,-2.168779584396632210
0.562000000000000277,-2.144559130677169190
0.563000000000000389,-2.120620257603292647
0.564000000000000279,-2.096961107502778532
0.565000000000000391,-2.073579777043702332
0.566000000000000281,-2.050474319535255052
0.567000000000000393,-2.027642747172853976
0.568000000000000282,-2.005083033228390654
0.569000000000000394,-1.982793114186137462
0.570000000000000284,-1.960770891825217133
0.571000000000000396,-1.939014235249192142
0.572000000000000286,-1.917520982863676782
0.573000000000000398,-1.896288944302478185
0.574000000000000288,-1.875315902303246407
0.575000000000000400,-1.854599614533229968
0.576000000000000290,-1.834137815365920687
0.577000000000000401,-1.813928217609360072
0.578000000000000291,-1.793968514186847329
0.579000000000000403,-1.774256379770793313
0.580000000000000293,-1.754789472370529069
0.581000000000000405,-1.735565434874731583
0.582000000000000295,-1.716581896549371322
0.583000000000000407,-1.697836474491775771
0.584000000000000297,-1.679326775041674491
0.585000000000000409,-1.661050395149966219
0.586000000000000298,-1.643004923705926101
0.587000000000000410,-1.625187942823637766
0.588000000000000300,-1.607597029088397633
0.589000000000000412,-1.590229754763772485
0.590000000000000302,-1.573083688960148496
0.591000000000000414,-1.556156398765478066
0.592000000000000304,-1.539445450338893684
0.593000000000000416,-1.522948409967965766
0.594000000000000306,-1.506662845090387837
0.595000000000000417,-1.490586325280656821
0.596000000000000307,-1.474716423202597992
0.597000000000000419,-1.459050715528367625
0.598000000000000309,-1.443586783824675424
0.599000000000000421,-1.428322215406827356
0.600000000000000311,-1.413254604161427341
0.601000000000000423,-1.398381551338253814
0.602000000000000313,-1.383700666312116745
0.603000000000000425,-1.369209567315225140
0.604000000000000314,-1.354905882140908124
0.605000000000000426,-1.340787248819096833
0.606000000000000316,-1.326851316264438641
0.607000000000000428,-1.313095744897513795
0.608000000000000318,-1.299518207239896528
0.609000000000000430,-1.286116388483549589
0.610000000000000320,-1.272887987035328017
0.611000000000000432,-1.259830715037008719
0.612000000000000322,-1.246942298861587251
0.613000000000000433,-1.234220479586354724
0.614000000000000323,-1.221663013443329504
0.615000000000000435,-1.209267672247654080
0.616000000000000325,-1.197032243804454499
0.617000000000000437,-1.184954532294759666
0.618000000000000327,-1.173032358641038275
0.619000000000000439,-1.161263560852787702
0.620000000000000329,-1.149645994352826328
0.621000000000000441,-1.138177532284738280
0.622000000000000330,-1.126856065801952855
0.623000000000000442,-1.115679504339037953
0.624000000000000332,-1.104645775865606083
0.625000000000000444,-1.093752827123394722
0.626000000000000334,-1.082998623846950670
0.627000000000000446,-1.072381150968372054
0.628000000000000336,-1.061898412806609793
0.629000000000000448,-1.051548433241742631
0.630000000000000338,-1.041329255874672066
0.631000000000000449,-1.031238944172685246
0.632000000000000339,-1.021275581601261084
0.633000000000000451,-1.011437271742616328
0.634000000000000341,-1.001722138401308637
0.635000000000000453,-0.992128325697384961
0.636000000000000343,-0.982653998147367758
0.637000000000000455,-0.973297340733551453
0.638000000000000345,-0.964056558961964072
0.639000000000000457,-0.954929878909276164
0.640000000000000346,-0.945915547259190470
0.641000000000000458,-0.937011831328456113
0.642000000000000348,-0.928217019083054096
0.643000000000000460,-0.919529419144729743
0.644000000000000350,-0.910947360788300742
0.645000000000000462,-0.902469193930028668
0.646000000000000352,-0.894093289107382949
0.647000000000000464,-0.885818037450456730
0.648000000000000353,-0.877641850645466959
0.649000000000000465,-0.869563160890437947
0.650000000000000355,-0.861580420843558792
0.651000000000000467,-0.853692103564327454
0.652000000000000357,-0.845896702447904714
0.653000000000000469,-0.838192731152803683
0.654000000000000359,-0.830578723522312878
0.655000000000000471,-0.823053233499781101
0.656000000000000361,-0.815614835038152686
0.657000000000000473,-0.808262122003828187
0.658000000000000362,-0.800993708075282584
0.659000000000000474,-0.793808226636486536
0.660000000000000364,-0.786704330665510487
0.661000000000000476,-0.779680692618409887
0.662000000000000366,-0.772736004308693825
0.663000000000000478,-0.765868976782547839
