# ZnO10m10NBDry_GUANINEKETO
# h[nm],U(h)[kJ/mol]
0.200000000000000011,95.428176540475575962
0.201000000000000012,93.783507221903434470
0.202000000000000013,92.074954635519205226
0.203000000000000014,90.361460893520202831
0.204000000000000015,88.671846264782828939
0.205000000000000016,87.016957413067487437
0.206000000000000016,85.397673976340314539
0.207000000000000017,83.810020441251722900
0.208000000000000018,82.248288479805708562
0.209000000000000019,80.706820341424560183
0.210000000000000020,79.180915462845902653
0.211000000000000021,77.667183983303146988
0.212000000000000022,76.163569932258468498
0.213000000000000023,74.669194020911191956
0.214000000000000024,73.184114009109265453
0.215000000000000024,71.709064072030045622
0.216000000000000025,70.245209331739346226
0.217000000000000026,68.793934649801940395
0.218000000000000027,67.356675584886247066
0.219000000000000028,65.934792386900653582
0.220000000000000029,64.529483762025876104
0.221000000000000030,63.141734977731552192
0.222000000000000031,61.772294016318582521
0.223000000000000032,60.421669453678603645
0.224000000000000032,59.090144202435759269
0.225000000000000033,57.777799985195336774
0.226000000000000034,56.484548239872097497
0.227000000000000035,55.210164005208717697
0.228000000000000036,53.954320129581375909
0.229000000000000037,52.716619856017203460
0.230000000000000038,51.496626445430116803
0.231000000000000039,50.293889004992287539
0.232000000000000040,49.107964093547863627
0.233000000000000040,47.938432989782583604
0.234000000000000041,46.784914742527099918
0.235000000000000042,45.647075287937255439
0.236000000000000043,44.524633027044586697
0.237000000000000044,43.417361320238327949
0.238000000000000045,42.325088382466219628
0.239000000000000046,41.247695062927732579
0.240000000000000047,40.185110973105153676
0.241000000000000048,39.137309393242993849
0.242000000000000048,38.104301344807012697
0.243000000000000049,37.086129168986360582
0.244000000000000050,36.082859902019308151
0.245000000000000051,35.094578689323626008
0.246000000000000052,34.121382433786976662
0.247000000000000053,33.163373830262017350
0.248000000000000054,32.220655899056183102
0.249000000000000055,31.293327096402911991
0.250000000000000056,30.381477049693625503
0.251000000000000056,29.485182939585467210
0.252000000000000057,28.604506529787734337
0.253000000000000058,27.739491828083448155
0.254000000000000059,26.890163348606478166
0.255000000000000060,26.056524935189827374
0.256000000000000061,25.238559098323396057
0.257000000000000062,24.436226813517713197
0.258000000000000063,23.649467726280619218
0.259000000000000064,22.878200708118445306
0.260000000000000064,22.122324708641539104
0.261000000000000065,21.381719850687524342
0.262000000000000066,20.656248718103231710
0.263000000000000067,19.945757789219779710
0.264000000000000068,19.250078972905864561
0.265000000000000069,18.569031208221367990
0.266000000000000070,17.902422092973246492
0.267000000000000071,17.250049510775099293
0.268000000000000071,16.611703230437939283
0.269000000000000072,15.987166455594069348
0.270000000000000073,15.376217306321436240
0.271000000000000074,14.778630218150595965
0.272000000000000075,14.194177247169625034
0.273000000000000076,13.622629272979086323
0.274000000000000077,13.063757093978267676
0.275000000000000078,12.517332411886957999
0.276000000000000079,11.983128704529242725
0.277000000000000079,11.460921987735867233
0.278000000000000080,10.950491468777901360
0.279000000000000081,10.451620095038432368
0.280000000000000082,9.964095002684462798
0.281000000000000083,9.487707870934142917
0.282000000000000084,9.022255188148442073
0.283000000000000085,8.567538436429483539
0.284000000000000086,8.123364201700841392
0.285000000000000087,7.689544216399196053
0.286000000000000087,7.265895341937356200
0.287000000000000088,6.852239498026385434
0.288000000000000089,6.448403545783894408
0.289000000000000090,6.054219131321929126
0.290000000000000091,5.669522496216518270
0.291000000000000092,5.294154260921488664
0.292000000000000093,4.927959186816375237
0.293000000000000094,4.570785922179402938
0.294000000000000095,4.222486736962260068
0.295000000000000095,3.882917250819694743
0.296000000000000096,3.551936158423030232
0.297000000000000097,3.229404955665200028
0.298000000000000098,2.915187669953428262
0.299000000000000099,2.609150597385863080
0.300000000000000100,2.311162049225616411
0.301000000000000101,2.021092109720028507
0.302000000000000102,1.738812406969281854
0.303000000000000103,1.464195898224567305
0.304000000000000103,1.197116670696932283
0.305000000000000104,0.937449758680250156
0.306000000000000105,0.685070977538373427
0.307000000000000106,0.439856774876212941
0.308000000000000107,0.201684099006564560
0.309000000000000108,-0.029569715360528725
0.310000000000000109,-0.254027044443812022
0.311000000000000110,-0.471810056112718701
0.312000000000000111,-0.683040774510934923
0.313000000000000111,-0.887841129192064704
0.314000000000000112,-1.086332989466988197
0.315000000000000113,-1.278638184734718353
0.316000000000000114,-1.464878511626337865
0.317000000000000115,-1.645175728835425177
0.318000000000000116,-1.819651540540071055
0.319000000000000117,-1.988427569341691070
0.320000000000000118,-2.151625319655860125
0.321000000000000119,-2.309366132491486923
0.322000000000000119,-2.461771132547295515
0.323000000000000120,-2.608961168540209652
0.324000000000000121,-2.751056747660219237
0.325000000000000122,-2.888177965020075622
0.326000000000000123,-3.020444428938130255
0.327000000000000124,-3.147975182858525400
0.328000000000000125,-3.270888624676020928
0.329000000000000126,-3.389302424192983665
0.330000000000000127,-3.503333439394945348
0.331000000000000127,-3.613097632188407626
0.332000000000000128,-3.718709984201017171
0.333000000000000129,-3.820284413200545348
0.334000000000000130,-3.917933690644811229
0.335000000000000131,-4.011769360831702436
0.336000000000000132,-4.101901662074673993
0.337000000000000133,-4.188439450287622101
0.338000000000000134,-4.271490125321731668
0.339000000000000135,-4.351159560356902212
0.340000000000000135,-4.427552034612519449
0.341000000000000136,-4.500770169604988880
0.342000000000000137,-4.570914869144736770
0.343000000000000138,-4.638085263231618960
0.344000000000000139,-4.702378655976388266
0.345000000000000140,-4.763890477645848165
0.346000000000000141,-4.822714240901457394
0.347000000000000142,-4.878941501275011028
0.348000000000000143,-4.932661821900849120
0.349000000000000143,-4.983962742501555354
0.350000000000000144,-5.032929752603463314
0.351000000000000145,-5.079646268939392861
0.352000000000000146,-5.124193616978933719
0.353000000000000147,-5.166651016510916072
0.354000000000000148,-5.207095571188895988
0.355000000000000149,-5.245602261937995614
0.356000000000000150,-5.282243944110476264
0.357000000000000151,-5.317091348267891426
0.358000000000000151,-5.350213084459409352
0.359000000000000152,-5.381675649858829402
0.360000000000000153,-5.411543439617227946
0.361000000000000154,-5.439878760783090961
0.362000000000000155,-5.466741849138513132
0.363000000000000156,-5.492190888797049197
0.364000000000000157,-5.516282034407027801
0.365000000000000158,-5.539069435803432029
0.366000000000000159,-5.560605264950734927
0.367000000000000159,-5.580939745020000231
0.368000000000000160,-5.600121181444473351
0.369000000000000161,-5.618195994799526360
0.370000000000000162,-5.635208755355192167
0.371000000000000163,-5.651202219152116513
0.372000000000000164,-5.666217365454800259
0.373000000000000165,-5.680293435439613958
0.374000000000000166,-5.693467971978809494
0.375000000000000167,-5.705776860385652682
0.376000000000000167,-5.717254369990429019
0.377000000000000168,-5.727933196421334472
0.378000000000000169,-5.737844504469012286
0.379000000000000170,-5.747017971418308946
0.380000000000000171,-5.755481830735792670
0.381000000000000172,-5.763262916006398839
0.382000000000000173,-5.770386705017709339
0.383000000000000174,-5.776877363895481565
0.384000000000000175,-5.782757791198866570
0.385000000000000175,-5.788049661888953423
0.386000000000000176,-5.792773471089326165
0.387000000000000177,-5.796948577561920501
0.388000000000000178,-5.800593246826801774
0.389000000000000179,-5.803724693858775652
0.390000000000000180,-5.806359125298771851
0.391000000000000181,-5.808511781122403406
0.392000000000000182,-5.810196975712455192
0.393000000000000183,-5.811428138286560241
0.394000000000000183,-5.812217852635420456
0.395000000000000184,-5.812577896131065458
0.396000000000000185,-5.812519277968481113
0.397000000000000186,-5.812052276607841073
0.398000000000000187,-5.811186476388169098
0.399000000000000188,-5.809930803286767365
0.400000000000000189,-5.808293559801992245
0.401000000000000190,-5.806282458940433600
0.402000000000000191,-5.803904657292306979
0.403000000000000191,-5.801166787181896822
0.404000000000000192,-5.798074987882769982
0.405000000000000193,-5.794634935889806826
0.406000000000000194,-5.790851874242930464
0.407000000000000195,-5.786730640899393485
0.408000000000000196,-5.782275696153968525
0.409000000000000197,-5.777491149108212376
0.410000000000000198,-5.772380783192180509
0.411000000000000199,-5.766948080743371285
0.412000000000000199,-5.761196246649836539
0.413000000000000200,-5.755128231065519628
0.414000000000000201,-5.748746751207659322
0.415000000000000202,-5.742054312247142356
0.416000000000000203,-5.735053227304144130
0.417000000000000204,-5.727745636562387332
0.418000000000000205,-5.720133525516357231
0.419000000000000206,-5.712218742366808044
0.420000000000000207,-5.704003014580614206
0.421000000000000207,-5.695487964631927191
0.422000000000000208,-5.686675124941976023
0.423000000000000209,-5.677565952035775965
0.424000000000000210,-5.668161839934210633
0.425000000000000211,-5.658464132800481217
0.426000000000000212,-5.648474136860405892
0.427000000000000213,-5.638193131616053400
0.428000000000000214,-5.627622380372746314
0.429000000000000214,-5.616763140099390483
0.430000000000000215,-5.605616670642357136
0.431000000000000216,-5.594184243313168992
0.432000000000000217,-5.582467148870238205
0.433000000000000218,-5.570466704914868394
0.434000000000000219,-5.558184262721777458
0.435000000000000220,-5.545621213524181137
0.436000000000000221,-5.532778994273339634
0.437000000000000222,-5.519659092892377217
0.438000000000000222,-5.506263053043913835
0.439000000000000223,-5.492592478430895930
0.440000000000000224,-5.478649036649608561
0.441000000000000225,-5.464434462613735555
0.442000000000000226,-5.449950561568004836
0.443000000000000227,-5.435199211709443645
0.444000000000000228,-5.420182366434326049
0.445000000000000229,-5.404902056228086948
0.446000000000000230,-5.389360390215448327
0.447000000000000230,-5.373559557387499908
0.448000000000000231,-5.357501827522124671
0.449000000000000232,-5.341189551813647185
0.450000000000000233,-5.324625163227432623
0.451000000000000234,-5.307811176594464442
0.452000000000000235,-5.290750188460797254
0.453000000000000236,-5.273444876706030016
0.454000000000000237,-5.255897999944988186
0.455000000000000238,-5.238112396725889575
0.456000000000000238,-5.220090984538201972
0.457000000000000239,-5.201836758642857994
0.458000000000000240,-5.183352790737075111
0.459000000000000241,-5.164642227465560786
0.460000000000000242,-5.145708288789668572
0.461000000000000243,-5.126554266225377354
0.462000000000000244,-5.107183520960902889
0.463000000000000245,-5.087599481863885664
0.464000000000000246,-5.067805643388324732
0.465000000000000246,-5.047805563390426187
0.466000000000000247,-5.027602860862562473
0.467000000000000248,-5.007201213594014710
0.468000000000000249,-4.986604355766773189
0.469000000000000250,-4.965816075494424275
0.470000000000000251,-4.944840212311675032
0.471000000000000252,-4.923680654621734654
0.472000000000000253,-4.902341337108662600
0.473000000000000254,-4.880826238121001026
0.474000000000000254,-4.859139377033206308
0.475000000000000255,-4.837284811590673250
0.476000000000000256,-4.815266635244084270
0.477000000000000257,-4.793088974478424191
0.478000000000000258,-4.770755986141677951
0.479000000000000259,-4.748271854778055356
0.480000000000000260,-4.725640789970235289
0.481000000000000261,-4.702867023694826898
0.482000000000000262,-4.679954807695096086
0.483000000000000262,-4.656908410874716964
0.484000000000000263,-4.633732116715933991
0.485000000000000264,-4.610430220725567629
0.486000000000000265,-4.587007027911800705
0.487000000000000266,-4.563466850294590316
0.488000000000000267,-4.539814004452372487
0.489000000000000268,-4.516052809107481636
0.490000000000000269,-4.492187582752446673
0.491000000000000270,-4.468222641319336219
0.492000000000000270,-4.444162295893879566
0.493000000000000271,-4.420010850476202791
0.494000000000000272,-4.395772599789621538
0.495000000000000273,-4.371451827138897350
0.496000000000000274,-4.347052802319232079
0.497000000000000275,-4.322579779576996017
0.498000000000000276,-4.298036995623246703
0.499000000000000277,-4.273428667700804873
0.500000000000000222,-4.248758991705543053
0.501000000000000334,-4.224032140362574239
0.502000000000000224,-4.199252261457708357
0.503000000000000336,-4.174423476124559329
0.504000000000000226,-4.149549877187627800
0.505000000000000338,-4.124635527561379078
0.506000000000000227,-4.099684458705562307
0.507000000000000339,-4.074700669136591458
0.508000000000000229,-4.049688122995019235
0.509000000000000341,-4.024650748668790357
0.510000000000000231,-3.999592437472244022
0.511000000000000343,-3.974517042380273146
0.512000000000000233,-3.949428376817515129
0.513000000000000345,-3.924330213501939113
0.514000000000000234,-3.899226283342552613
0.515000000000000346,-3.874120274390395302
0.516000000000000236,-3.849015830842535735
0.517000000000000348,-3.823916552098168609
0.518000000000000238,-3.798825991866367158
0.519000000000000350,-3.773747657324543869
0.520000000000000240,-3.748685008327041324
0.521000000000000352,-3.723641456663017379
0.522000000000000242,-3.698620365362765394
0.523000000000000353,-3.673625048051687880
0.524000000000000243,-3.648658768351025206
0.525000000000000355,-3.623724739324464927
0.526000000000000245,-3.598826122969761343
0.527000000000000357,-3.573966029754340745
0.528000000000000247,-3.549147518194105455
0.529000000000000359,-3.524373594474335736
0.530000000000000249,-3.499647212111862249
0.531000000000000361,-3.474971271657428584
0.532000000000000250,-3.450348620437377001
0.533000000000000362,-3.425782052333575134
0.534000000000000252,-3.401274307600655966
0.535000000000000364,-3.376828072719590956
0.536000000000000254,-3.352445980286609117
0.537000000000000366,-3.328130608936371804
0.538000000000000256,-3.303884483298647812
0.539000000000000368,-3.279710073987211594
0.540000000000000258,-3.255609797620292678
0.541000000000000369,-3.231586016871307088
0.542000000000000259,-3.207641040549188638
0.543000000000000371,-3.183777123707101087
0.544000000000000261,-3.159996467778793949
0.545000000000000373,-3.136301220741513518
0.546000000000000263,-3.112693477304643075
0.547000000000000375,-3.089175279122993611
0.548000000000000265,-3.065748615034110447
0.549000000000000377,-3.042415421318331425
0.550000000000000266,-3.019177581981065561
0.551000000000000378,-2.996036929056129061
0.552000000000000268,-2.972995242929485027
0.553000000000000380,-2.950054252682390299
0.554000000000000270,-2.927215636453239789
0.555000000000000382,-2.904481021817134856
0.556000000000000272,-2.881851986182576653
0.557000000000000384,-2.859330057204227504
0.558000000000000274,-2.836916713211267815
0.559000000000000385,-2.814613383650265810
0.560000000000000275,-2.792421449542115575
0.561000000000000387,-2.770342243952075290
0.562000000000000277,-2.748377052472320337
0.563000000000000389,-2.726527113716270545
0.564000000000000279,-2.704793619824016560
0.565000000000000391,-2.683177716978154326
0.566000000000000281,-2.661680505929405971
0.567000000000000393,-2.640303042531348510
0.568000000000000282,-2.619046338283705921
0.569000000000000394,-2.597911360883461640
0.570000000000000284,-2.576899034783367348
0.571000000000000396,-2.556010241757115775
0.572000000000000286,-2.535245821470777816
0.573000000000000398,-2.514606572059759682
0.574000000000000288,-2.494093250710957221
0.575000000000000400,-2.473706574249451506
0.576000000000000290,-2.453447219729309126
0.577000000000000401,-2.433315825027967616
0.578000000000000291,-2.413312989443781031
0.579000000000000403,-2.393439274296209618
0.580000000000000293,-2.373695203528292552
0.581000000000000405,-2.354081264310852628
0.582000000000000295,-2.334597907648199744
0.583000000000000407,-2.315245548984731450
0.584000000000000297,-2.296024568812197852
0.585000000000000409,-2.276935313277182793
0.586000000000000298,-2.257978094788484213
0.587000000000000410,-2.239153192623978939
0.588000000000000300,-2.220460853536743606
0.589000000000000412,-2.201901292359980111
0.590000000000000302,-2.183474692610551493
0.591000000000000414,-2.165181207090774329
0.592000000000000304,-2.147020958488190523
0.593000000000000416,-2.128994039973012065
0.594000000000000306,-2.111100515793067789
0.595000000000000417,-2.093340421865881318
0.596000000000000307,-2.075713766367732749
0.597000000000000419,-2.058220530319411878
0.598000000000000309,-2.040860668168510195
0.599000000000000421,-2.023634108367928786
0.600000000000000311,-2.006540753950555089
0.601000000000000423,-1.989580483099752994
0.602000000000000313,-1.972753149715648080
0.603000000000000425,-1.956058583976856724
0.604000000000000314,-1.939496592897713700
0.605000000000000426,-1.923066960880591925
0.606000000000000316,-1.906769450263415155
0.607000000000000428,-1.890603801862010602
0.608000000000000318,-1.874569735507370938
0.609000000000000430,-1.858666950577498422
0.610000000000000320,-1.842895126523923066
0.611000000000000432,-1.827253923392594626
0.612000000000000322,-1.811742982339223262
0.613000000000000433,-1.796361926138825726
0.614000000000000323,-1.781110359689512368
0.615000000000000435,-1.765987870510346669
0.616000000000000325,-1.750994029233262195
0.617000000000000437,-1.736128390088929496
0.618000000000000327,-1.721390491386568300
0.619000000000000439,-1.706779855987550887
0.620000000000000329,-1.692295991772873931
0.621000000000000441,-1.677938392104352250
0.622000000000000330,-1.663706536279550452
0.623000000000000442,-1.649599889980388756
0.624000000000000332,-1.635617905715428311
0.625000000000000444,-1.621760023255767846
0.626000000000000334,-1.608025670064592516
0.627000000000000446,-1.594414261720278336
0.628000000000000336,-1.580925202333129054
0.629000000000000448,-1.567557884955669500
0.630000000000000338,-1.554311691986551613
0.631000000000000449,-1.541185995568004063
0.632000000000000339,-1.528180157976909204
0.633000000000000451,-1.515293532009448496
0.634000000000000341,-1.502525461359374148
0.635000000000000453,-1.489875280989897854
0.636000000000000343,-1.477342317499222180
0.637000000000000455,-1.464925889479727461
0.638000000000000345,-1.452625307870876403
0.639000000000000457,-1.440439876305771971
0.640000000000000346,-1.428368891451536449
0.641000000000000458,-1.416411643343384652
0.642000000000000348,-1.404567415712582257
0.643000000000000460,-1.392835486308177773
0.644000000000000350,-1.381215127212681137
0.645000000000000462,-1.369705605151611882
0.646000000000000352,-1.358306181797066303
0.647000000000000464,-1.347016114065227699
0.648000000000000353,-1.335834654408027955
0.649000000000000465,-1.324761051098799047
0.650000000000000355,-1.313794548512190907
0.651000000000000467,-1.302934387398195115
0.652000000000000357,-1.292179805150509120
0.653000000000000469,-1.281530036069130851
0.654000000000000359,-1.270984311617396445
0.655000000000000471,-1.260541860673359160
0.656000000000000361,-1.250201909775718878
0.657000000000000473,-1.239963683364213809
0.658000000000000362,-1.229826404014670249
0.659000000000000474,-1.219789292668648439
0.660000000000000364,-1.209851568857853055
0.661000000000000476,-1.200012450923261254
0.662000000000000366,-1.190271156229134153
0.663000000000000478,-1.180626901371887971
