# ZnO10m10NBDry_THYMINE
# h[nm],U(h)[kJ/mol]
0.200000000000000011,94.064288271676772979
0.201000000000000012,92.413969865769530543
0.202000000000000013,90.734695918017337135
0.203000000000000014,89.064436593267757303
0.204000000000000015,87.420900994024094643
0.205000000000000016,85.809858073170531156
0.206000000000000016,84.230595173441784596
0.207000000000000017,82.679380052500945908
0.208000000000000018,81.151554365974604366
0.209000000000000019,79.642709448057814825
0.210000000000000020,78.149264174220476775
0.211000000000000021,76.668668435463146693
0.212000000000000022,75.199385657048708254
0.213000000000000023,73.740757256119977114
0.214000000000000024,72.292815928175542695
0.215000000000000024,70.856089373163669620
0.216000000000000025,69.431418643051941331
0.217000000000000026,68.019803555048596877
0.218000000000000027,66.622279955870595813
0.219000000000000028,65.239828846474409829
0.220000000000000029,63.873314602868127565
0.221000000000000030,62.523448114439624135
0.222000000000000031,61.190770142780500862
0.223000000000000032,59.875650250674198105
0.224000000000000032,58.578297030940348122
0.225000000000000033,57.298775918951719177
0.226000000000000034,56.037031494452925529
0.227000000000000035,54.792911799403057671
0.228000000000000036,53.566192777456272722
0.229000000000000037,52.356601454668712847
0.230000000000000038,51.163836920100578709
0.231000000000000039,49.987588527579632114
0.232000000000000040,48.827551029668526894
0.233000000000000040,47.683436578542796269
0.234000000000000041,46.554983694259348681
0.235000000000000042,45.441963417486647359
0.236000000000000043,44.344182939702882607
0.237000000000000044,43.261487047085253721
0.238000000000000045,42.193757731931682997
0.239000000000000046,41.140912323687807373
0.240000000000000047,40.102900475766723787
0.241000000000000048,39.079700318743164189
0.242000000000000048,38.071314058732610874
0.243000000000000049,37.077763264665883014
0.244000000000000050,36.099084051935435014
0.245000000000000051,35.135322334158992419
0.246000000000000052,34.186529280781009277
0.247000000000000053,33.252757086716584922
0.248000000000000054,32.334055131755441437
0.249000000000000055,31.430466582255938590
0.250000000000000056,30.542025465860852762
0.251000000000000056,29.668754231508820851
0.252000000000000057,28.810661791748497507
0.253000000000000058,27.967742032070663782
0.254000000000000059,27.139972762391789018
0.255000000000000060,26.327315078669698778
0.256000000000000061,25.529713097609295858
0.257000000000000062,24.747094024236229615
0.258000000000000063,23.979368510495945088
0.259000000000000064,23.226431262712640802
0.260000000000000064,22.488161856474246036
0.261000000000000065,21.764425719078193566
0.262000000000000066,21.055075241878110859
0.263000000000000067,20.359950987549254364
0.264000000000000068,19.678882960285143611
0.265000000000000069,19.011691910127883176
0.266000000000000070,18.358190645912507932
0.267000000000000071,17.718185334584322987
0.268000000000000071,17.091476767857948005
0.269000000000000072,16.477861580272392672
0.270000000000000073,15.877133405616021378
0.271000000000000074,15.289083961418736379
0.272000000000000075,14.713504053714995479
0.273000000000000076,14.150184496558750880
0.274000000000000077,13.598916942814351927
0.275000000000000078,13.059494624556000630
0.276000000000000079,12.531713002988599470
0.277000000000000079,12.015370329160274920
0.278000000000000080,11.510268117887383355
0.279000000000000081,11.016211538263631198
0.280000000000000082,10.533009724895970649
0.281000000000000083,10.060476014612024898
0.282000000000000084,9.598428113835806741
0.283000000000000085,9.146688202143803181
0.284000000000000086,8.705082977707951031
0.285000000000000087,8.273443650421780760
0.286000000000000087,7.851605888502848352
0.287000000000000088,7.439409724283587266
0.288000000000000089,7.036699424756134746
0.289000000000000090,6.643323332234527534
0.290000000000000091,6.259133680253283316
0.291000000000000092,5.883986389540557305
0.292000000000000093,5.517740848599076209
0.293000000000000094,5.160259683103944894
0.294000000000000095,4.811408517991329070
0.295000000000000095,4.471055735770563366
0.296000000000000096,4.139072234251452542
0.297000000000000097,3.815331186540326769
0.298000000000000098,3.499707805828711660
0.299000000000000099,3.192079117178340031
0.300000000000000100,2.892323738199953365
0.301000000000000101,2.600321670230852256
0.302000000000000102,2.315954101341322513
0.303000000000000103,2.039103222240796320
0.304000000000000103,1.769652055915553746
0.305000000000000104,1.507484301607241894
0.306000000000000105,1.252484193538650814
0.307000000000000106,1.004536374608533844
0.308000000000000107,0.763525785110435895
0.309000000000000108,0.529337566381872793
0.310000000000000109,0.301856979157724137
0.311000000000000110,0.080969336287039437
0.312000000000000111,-0.133440050628793078
0.313000000000000111,-0.341485911202925319
0.314000000000000112,-0.543283043433686830
0.315000000000000113,-0.738946328736217906
0.316000000000000114,-0.928590735539463474
0.317000000000000115,-1.112331312188601373
0.318000000000000116,-1.290283169919163697
0.319000000000000117,-1.462561456685767869
0.320000000000000118,-1.629281322636887186
0.321000000000000119,-1.790557878028555150
0.322000000000000119,-1.946506144364230861
0.323000000000000120,-2.097240999536763351
0.324000000000000121,-2.242877117732647640
0.325000000000000122,-2.383528904837556084
0.326000000000000123,-2.519310430058099293
0.327000000000000124,-2.650335354447125980
0.328000000000000125,-2.776716856989993154
0.329000000000000126,-2.898567558876871342
0.330000000000000127,-3.015999446552617425
0.331000000000000127,-3.129123794100819644
0.332000000000000128,-3.238051085482893221
0.333000000000000129,-3.342890937117199535
0.334000000000000130,-3.443752021246631934
0.335000000000000131,-3.540741990507617398
0.336000000000000132,-3.633967404077159902
0.337000000000000133,-3.723533655740090431
0.338000000000000134,-3.809544904184303249
0.339000000000000135,-3.892104005798228350
0.340000000000000135,-3.971312450213171807
0.341000000000000136,-4.047270298801645794
0.342000000000000137,-4.120076126313500176
0.343000000000000138,-4.189826965803131742
0.344000000000000139,-4.256618256974345371
0.345000000000000140,-4.320543798043854800
0.346000000000000141,-4.381695701200513327
0.347000000000000142,-4.440164351714755320
0.348000000000000143,-4.496038370731979761
0.349000000000000143,-4.549404581763768718
0.350000000000000144,-4.600347980873030984
0.351000000000000145,-4.648951710532260861
0.352000000000000146,-4.695297037119105177
0.353000000000000147,-4.739463331999266060
0.354000000000000148,-4.781528056134420446
0.355000000000000149,-4.821566748141298042
0.356000000000000150,-4.859653015718105706
0.357000000000000151,-4.895858530345461368
0.358000000000000151,-4.930253025161097646
0.359000000000000152,-4.962904295900931295
0.360000000000000153,-4.993878204793249509
0.361000000000000154,-5.023238687287761906
0.362000000000000155,-5.051047761497554411
0.363000000000000156,-5.077365540228604424
0.364000000000000157,-5.102250245469167389
0.365000000000000158,-5.125758225209927410
0.366000000000000159,-5.147943972464364748
0.367000000000000159,-5.168860146358886354
0.368000000000000160,-5.188557595162107461
0.369000000000000161,-5.207085381123521373
0.370000000000000162,-5.224490806992974967
0.371000000000000163,-5.240819444093916424
0.372000000000000164,-5.256115161825339221
0.373000000000000165,-5.270420158469778293
0.374000000000000166,-5.283774993187327240
0.375000000000000167,-5.296218619078311818
0.376000000000000167,-5.307788417200836939
0.377000000000000168,-5.318520231432358081
0.378000000000000169,-5.328448404068136135
0.379000000000000170,-5.337605812053076271
0.380000000000000171,-5.346023903747211037
0.381000000000000172,-5.353732736128945291
0.382000000000000173,-5.360761012344086751
0.383000000000000174,-5.367136119512851522
0.384000000000000175,-5.372884166710781173
0.385000000000000175,-5.378030023043725905
0.386000000000000176,-5.382597355741141953
0.387000000000000177,-5.386608668195611571
0.388000000000000178,-5.390085337880984540
0.389000000000000179,-5.393047654084957898
0.390000000000000180,-5.395514855396138287
0.391000000000000181,-5.397505166889311923
0.392000000000000182,-5.399035836956322498
0.393000000000000183,-5.400123173733723192
0.394000000000000183,-5.400782581081848832
0.395000000000000184,-5.401028594073467914
0.396000000000000185,-5.400874913953517265
0.397000000000000186,-5.400334442534608037
0.398000000000000187,-5.399419315996388136
0.399000000000000188,-5.398140938059594163
0.400000000000000189,-5.396510012508695553
0.401000000000000190,-5.394536575039974302
0.402000000000000191,-5.392230024414362610
0.403000000000000191,-5.389599152897066148
0.404000000000000192,-5.386652175968562162
0.405000000000000193,-5.383396761293721688
0.406000000000000194,-5.379840056938272497
0.407000000000000195,-5.375988718823797363
0.408000000000000196,-5.371848937414578806
0.409000000000000197,-5.367426463631476352
0.410000000000000198,-5.362726633989919556
0.411000000000000199,-5.357754394960611677
0.412000000000000199,-5.352514326553444057
0.413000000000000200,-5.347010665126317619
0.414000000000000201,-5.341247325422250114
0.415000000000000202,-5.335227921839218013
0.416000000000000203,-5.328955788938624316
0.417000000000000204,-5.322434001199273901
0.418000000000000205,-5.315665392024841118
0.419000000000000206,-5.308652572013825122
0.420000000000000207,-5.301397946501730019
0.421000000000000207,-5.293903732386292305
0.422000000000000208,-5.286171974246929750
0.423000000000000209,-5.278204559770696136
0.424000000000000210,-5.270003234497269595
0.425000000000000211,-5.261569615896182661
0.426000000000000212,-5.252905206790115855
0.427000000000000213,-5.244011408138116614
0.428000000000000214,-5.234889531193500645
0.429000000000000214,-5.225540809050939650
0.430000000000000215,-5.215966407597964150
0.431000000000000216,-5.206167435886088768
0.432000000000000217,-5.196144955936947696
0.433000000000000218,-5.185899991999009195
0.434000000000000219,-5.175433539270554384
0.435000000000000220,-5.164746572104593980
0.436000000000000221,-5.153840051711423342
0.437000000000000222,-5.142714933374507247
0.438000000000000222,-5.131372173195395625
0.439000000000000223,-5.119812734383236474
0.440000000000000224,-5.108037593104334917
0.441000000000000225,-5.096047743907129224
0.442000000000000226,-5.083844204737888894
0.443000000000000227,-5.071428021561987798
0.444000000000000228,-5.058800272605854076
0.445000000000000229,-5.045962072234080331
0.446000000000000230,-5.032914574476185621
0.447000000000000230,-5.019658976217302282
0.448000000000000231,-5.006196520066692912
0.449000000000000232,-4.992528496917804759
0.450000000000000233,-4.978656248213370716
0.451000000000000234,-4.964581167928665550
0.452000000000000235,-4.950304704285868773
0.453000000000000236,-4.935828361212040605
0.454000000000000237,-4.921153699553167726
0.455000000000000238,-4.906282338056137782
0.456000000000000238,-4.891215954130428756
0.457000000000000239,-4.875956284400917440
0.458000000000000240,-4.860505125062877241
0.459000000000000241,-4.844864332049914957
0.460000000000000242,-4.829035821025430941
0.461000000000000243,-4.813021567207614204
0.462000000000000244,-4.796823605038026628
0.463000000000000245,-4.780444027703056875
0.464000000000000246,-4.763884986517790132
0.465000000000000246,-4.747148690180995168
0.466000000000000247,-4.730237403909973715
0.467000000000000248,-4.713153448463610395
0.468000000000000249,-4.695899199061636331
0.469000000000000250,-4.678477084207893988
0.470000000000000251,-4.660889584425051524
0.471000000000000252,-4.643139230907907589
0.472000000000000253,-4.625228604102350261
0.473000000000000254,-4.607160332216393428
0.474000000000000254,-4.588937089669839153
0.475000000000000255,-4.570561595488545237
0.476000000000000256,-4.552036611649237230
0.477000000000000257,-4.533364941380403579
0.478000000000000258,-4.514549427424644712
0.479000000000000259,-4.495592950267583987
0.480000000000000260,-4.476498426338244130
0.481000000000000261,-4.457268806185458843
0.482000000000000262,-4.437907072634826200
0.483000000000000262,-4.418416238930395146
0.484000000000000263,-4.398799346865002846
0.485000000000000264,-4.379059464903190424
0.486000000000000265,-4.359199686300170740
0.487000000000000266,-4.339223127220276588
0.488000000000000267,-4.319132924858150702
0.489000000000000268,-4.298932235565645854
0.490000000000000269,-4.278624232987313647
0.491000000000000270,-4.258212106207166947
0.492000000000000270,-4.237699057909226852
0.493000000000000271,-4.217088302554219403
0.494000000000000272,-4.196383064574639832
0.495000000000000273,-4.175586576590190724
0.496000000000000274,-4.154702077645606728
0.497000000000000275,-4.133732811472529356
0.498000000000000276,-4.112682024777170930
0.499000000000000277,-4.091552965555252719
0.500000000000000222,-4.070348881435577049
0.501000000000000334,-4.049073018053587880
0.502000000000000224,-4.027728617456036275
0.503000000000000336,-4.006318916537786379
0.504000000000000226,-3.984847145511821509
0.505000000000000338,-3.963316526413147578
0.506000000000000227,-3.941730271637543748
0.507000000000000339,-3.920091582515651485
0.508000000000000229,-3.898403647923115667
0.509000000000000341,-3.876669642927189408
0.510000000000000231,-3.854892727470365710
0.511000000000000343,-3.833076045091166950
0.512000000000000233,-3.811222721682602010
0.513000000000000345,-3.789335864288309264
0.514000000000000234,-3.767418559936738465
0.515000000000000346,-3.745473874513186807
0.516000000000000236,-3.723504851670014659
0.517000000000000348,-3.701514511774769201
0.518000000000000238,-3.679505850896334529
0.519000000000000350,-3.657481839828810699
0.520000000000000240,-3.635445423153080391
0.521000000000000352,-3.613399518335813632
0.522000000000000242,-3.591347014865623688
0.523000000000000353,-3.569290773426123220
0.524000000000000243,-3.547233625105529420
0.525000000000000355,-3.525178370642499281
0.526000000000000245,-3.503127779707758460
0.527000000000000357,-3.481084590221120045
0.528000000000000247,-3.459051507703493122
0.529000000000000359,-3.437031204663334449
0.530000000000000249,-3.415026320017144457
0.531000000000000361,-3.393039458543398723
0.532000000000000250,-3.371073190369492600
0.533000000000000362,-3.349130050491064825
0.534000000000000252,-3.327212538323170321
0.535000000000000364,-3.305323117282750189
0.536000000000000254,-3.283464214401808245
0.537000000000000366,-3.261638219970595109
0.538000000000000256,-3.239847487210407273
0.539000000000000368,-3.218094331975121403
0.540000000000000258,-3.196381032481097950
0.541000000000000369,-3.174709829064584099
0.542000000000000259,-3.153082923966214146
0.543000000000000371,-3.131502481141763994
0.544000000000000261,-3.109970626098665925
0.545000000000000373,-3.088489445757567342
0.546000000000000263,-3.067060988338352168
0.547000000000000375,-3.045687263269839740
0.548000000000000265,-3.024370241122786851
0.549000000000000377,-3.003111853565209266
0.550000000000000266,-2.981913993339723845
0.551000000000000378,-2.960778514261998229
0.552000000000000268,-2.939707231239867546
0.553000000000000380,-2.918701920312381404
0.554000000000000270,-2.897764318708240694
0.555000000000000382,-2.876896124922876830
0.556000000000000272,-2.856098998813782597
0.557000000000000384,-2.835374561713194019
0.558000000000000274,-2.814724396557841679
0.559000000000000385,-2.794150048034887757
0.560000000000000275,-2.773653022743704177
0.561000000000000387,-2.753234789372741353
0.562000000000000277,-2.732896778891018563
0.563000000000000389,-2.712640384753630229
0.564000000000000279,-2.692466963120739187
0.565000000000000391,-2.672377833089486288
0.566000000000000281,-2.652374276938316733
0.567000000000000393,-2.632457540383144057
0.568000000000000282,-2.612628832844927196
0.569000000000000394,-2.592889327728010507
0.570000000000000284,-2.573240162708887002
0.571000000000000396,-2.553682440034765300
0.572000000000000286,-2.534217226831585013
0.573000000000000398,-2.514845555420838430
0.574000000000000288,-2.495568423644944467
0.575000000000000400,-2.476386795200560265
0.576000000000000290,-2.457301599979490270
0.577000000000000401,-2.438313734416692302
0.578000000000000291,-2.419424061845024010
0.579000000000000403,-2.400633412856264748
0.580000000000000293,-2.381942585668063828
0.581000000000000405,-2.363352346496343070
0.582000000000000295,-2.344863429932909860
0.583000000000000407,-2.326476539327734017
0.584000000000000297,-2.308192347175676673
0.585000000000000409,-2.290011495507228823
0.586000000000000298,-2.271934596282974894
0.587000000000000410,-2.253962231791375892
0.588000000000000300,-2.236094955049649613
0.589000000000000412,-2.218333290207302078
0.590000000000000302,-2.200677732952132537
0.591000000000000414,-2.183128750918341687
0.592000000000000304,-2.165686784096473083
0.593000000000000416,-2.148352245244871561
0.594000000000000306,-2.131125520302495691
0.595000000000000417,-2.114006968802676134
0.596000000000000307,-2.096996924287681363
0.597000000000000419,-2.080095694723785194
0.598000000000000309,-2.063303562916639855
0.599000000000000421,-2.046620786926652169
0.600000000000000311,-2.030047600484261139
0.601000000000000423,-2.013584213404759016
0.602000000000000313,-1.997230812002599665
0.603000000000000425,-1.980987559504831408
0.604000000000000314,-1.964854596463663228
0.605000000000000426,-1.948832041167745555
0.606000000000000316,-1.932919990052223813
0.607000000000000428,-1.917118518107189917
0.608000000000000318,-1.901427679284550809
0.609000000000000430,-1.885847506902975868
0.610000000000000320,-1.870378014050957161
0.611000000000000432,-1.855019193987664350
0.612000000000000322,-1.839771020541608237
0.613000000000000433,-1.824633448506859379
0.614000000000000323,-1.809606414036795119
0.615000000000000435,-1.794689835035180980
0.616000000000000325,-1.779883611544514466
0.617000000000000437,-1.765187626131500931
0.618000000000000327,-1.750601744269600690
0.619000000000000439,-1.736125814718457949
0.620000000000000329,-1.721759669900241985
0.621000000000000441,-1.707503126272709393
0.622000000000000330,-1.693355984698964090
0.623000000000000442,-1.679318030813804707
0.624000000000000332,-1.665389035386613870
0.625000000000000444,-1.651568754680694084
0.626000000000000334,-1.637856930809012734
0.627000000000000446,-1.624253292086261125
0.628000000000000336,-1.610757553377211604
0.629000000000000448,-1.597369416441287715
0.630000000000000338,-1.584088570273329388
0.631000000000000449,-1.570914691440464583
0.632000000000000339,-1.557847444415107585
0.633000000000000451,-1.544886481903981146
0.634000000000000341,-1.532031445173189343
0.635000000000000453,-1.519281964369264326
0.636000000000000343,-1.506637658836186500
0.637000000000000455,-1.494098137428335749
0.638000000000000345,-1.481662998819394117
0.639000000000000457,-1.469331831807088706
0.640000000000000346,-1.457104215613904685
0.641000000000000458,-1.444979720183586114
0.642000000000000348,-1.432957906473582010
0.643000000000000460,-1.421038326743278901
0.644000000000000350,-1.409220524838145305
0.645000000000000462,-1.397504036469677136
0.646000000000000352,-1.385888389491239492
0.647000000000000464,-1.374373104169698934
0.648000000000000353,-1.362957693453000774
0.649000000000000465,-1.351641663233499768
0.650000000000000355,-1.340424512607268692
0.651000000000000467,-1.329305734129189176
0.652000000000000357,-1.318284814064024202
0.653000000000000469,-1.307361232633310610
0.654000000000000359,-1.296534464258250807
0.655000000000000471,-1.285803977798470443
0.656000000000000361,-1.275169236786798166
0.657000000000000473,-1.264629699659948203
0.658000000000000362,-1.254184819985272314
0.659000000000000474,-1.243834046683466088
0.660000000000000364,-1.233576824247370807
0.661000000000000476,-1.223412592956790945
0.662000000000000366,-1.213340789089444760
0.663000000000000478,-1.203360845128010892
