# ZnO10m10NBDry_GUANINEKETO
# h[nm],U(h)[kJ/mol]
0.149999999999999994,164.362506736637953964
0.150999999999999995,162.321955454564374577
0.151999999999999996,159.619456246524094922
0.152999999999999997,156.792604169807447079
0.153999999999999998,154.044855052834748221
0.154999999999999999,151.420946152330259338
0.156000000000000000,148.901773470136930655
0.157000000000000001,146.451924661953370332
0.158000000000000002,144.040521987262167158
0.159000000000000002,141.647905334929532728
0.160000000000000003,139.265508233989947939
0.161000000000000004,136.893046579768764559
0.162000000000000005,134.535172171438205169
0.163000000000000006,132.198586401544673663
0.164000000000000007,129.889962001195470975
0.165000000000000008,127.614685101394499611
0.166000000000000009,125.376278603122813138
0.167000000000000010,123.176320320063609870
0.168000000000000010,121.014675784921976742
0.169000000000000011,118.889896266581757800
0.170000000000000012,116.799670511082354096
0.171000000000000013,114.741255065128285651
0.172000000000000014,112.711838669989262485
0.173000000000000015,110.708819826473046533
0.174000000000000016,108.729993439707826042
0.175000000000000017,106.773653389456697482
0.176000000000000018,104.838624127513213580
0.177000000000000018,102.924237165487511447
0.178000000000000019,101.030268638032438844
0.179000000000000020,99.156852876856447665
0.180000000000000021,97.304384785003151137
0.181000000000000022,95.473421256498497200
0.182000000000000023,93.664589290019961254
0.183000000000000024,91.878506021278823823
0.184000000000000025,90.115713778143486934
0.185000000000000026,88.376631507030921853
0.186000000000000026,86.661522542319204376
0.187000000000000027,84.970477674233592325
0.188000000000000028,83.303411777384823722
0.189000000000000029,81.660071844588827616
0.190000000000000030,80.040054078222880207
0.191000000000000031,78.442827674815617911
0.192000000000000032,76.867763052458329298
0.193000000000000033,75.314162475119758255
0.194000000000000034,73.781291289409836054
0.195000000000000034,72.268408280374487163
0.196000000000000035,70.774793952040823797
0.197000000000000036,69.299775829522900494
0.198000000000000037,67.842750151033854422
0.199000000000000038,66.403199562525102806
0.200000000000000039,64.980706640465200508
0.201000000000000040,63.574963247569257874
0.202000000000000041,62.185775872115925722
0.203000000000000042,60.813067215262364584
0.204000000000000042,59.456874374884947088
0.205000000000000043,58.117344031952541172
0.206000000000000044,56.794725079623972874
0.207000000000000045,55.489359149620689493
0.208000000000000046,54.201669488367272720
0.209000000000000047,52.932148620163033570
0.210000000000000048,51.681345209237477434
0.211000000000000049,50.449850499648654534
0.212000000000000050,49.238284673970312610
0.213000000000000050,48.047283430626741563
0.214000000000000051,46.877485037280429481
0.215000000000000052,45.729518075270092936
0.216000000000000053,44.603990048856793749
0.217000000000000054,43.501476993832000062
0.218000000000000055,42.422514183516476294
0.219000000000000056,41.367587996776592263
0.220000000000000057,40.337128982680397371
0.221000000000000058,39.331506129952330753
0.222000000000000058,38.351022326475380453
0.223000000000000059,37.395910974672730731
0.224000000000000060,36.466333712530492051
0.225000000000000061,35.562379177106592465
0.226000000000000062,34.684062737378170027
0.227000000000000063,33.831327115953044427
0.228000000000000064,33.004043814242379540
0.229000000000000065,32.202015252885288987
0.230000000000000066,31.424977538264595722
0.231000000000000066,30.672603766588821372
0.232000000000000067,29.944507778993521896
0.233000000000000068,29.240248284197015494
0.234000000000000069,28.559333269217347606
0.235000000000000070,27.901224623320615592
0.236000000000000071,27.265342905548163088
0.237000000000000072,26.651072191702166236
0.238000000000000073,26.057764942418693010
0.239000000000000073,25.484746839803602114
0.240000000000000074,24.931321545944168605
0.241000000000000075,24.396775342355898175
0.242000000000000076,23.880381615004679929
0.243000000000000077,23.381405154902644483
0.244000000000000078,22.899106249367111587
0.245000000000000079,22.432744543821154792
0.246000000000000080,21.981582658477286429
0.247000000000000081,21.544889548366651155
0.248000000000000081,21.121943598947201082
0.249000000000000082,20.712035452943087677
0.250000000000000111,20.314470567136883261
0.251000000000000112,19.928571500565112729
0.252000000000000113,19.553679937965029012
0.253000000000000114,19.189158454404154242
0.254000000000000115,18.834392028805485353
0.255000000000000115,18.488789315582899064
0.256000000000000116,18.151783684838296296
0.257000000000000117,17.822834042566121582
0.258000000000000118,17.501425443082027300
0.259000000000000119,17.187069506458222179
0.260000000000000120,16.879304654130447005
0.261000000000000121,16.577696176058299926
0.262000000000000122,16.281836142889765995
0.263000000000000123,15.991343176520938840
0.264000000000000123,15.705862092267949492
0.265000000000000124,15.425063425597613787
0.266000000000000125,15.148642856008700974
0.267000000000000126,14.876320540232597978
0.268000000000000127,14.607840366440644431
0.269000000000000128,14.342969140619507229
0.270000000000000129,14.081495715713586492
0.271000000000000130,13.823230073545465402
0.272000000000000131,13.568002368919792389
0.273000000000000131,13.315661944699929364
0.274000000000000132,13.066076326027360466
0.275000000000000133,12.819130201236358602
0.276000000000000134,12.574724396406214311
0.277000000000000135,12.332774849895050906
0.278000000000000136,12.093211592615421779
0.279000000000000137,11.855977739246720049
0.280000000000000138,11.621028495035179873
0.281000000000000139,11.388330182310040684
0.282000000000000139,11.157859290347200698
0.283000000000000140,10.929601551739434484
0.284000000000000141,10.703551047986328726
0.285000000000000142,10.479709346597847031
0.286000000000000143,10.258084671612836658
0.287000000000000144,10.038691109068468066
0.288000000000000145,9.821547848616848597
0.289000000000000146,9.606678462172666855
0.290000000000000147,9.394110220187172899
0.291000000000000147,9.183873445881598485
0.292000000000000148,8.976000907533128625
0.293000000000000149,8.770527248690942912
0.294000000000000150,8.567488456005076358
0.295000000000000151,8.366921364177335008
0.296000000000000152,8.168863197390100694
0.297000000000000153,7.973351146433489411
0.298000000000000154,7.780421980634135259
0.299000000000000155,7.590111693587834552
0.300000000000000155,7.402455181612696222
0.301000000000000156,7.217485953768428608
0.302000000000000157,7.035235872228966514
0.303000000000000158,6.855734921750408439
0.304000000000000159,6.679011006941237838
0.305000000000000160,6.505089776017937808
0.306000000000000161,6.333994469713976727
0.307000000000000162,6.165745794003841596
0.308000000000000163,6.000361815305097934
0.309000000000000163,5.837857876829513515
0.310000000000000164,5.678246534768573106
0.311000000000000165,5.521537513018306420
0.312000000000000166,5.367737675172824297
0.313000000000000167,5.216851012544476696
0.314000000000000168,5.068878647000666149
0.315000000000000169,4.923818847442474222
0.316000000000000170,4.781667058787946623
0.317000000000000171,4.642415942362617010
0.318000000000000171,4.506055426641415451
0.319000000000000172,4.372572767328487764
0.320000000000000173,4.241952615805447024
0.321000000000000174,4.114177095022599318
0.322000000000000175,3.989225881952306541
0.323000000000000176,3.867076295768287597
0.324000000000000177,3.747703390959085112
0.325000000000000178,3.631080054628195164
0.326000000000000179,3.517177107276520331
0.327000000000000179,3.405963406406124161
0.328000000000000180,3.297405952325842549
0.329000000000000181,3.191469995580395125
0.330000000000000182,3.088119145464823578
0.331000000000000183,2.987315479124323936
0.332000000000000184,2.889019650777556070
0.333000000000000185,2.793191000637461396
0.334000000000000186,2.699787663138481175
0.335000000000000187,2.608766674112795059
0.336000000000000187,2.520084076589891087
0.337000000000000188,2.433695024925078609
0.338000000000000189,2.349553886991147866
0.339000000000000190,2.267614344195699960
0.340000000000000191,2.187829489113059189
0.341000000000000192,2.110151920544464765
0.342000000000000193,2.034533835844274385
0.343000000000000194,1.960927120371861676
0.344000000000000195,1.889283433950408098
0.345000000000000195,1.819554294232791802
0.346000000000000196,1.751691156893963264
0.347000000000000197,1.685645492585922556
0.348000000000000198,1.621368860607667717
0.349000000000000199,1.558812979257435671
0.350000000000000200,1.497929792848217811
0.351000000000000201,1.438671535380425137
0.352000000000000202,1.380990790877306917
0.353000000000000203,1.324840550399395855
0.354000000000000203,1.270174265764178134
0.355000000000000204,1.216945900006227266
0.356000000000000205,1.165109974620982314
0.357000000000000206,1.114621613642678755
0.358000000000000207,1.065436584613810522
0.359000000000000208,1.017511336508908570
0.360000000000000209,0.970803034680821186
0.361000000000000210,0.925269592902315807
0.362000000000000210,0.880869702579469838
0.363000000000000211,0.837562859216926414
0.364000000000000212,0.795309386217823766
0.365000000000000213,0.754070456103560494
0.366000000000000214,0.713808109240498756
0.367000000000000215,0.674485270162148987
0.368000000000000216,0.636065761576322553
0.369000000000000217,0.598514316147744863
0.370000000000000218,0.561796586146573351
0.371000000000000218,0.525879151053749050
0.372000000000000219,0.490729523213475349
0.373000000000000220,0.456316151622875643
0.374000000000000221,0.422608423948074408
0.375000000000000222,0.389576666855048714
0.376000000000000223,0.357192144742214057
0.377000000000000224,0.325427056960766126
0.378000000000000225,0.294254533606988833
0.379000000000000226,0.263648629969340353
0.380000000000000226,0.233584319711150373
0.381000000000000227,0.204037486868272833
0.382000000000000228,0.174984916738655905
0.383000000000000229,0.146404285739139939
0.384000000000000230,0.118274150302535380
0.385000000000000231,0.090573934885812959
0.386000000000000232,0.063283919158297453
0.387000000000000233,0.036385224436224030
0.388000000000000234,0.009859799428093164
0.389000000000000234,-0.016309594647338922
0.390000000000000235,-0.042139399510553809
0.391000000000000236,-0.067645275780877062
0.392000000000000237,-0.092842119390939448
0.393000000000000238,-0.117744078403112434
0.394000000000000239,-0.142364570177107408
0.395000000000000240,-0.166716298840343530
0.396000000000000241,-0.190811273014713789
0.397000000000000242,-0.214660823755567692
0.398000000000000242,-0.238275622660963388
0.399000000000000243,-0.261665700111084698
0.400000000000000244,-0.284840463599997762
0.401000000000000245,-0.307808716123850523
0.402000000000000246,-0.330578674591360921
0.403000000000000247,-0.353157988224708841
0.404000000000000248,-0.375553756920476212
0.405000000000000249,-0.397772549542259601
0.406000000000000250,-0.419820422118220016
0.407000000000000250,-0.441702935918657835
0.408000000000000251,-0.463425175390202448
0.409000000000000252,-0.484991765924894458
0.410000000000000253,-0.506406891443950458
0.411000000000000254,-0.527674311777456495
0.412000000000000255,-0.548797379822662856
0.413000000000000256,-0.569779058465053945
0.414000000000000257,-0.590621937247399642
0.415000000000000258,-0.611328248773680416
0.416000000000000258,-0.631899884835543824
0.417000000000000259,-0.652338412250523358
0.418000000000000260,-0.672645088402059721
0.419000000000000261,-0.692820876472637903
0.420000000000000262,-0.712866460362234555
0.421000000000000263,-0.732782259285395532
0.422000000000000264,-0.752568442040943864
0.423000000000000265,-0.772224940949489680
0.424000000000000266,-0.791751465454583636
0.425000000000000266,-0.811147515384086915
0.426000000000000267,-0.830412393869285226
0.427000000000000268,-0.849545219919802364
0.428000000000000269,-0.868544940653108832
0.429000000000000270,-0.887410343178091532
0.430000000000000271,-0.906140066132649524
0.431000000000000272,-0.924732610875953598
0.432000000000000273,-0.943186352336417011
0.433000000000000274,-0.961499549517016439
0.434000000000000274,-0.979670355660014147
0.435000000000000275,-0.997696828073515007
0.436000000000000276,-1.015576937622816978
0.437000000000000277,-1.033308577889731072
0.438000000000000278,-1.050889574003486038
0.439000000000000279,-1.068317691147159021
0.440000000000000280,-1.085590642743763157
0.441000000000000281,-1.102706098326458939
0.442000000000000282,-1.119661691097681100
0.443000000000000282,-1.136455025181931866
0.444000000000000283,-1.153083682577538127
0.445000000000000284,-1.169545229812532394
0.446000000000000285,-1.185837224310145599
0.447000000000000286,-1.201957220469593191
0.448000000000000287,-1.217902775467701426
0.449000000000000288,-1.233671454787367061
0.450000000000000289,-1.249260837478643804
0.451000000000000290,-1.264668521158484493
0.452000000000000290,-1.279892126755223902
0.453000000000000291,-1.294929303003819143
0.454000000000000292,-1.309777730698059806
0.455000000000000293,-1.324435126705850285
0.456000000000000294,-1.338899247753753130
0.457000000000000295,-1.353167893986985337
0.458000000000000296,-1.367238912310976051
0.459000000000000297,-1.381110199520694026
0.460000000000000298,-1.394779705223829769
0.461000000000000298,-1.408245434563913712
0.462000000000000299,-1.421505450749470878
0.463000000000000300,-1.434557877395120418
0.464000000000000301,-1.447400900680666513
0.465000000000000302,-1.460032771333987345
0.466000000000000303,-1.472451806443581424
0.467000000000000304,-1.484656391106520257
0.468000000000000305,-1.496644979917451046
0.469000000000000306,-1.508416098304274922
0.470000000000000306,-1.519968343716030068
0.471000000000000307,-1.531300386668312807
0.472000000000000308,-1.542410971651708262
0.473000000000000309,-1.553298917908368271
0.474000000000000310,-1.563963120081906633
0.475000000000000311,-1.574402548745713615
0.476000000000000312,-1.584616250814574689
0.477000000000000313,-1.594603349844510021
0.478000000000000314,-1.604363046225506295
0.479000000000000314,-1.613894617271903087
0.480000000000000315,-1.623197417214842675
0.481000000000000316,-1.632270877101362982
0.482000000000000317,-1.641114504604344493
0.483000000000000318,-1.649727883747641899
0.484000000000000319,-1.658110674550459240
0.485000000000000320,-1.666262612595030390
0.486000000000000321,-1.674183508521499331
0.487000000000000322,-1.681873247453849363
0.488000000000000322,-1.689331788360496134
0.489000000000000323,-1.696559163353291266
0.490000000000000324,-1.703555476928325874
0.491000000000000325,-1.710320905151986093
0.492000000000000326,-1.716855694795530241
0.493000000000000327,-1.723160162421450092
0.494000000000000328,-1.729234693424639202
0.495000000000000329,-1.735079741031454903
0.496000000000000330,-1.740695825259486185
0.497000000000000330,-1.746083531841001513
0.498000000000000331,-1.751243511112578588
0.499000000000000332,-1.756176476873758663
0.500000000000000333,-1.760883205217165015
0.501000000000000334,-1.765364533332496766
0.502000000000000335,-1.769621358286881829
0.503000000000000336,-1.773654635783759925
0.504000000000000337,-1.777465378902565618
0.505000000000000338,-1.781054656821261961
0.506000000000000338,-1.784423593523825291
0.507000000000000339,-1.787573366494588756
0.508000000000000340,-1.790505205401306643
0.509000000000000341,-1.793220390768836880
0.510000000000000342,-1.795720252645026660
0.511000000000000343,-1.798006169260608189
0.512000000000000344,-1.800079565684556071
0.513000000000000345,-1.801941912476501928
0.514000000000000346,-1.803594724337688193
0.515000000000000346,-1.805039558761732277
0.516000000000000347,-1.806278014686612421
0.517000000000000348,-1.807311731149155110
0.518000000000000349,-1.808142385943112274
0.519000000000000350,-1.808771694282112374
0.520000000000000351,-1.809201407468431722
0.521000000000000352,-1.809433311568763303
0.522000000000000353,-1.809469226097794703
0.523000000000000353,-1.809311002710674243
0.524000000000000354,-1.808960523905140505
0.525000000000000355,-1.808419701734178542
0.526000000000000356,-1.807690476529953516
0.527000000000000357,-1.806774815639810683
0.528000000000000358,-1.805674712174957453
0.529000000000000359,-1.804392183772530966
0.530000000000000360,-1.802929271371596753
0.531000000000000361,-1.801288038003711067
0.532000000000000361,-1.799470567598507431
0.533000000000000362,-1.797478963804828300
0.534000000000000363,-1.795315348827833501
0.535000000000000364,-1.792981862282532202
0.536000000000000365,-1.790480660064062590
0.537000000000000366,-1.787813913235146046
0.538000000000000367,-1.784983806930927397
0.539000000000000368,-1.781992539281640031
0.540000000000000369,-1.778842320353169582
0.541000000000000369,-1.775535371105941618
0.542000000000000370,-1.772073922372147337
0.543000000000000371,-1.768460213851649199
0.544000000000000372,-1.764696493126619803
0.545000000000000373,-1.760785014695076089
0.546000000000000374,-1.756728039023432775
0.547000000000000375,-1.752527831618107212
0.548000000000000376,-1.748186662116336887
0.549000000000000377,-1.743706803396138927
0.550000000000000377,-1.739090530705543980
0.551000000000000378,-1.734340120811022512
0.552000000000000379,-1.729457851165188575
0.553000000000000380,-1.724445999093667581
0.554000000000000381,-1.719306841001127406
0.555000000000000382,-1.714042651596472622
0.556000000000000383,-1.708655703136986448
0.557000000000000384,-1.703148264691529690
0.558000000000000385,-1.697522601422511768
0.559000000000000385,-1.691780973886673367
0.560000000000000386,-1.685925637354492634
0.561000000000000387,-1.679958841148084359
0.562000000000000388,-1.673882827997467349
0.563000000000000389,-1.667699833415073440
0.564000000000000390,-1.661412085088286972
0.565000000000000391,-1.655021802289895261
0.566000000000000392,-1.648531195306243591
0.567000000000000393,-1.641942464882965691
0.568000000000000393,-1.635257801688009049
0.569000000000000394,-1.628479385791847589
0.570000000000000395,-1.621609386164672317
0.571000000000000396,-1.614649960190253308
0.572000000000000397,-1.607603253196438597
0.573000000000000398,-1.600471398001883205
0.574000000000000399,-1.593256514478953445
0.575000000000000400,-1.585960709132454571
0.576000000000000401,-1.578586074694015240
0.577000000000000401,-1.571134689731947587
0.578000000000000402,-1.563608618276216999
0.579000000000000403,-1.556009909458391460
0.580000000000000404,-1.548340597166340649
0.581000000000000405,-1.540602699713338408
0.582000000000000406,-1.532798219521462224
0.583000000000000407,-1.524929142818925776
0.584000000000000408,-1.516997439351200683
0.585000000000000409,-1.509005062105615247
0.586000000000000409,-1.500953947049193049
0.587000000000000410,-1.492846012879554207
0.588000000000000411,-1.484683160788506040
0.589000000000000412,-1.476467274238231209
0.590000000000000413,-1.468200218749678321
0.591000000000000414,-1.459883841703019325
0.592000000000000415,-1.451519972149900584
0.593000000000000416,-1.443110420637196523
0.594000000000000417,-1.434656979042072011
0.595000000000000417,-1.426161420418163184
0.596000000000000418,-1.417625498852451260
0.597000000000000419,-1.409050949332858682
0.598000000000000420,-1.400439487626060409
0.599000000000000421,-1.391792810165494831
0.600000000000000422,-1.383112593949192837
0.601000000000000423,-1.374400496447261144
0.602000000000000424,-1.365658155518786110
0.603000000000000425,-1.356887189337928401
0.604000000000000425,-1.348089196328932982
0.605000000000000426,-1.339265755109919853
0.606000000000000427,-1.330418424445196646
0.607000000000000428,-1.321548743205773979
0.608000000000000429,-1.312658230338112464
0.609000000000000430,-1.303748384840570207
0.610000000000000431,-1.294820685747641864
0.611000000000000432,-1.285876592121561135
0.612000000000000433,-1.276917543051158788
0.613000000000000433,-1.267944957657785476
0.614000000000000434,-1.258960235108051773
