# ZnO10m10NBDry_ALANINEZWITTER
# h[nm],U(h)[kJ/mol]
0.149999999999999994,143.726705629424060362
0.150999999999999995,140.638348075578448970
0.151999999999999996,137.933656958065284925
0.152999999999999997,135.345071929241896669
0.153999999999999998,132.777394631612253306
0.154999999999999999,130.214562154940068694
0.156000000000000000,127.670027784851797037
0.157000000000000001,125.162571754765167498
0.158000000000000002,122.706284174277584498
0.159000000000000002,120.307929387612517758
0.160000000000000003,117.967737391962288029
0.161000000000000004,115.681431867883560471
0.162000000000000005,113.442372257952754921
0.163000000000000006,111.243310743690699383
0.164000000000000007,109.077610286121398531
0.165000000000000008,106.939945758310528845
0.166000000000000009,104.826586466690514499
0.167000000000000010,102.735379082423605723
0.168000000000000010,100.665542266852497733
0.169000000000000011,98.617364163062063653
0.170000000000000012,96.591870528926349948
0.171000000000000013,94.590509347512735872
0.172000000000000014,92.614879392195774699
0.173000000000000015,90.666516064163189981
0.174000000000000016,88.746737670595024383
0.175000000000000017,86.856548605175802891
0.176000000000000018,84.996591933421683507
0.177000000000000018,83.167141989020734627
0.178000000000000019,81.368127149026292955
0.179000000000000020,79.599173476837222552
0.180000000000000021,77.859661013529802176
0.181000000000000022,76.148785871439514494
0.182000000000000023,74.465622735209336724
0.183000000000000024,72.809183769760082328
0.184000000000000025,71.178471189763783400
0.185000000000000026,69.572521818458568532
0.186000000000000026,67.990442840121858126
0.187000000000000027,66.431438634022029532
0.188000000000000028,64.894829083681813131
0.189000000000000029,63.380060105774397528
0.190000000000000030,61.886707362628712303
0.191000000000000031,60.414474236040767607
0.192000000000000032,58.963185171314322019
0.193000000000000033,57.532775470224784442
0.194000000000000034,56.123278538077101985
0.195000000000000034,54.734811488361188481
0.196000000000000035,53.367559890939823219
0.197000000000000036,52.021762325799258520
0.198000000000000037,50.697695281343634122
0.199000000000000038,49.395658819196171407
0.200000000000000039,48.115963319963668710
0.201000000000000040,46.858917528546875531
0.202000000000000041,45.624818034390877131
0.203000000000000042,44.413940251798365466
0.204000000000000042,43.226530907712955809
0.205000000000000043,42.062801998443681839
0.206000000000000044,40.922926141593421789
0.207000000000000045,39.807033223780024400
0.208000000000000046,38.715208227332780666
0.209000000000000047,37.647490108752116100
0.210000000000000048,36.603871597132524585
0.211000000000000049,35.584299780843664962
0.212000000000000050,34.588677354526971897
0.213000000000000050,33.616864404993506810
0.214000000000000051,32.668680623118028450
0.215000000000000052,31.743907838648159014
0.216000000000000053,30.842292785430231561
0.217000000000000054,29.963550015438300989
0.218000000000000055,29.107364890819773962
0.219000000000000056,28.273396593660937270
0.220000000000000057,27.461281103114835389
0.221000000000000058,26.670634098784908872
0.222000000000000058,25.901053757711217429
0.223000000000000059,25.152123419921824876
0.224000000000000060,24.423414104260093183
0.225000000000000061,23.714486862092549302
0.226000000000000062,23.024894961568200813
0.227000000000000063,22.354185899381327829
0.228000000000000064,21.701903240543138907
0.229000000000000065,21.067588289549654235
0.230000000000000066,20.450781598614465651
0.231000000000000066,19.851024320376733812
0.232000000000000067,19.267859413766004195
0.233000000000000068,18.700832712567354577
0.234000000000000069,18.149493866744524695
0.235000000000000070,17.613397166799565241
0.236000000000000071,17.092102261428749443
0.237000000000000072,16.585174778519224503
0.238000000000000073,16.092186859164378632
0.239000000000000073,15.612717613893599022
0.240000000000000074,15.146353509743510912
0.241000000000000075,14.692688696175810747
0.242000000000000076,14.251325277190137086
0.243000000000000077,13.821873536310642194
0.244000000000000078,13.403952120458271224
0.245000000000000079,12.997188188069490167
0.246000000000000080,12.601217526197169505
0.247000000000000081,12.215684640736933275
0.248000000000000081,11.840242823369585778
0.249000000000000082,11.474554198300362273
0.250000000000000111,11.118289751409877297
0.251000000000000112,10.771129344012660312
0.252000000000000113,10.432761713044126139
0.253000000000000114,10.102884459168404163
0.254000000000000115,9.781204024011270093
0.255000000000000115,9.467435657476904964
0.256000000000000116,9.161303375897867696
0.257000000000000117,8.862539911594174313
0.258000000000000118,8.570886654275989613
0.259000000000000119,8.286093584611197826
0.260000000000000120,8.007919200192082698
0.261000000000000121,7.736130434071382567
0.262000000000000122,7.470502565993157873
0.263000000000000123,7.210819126416976310
0.264000000000000123,6.956871793420674521
0.265000000000000124,6.708460282566504063
0.266000000000000125,6.465392229824040271
0.267000000000000126,6.227483067660541494
0.268000000000000127,5.994555894431445431
0.269000000000000128,5.766441337231305475
0.270000000000000129,5.542977408395021399
0.271000000000000130,5.324009355870506610
0.272000000000000131,5.109389507716096901
0.273000000000000131,4.898977111007253527
0.274000000000000132,4.692638165467625910
0.275000000000000133,4.490245252167617274
0.276000000000000134,4.291677357659878567
0.277000000000000135,4.096819693944600438
0.278000000000000136,3.905563514677464987
0.279000000000000137,3.717805928050338160
0.280000000000000138,3.533449706788756917
0.281000000000000139,3.352403095720157378
0.282000000000000139,3.174579617374310381
0.283000000000000140,2.999897876080668269
0.284000000000000141,2.828281361028248231
0.285000000000000142,2.659658248750882414
0.286000000000000143,2.493961205495342170
0.287000000000000144,2.331127189921977649
0.288000000000000145,2.171097256576534740
0.289000000000000146,2.013816360559700147
0.290000000000000147,1.859233163805456002
0.291000000000000147,1.707299843363395464
0.292000000000000148,1.557971902061480618
0.293000000000000149,1.411207981906753561
0.294000000000000150,1.266969680560740885
0.295000000000000151,1.125221371204816689
0.296000000000000152,0.985930026088895572
0.297000000000000153,0.849065044033976646
0.298000000000000154,0.714598082136318036
0.299000000000000155,0.582502891897855979
0.300000000000000155,0.452755159984433608
0.301000000000000156,0.325332353790652173
0.302000000000000157,0.200213571967273463
0.303000000000000158,0.077379400045231875
0.304000000000000159,-0.043188228731700473
0.305000000000000160,-0.161506167274314910
0.306000000000000161,-0.277590183144833191
0.307000000000000162,-0.391455081632158308
0.308000000000000163,-0.503114823373214337
0.309000000000000163,-0.612582636506179057
0.310000000000000164,-0.719871123358372556
0.311000000000000165,-0.824992361687779896
0.312000000000000166,-0.927958000512360437
0.313000000000000167,-1.028779350575516949
0.314000000000000168,-1.127467469509308540
0.315000000000000169,-1.224033241769361124
0.316000000000000170,-1.318487453426724132
0.317000000000000171,-1.410840861912234345
0.318000000000000171,-1.501104260818341807
0.319000000000000172,-1.589288539872085293
0.320000000000000173,-1.675404740200207909
0.321000000000000174,-1.759464105014290514
0.322000000000000175,-1.841478125849737024
0.323000000000000176,-1.921458584497423017
0.324000000000000177,-1.999417590771191966
0.325000000000000178,-2.075367616257849157
0.326000000000000179,-2.149321524199451439
0.327000000000000179,-2.221292595659458247
0.328000000000000180,-2.291294552126209361
0.329000000000000181,-2.359341574708122558
0.330000000000000182,-2.425448320075113351
0.331000000000000183,-2.489629933301093168
0.332000000000000184,-2.551902057761382459
0.333000000000000185,-2.612280842238015488
0.334000000000000186,-2.670782945384470253
0.335000000000000187,-2.727425537699365687
0.336000000000000187,-2.782226301156705439
0.337000000000000188,-2.835203426637328938
0.338000000000000189,-2.886375609303962531
0.339000000000000190,-2.935762042058814636
0.340000000000000191,-2.983382407219381083
0.341000000000000192,-3.029256866545021687
0.342000000000000193,-3.073406049742707147
0.343000000000000194,-3.115851041577048619
0.344000000000000195,-3.156613367705207285
0.345000000000000195,-3.195714979353982521
0.346000000000000196,-3.233178236951542939
0.347000000000000197,-3.269025892822612356
0.348000000000000198,-3.303281073051479666
0.349000000000000199,-3.335967258612952513
0.350000000000000200,-3.367108265867265082
0.351000000000000201,-3.396728226510556503
0.352000000000000202,-3.424851567068316172
0.353000000000000203,-3.451502988015147988
0.354000000000000203,-3.476707442599852982
0.355000000000000204,-3.500490115450747730
0.356000000000000205,-3.522876401032232430
0.357000000000000206,-3.543891882019536865
0.358000000000000207,-3.563562307654551287
0.359000000000000208,-3.581913572142055191
0.360000000000000209,-3.598971693141841399
0.361000000000000210,-3.614762790408429627
0.362000000000000210,-3.629313064626794816
0.363000000000000211,-3.642648776488854878
0.364000000000000212,-3.654796226052335673
0.365000000000000213,-3.665781732420184458
0.366000000000000214,-3.675631613775782291
0.367000000000000215,-3.684372167806043485
0.368000000000000216,-3.692029652541775953
0.369000000000000217,-3.698630267641614289
0.370000000000000218,-3.704200136143518840
0.371000000000000218,-3.708765286704910125
0.372000000000000219,-3.712351636350351036
0.373000000000000220,-3.714984973743235663
0.374000000000000221,-3.716690942995670266
0.375000000000000222,-3.717495028028626969
0.376000000000000223,-3.717422537492602430
0.377000000000000224,-3.716498590256846590
0.378000000000000225,-3.714748101473593689
0.379000000000000226,-3.712195769221927399
0.380000000000000226,-3.708866061734474862
0.381000000000000227,-3.704783205208270314
0.382000000000000228,-3.699971172200132941
0.383000000000000229,-3.694453670605234663
0.384000000000000230,-3.688254133216391839
0.385000000000000231,-3.681395707860629418
0.386000000000000232,-3.673901248108146778
0.387000000000000233,-3.665793304548170539
0.388000000000000234,-3.657094116624942437
0.389000000000000234,-3.647825605026570717
0.390000000000000235,-3.638009364618332686
0.391000000000000236,-3.627666657911635895
0.392000000000000237,-3.616818409058957684
0.393000000000000238,-3.605485198364684063
0.394000000000000239,-3.593687257301043214
0.395000000000000240,-3.581444464018074036
0.396000000000000241,-3.568776339336022119
0.397000000000000242,-3.555702043208165186
0.398000000000000242,-3.542240371641942609
0.399000000000000243,-3.528409754065724435
0.400000000000000244,-3.514228251128541647
0.401000000000000245,-3.499713552919915482
0.402000000000000246,-3.484882977596550635
0.403000000000000247,-3.469753470402840101
0.404000000000000248,-3.454341603071874545
0.405000000000000249,-3.438663573593685463
0.406000000000000250,-3.422735206337355063
0.407000000000000250,-3.406571952513771429
0.408000000000000251,-3.390188890965737833
0.409000000000000252,-3.373600729272287602
0.410000000000000253,-3.356821805154065252
0.411000000000000254,-3.339866088166897562
0.412000000000000255,-3.322747181670561822
0.413000000000000256,-3.305478325060266620
0.414000000000000257,-3.288072396248067797
0.415000000000000258,-3.270541914382129711
0.416000000000000258,-3.252899042791471462
0.417000000000000259,-3.235155592144403958
0.418000000000000260,-3.217323023808847271
0.419000000000000261,-3.199412453403078782
0.420000000000000262,-3.181434654525616246
0.421000000000000263,-3.163400062653303202
0.422000000000000264,-3.145318779196705439
0.423000000000000265,-3.127200575702419716
0.424000000000000266,-3.109054898192061156
0.425000000000000266,-3.090890871627854253
0.426000000000000267,-3.072717304495219626
0.427000000000000268,-3.054542693492892091
0.428000000000000269,-3.036375228321368525
0.429000000000000270,-3.018222796560907195
0.430000000000000271,-3.000092988630322921
0.431000000000000272,-2.981993102818390806
0.432000000000000273,-2.963930150379683770
0.433000000000000274,-2.945910860687140254
0.434000000000000274,-2.927941686433803703
0.435000000000000275,-2.910028808876479189
0.436000000000000276,-2.892178143114417566
0.437000000000000277,-2.874395343396175306
0.438000000000000278,-2.856685808448321318
0.439000000000000279,-2.839054686819776130
0.440000000000000280,-2.821506882235776281
0.441000000000000281,-2.804047058955859928
0.442000000000000282,-2.786679647130421600
0.443000000000000282,-2.769408848150575864
0.444000000000000283,-2.752238639986465785
0.445000000000000284,-2.735172782509214695
0.446000000000000285,-2.718214822792016871
0.447000000000000286,-2.701368100386226434
0.448000000000000287,-2.684635752568148348
0.449000000000000288,-2.668020719552949505
0.450000000000000289,-2.651525749671840515
0.451000000000000290,-2.635153404509217978
0.452000000000000290,-2.618906063996507161
0.453000000000000291,-2.602785931459604907
0.454000000000000292,-2.586795038617157871
0.455000000000000293,-2.570935250526902305
0.456000000000000294,-2.555208270477634880
0.457000000000000295,-2.539615644824457785
0.458000000000000296,-2.524158767765107392
0.459000000000000297,-2.508838886055422268
0.460000000000000298,-2.493657103662024532
0.461000000000000298,-2.478614386350573628
0.462000000000000299,-2.463711566208010684
0.463000000000000300,-2.448949346097346158
0.464000000000000301,-2.434328304043774427
0.465000000000000302,-2.419848897550896716
0.466000000000000303,-2.405511467846053186
0.467000000000000304,-2.391316244053841800
0.468000000000000305,-2.377263347297040585
0.469000000000000306,-2.363352794724218775
0.470000000000000306,-2.349584503463532315
0.471000000000000307,-2.335958294502089139
0.472000000000000308,-2.322473896490657275
0.473000000000000309,-2.309130949473325423
0.474000000000000310,-2.295929008541941929
0.475000000000000311,-2.282867547415217135
0.476000000000000312,-2.269945961942499313
0.477000000000000313,-2.257163573532180223
0.478000000000000314,-2.244519632504900386
0.479000000000000314,-2.232013321371763226
0.480000000000000315,-2.219643758037727288
0.481000000000000316,-2.207409998930587314
0.482000000000000317,-2.195311042055834605
0.483000000000000318,-2.183345829977869634
0.484000000000000319,-2.171513252728038967
0.485000000000000320,-2.159812150640017414
0.486000000000000321,-2.148241317113128712
0.487000000000000322,-2.136799501304225135
0.488000000000000322,-2.125485410748727322
0.489000000000000323,-2.114297713911642784
0.490000000000000324,-2.103235042669196364
0.491000000000000325,-2.092295994721886210
0.492000000000000326,-2.081479135939728220
0.493000000000000327,-2.070783002640597115
0.494000000000000328,-2.060206103802407984
0.495000000000000329,-2.049746923210125082
0.496000000000000330,-2.039403921538392783
0.497000000000000330,-2.029175538370830534
0.498000000000000331,-2.019060194156776955
0.499000000000000332,-2.009056292106607522
0.500000000000000333,-1.999162220026461156
0.501000000000000334,-1.989376352093405576
0.502000000000000335,-1.979697050572053474
0.503000000000000336,-1.970122667473607647
0.504000000000000337,-1.960651546158341363
0.505000000000000338,-1.951282022882549594
0.506000000000000338,-1.942012428290982529
0.507000000000000339,-1.932841088855787870
0.508000000000000340,-1.923766328262976444
0.509000000000000341,-1.914786468747500692
0.510000000000000342,-1.905899832377888403
0.511000000000000343,-1.897104742291540136
0.512000000000000344,-1.888399523881668873
0.513000000000000345,-1.879782505936929526
0.514000000000000346,-1.871252021734790105
0.515000000000000346,-1.862806410089593356
0.516000000000000347,-1.854444016356374902
0.517000000000000348,-1.846163193391472390
0.518000000000000349,-1.837962302470827591
0.519000000000000350,-1.829839714167098563
0.520000000000000351,-1.821793809186461832
0.521000000000000352,-1.813822979166181737
0.522000000000000353,-1.805925627433815350
0.523000000000000353,-1.798100169729092812
0.524000000000000354,-1.790345034889402331
0.525000000000000355,-1.782658665499790684
0.526000000000000356,-1.775039518508439329
0.527000000000000357,-1.767486065808543616
0.528000000000000358,-1.759996794787448859
0.529000000000000359,-1.752570208844021149
0.530000000000000360,-1.745204827875036502
0.531000000000000361,-1.737899188731559352
0.532000000000000361,-1.730651845646087095
0.533000000000000362,-1.723461370631365508
0.534000000000000363,-1.716326353851656661
0.535000000000000364,-1.709245403967333488
0.536000000000000365,-1.702217148453545548
0.537000000000000366,-1.695240233893819504
0.538000000000000367,-1.688313326249283763
0.539000000000000368,-1.681435111104398583
0.540000000000000369,-1.674604293889818463
0.541000000000000369,-1.667819600083237264
0.542000000000000370,-1.661079775388853319
0.543000000000000371,-1.654383585896217479
0.544000000000000372,-1.647729818219153319
0.545000000000000373,-1.641117279615417868
0.546000000000000374,-1.634544798087781192
0.547000000000000375,-1.628011222467173669
0.548000000000000376,-1.621515422478575719
0.549000000000000377,-1.615056288790227779
0.550000000000000377,-1.608632733046823748
0.551000000000000378,-1.602243687887241474
0.552000000000000379,-1.595888106947469520
0.553000000000000380,-1.589564964849221607
0.554000000000000381,-1.583273257174856452
0.555000000000000382,-1.577012000429171668
0.556000000000000383,-1.570780231988502695
0.557000000000000384,-1.564577010037816684
0.558000000000000385,-1.558401413496135701
0.559000000000000385,-1.552252541930928542
0.560000000000000386,-1.546129515461875936
0.561000000000000387,-1.540031474654516952
0.562000000000000388,-1.533957580404224696
0.563000000000000389,-1.527907013810980930
0.564000000000000390,-1.521878976045359044
0.565000000000000391,-1.515872688206170604
0.566000000000000392,-1.509887391170163129
0.567000000000000393,-1.503922345434224983
0.568000000000000393,-1.497976830950408011
0.569000000000000394,-1.492050146954224221
0.570000000000000395,-1.486141611786572225
0.571000000000000396,-1.480250562709600315
0.572000000000000397,-1.474376355716963571
0.573000000000000398,-1.468518365338683296
0.574000000000000399,-1.462675984441069277
0.575000000000000400,-1.456848624021922056
0.576000000000000401,-1.451035713001375127
0.577000000000000401,-1.445236698008704357
0.578000000000000402,-1.439451043165324240
0.579000000000000403,-1.433678229864297604
0.580000000000000404,-1.427917756546669192
0.581000000000000405,-1.422169138474796535
0.582000000000000406,-1.416431907503022503
0.583000000000000407,-1.410705611845882945
0.584000000000000408,-1.404989815844117640
0.585000000000000409,-1.399284099728708597
0.586000000000000409,-1.393588059383144451
0.587000000000000410,-1.387901306104200483
0.588000000000000411,-1.382223466361329089
0.589000000000000412,-1.376554181554989764
0.590000000000000413,-1.370893107773995867
0.591000000000000414,-1.365239915552149075
0.592000000000000415,-1.359594289624309393
0.593000000000000416,-1.353955928682054388
0.594000000000000417,-1.348324545129126362
0.595000000000000417,-1.342699864836846224
0.596000000000000418,-1.337081626899544906
0.597000000000000419,-1.331469583390329392
0.598000000000000420,-1.325863499117130528
0.599000000000000421,-1.320263151379350353
0.600000000000000422,-1.314668329725108498
0.601000000000000423,-1.309078835709263977
0.602000000000000424,-1.303494482652348019
0.603000000000000425,-1.297915095400499208
0.604000000000000425,-1.292340510086481986
0.605000000000000426,-1.286770573891959257
0.606000000000000427,-1.281205144811092600
0.607000000000000428,-1.275644091415475856
0.608000000000000429,-1.270087292620699859
0.609000000000000430,-1.264534637454368005
0.610000000000000431,-1.258986024825893724
0.611000000000000432,-1.253441363297976618
0.612000000000000433,-1.247900570859911351
0.613000000000000433,-1.242363574702812112
