# ZnO10m10NBDry_BSAI6
# h[nm],U(h)[kJ/mol]
0.149999999999999994,124.456629848286951301
0.150999999999999995,123.234066767598889669
0.151999999999999996,121.945413406167887160
0.152999999999999997,120.588750491687818567
0.153999999999999998,119.193018173261066295
0.154999999999999999,117.790212421807353849
0.156000000000000000,116.404331313529752379
0.157000000000000001,115.048915331362877623
0.158000000000000002,113.728477064237921468
0.159000000000000002,112.441246564986272460
0.160000000000000003,111.181937617930586271
0.161000000000000004,109.943978795356628098
0.162000000000000005,108.721056343331497374
0.163000000000000006,107.508016613809132878
0.164000000000000007,106.301258857989594730
0.165000000000000008,105.098767814335786852
0.166000000000000009,103.899921980633322960
0.167000000000000010,102.705186700349869966
0.168000000000000010,101.515771731535238587
0.169000000000000011,100.333306125913082951
0.170000000000000012,99.159561269541057982
0.171000000000000013,97.996236327986153469
0.172000000000000014,96.844808697940237607
0.173000000000000015,95.706444592969248220
0.174000000000000016,94.581960673217650992
0.175000000000000017,93.471825802948487194
0.176000000000000018,92.376191840669548583
0.177000000000000018,91.294943233180703146
0.178000000000000019,90.227756637822764674
0.179000000000000020,89.174163503095925876
0.180000000000000021,88.133610268004673571
0.181000000000000022,87.105512449188125856
0.182000000000000023,86.089300289025345592
0.183000000000000024,85.084454799787025081
0.184000000000000025,84.090533952135132267
0.185000000000000026,83.107189434680336149
0.186000000000000026,82.134174880604490454
0.187000000000000027,81.171346749069968496
0.188000000000000028,80.218659196395080357
0.189000000000000029,79.276154306734099464
0.190000000000000030,78.343949003332056691
0.191000000000000031,77.422219854643941517
0.192000000000000032,76.511186845915830190
0.193000000000000033,75.611097023352357382
0.194000000000000034,74.722208748084639751
0.195000000000000034,73.844777130761357853
0.196000000000000035,72.979041061767148335
0.197000000000000036,72.125212111459092057
0.198000000000000037,71.283465452082197089
0.199000000000000038,70.453932849325354937
0.200000000000000039,69.636697686810975938
0.201000000000000040,68.831791920327944467
0.202000000000000041,68.039194808921990898
0.203000000000000042,67.258833235282551755
0.204000000000000042,66.490583406277636414
0.205000000000000043,65.734273713990177157
0.206000000000000044,64.989688536252302242
0.207000000000000045,64.256572761617562151
0.208000000000000046,63.534636835270056565
0.209000000000000047,62.823562138038347769
0.210000000000000048,62.123006529149087385
0.211000000000000049,61.432609903500711823
0.212000000000000050,60.751999635129685373
0.213000000000000050,60.080795799424421944
0.214000000000000051,59.418616086917225516
0.215000000000000052,58.765080340698389705
0.216000000000000053,58.119814667322089008
0.217000000000000054,57.482455087285110551
0.218000000000000055,56.852650705629436345
0.219000000000000056,56.230066395889060971
0.220000000000000057,55.614385001471347891
0.221000000000000058,55.005309067688109792
0.222000000000000058,54.402562125110911495
0.223000000000000059,53.805889550834898216
0.224000000000000060,53.215059038720241347
0.225000000000000061,52.629860712881750828
0.226000000000000062,52.050106920756697093
0.227000000000000063,51.475631743143253516
0.228000000000000064,50.906290258807061377
0.229000000000000065,50.341957600734460243
0.230000000000000066,49.782527839995545094
0.231000000000000066,49.227912731582421202
0.232000000000000067,48.678040354615575325
0.233000000000000068,48.132853677059095787
0.234000000000000069,47.592309072637476675
0.235000000000000070,47.056374815077262497
0.236000000000000071,46.525029572170282677
0.237000000000000072,45.998260919524071255
0.238000000000000073,45.476063891276680806
0.239000000000000073,44.958439582542609969
0.240000000000000074,44.445393815954304273
0.241000000000000075,43.936935882392887720
0.242000000000000076,43.433077363877671928
0.243000000000000077,42.933831044620362150
0.244000000000000078,42.439209914452241890
0.245000000000000079,41.949226267204231533
0.246000000000000080,41.463890895162407446
0.247000000000000081,40.983212379429780015
0.248000000000000081,40.507196474896758787
0.249000000000000082,40.035845587549147240
0.250000000000000111,39.569158341017008240
0.251000000000000112,39.107129228580696179
0.252000000000000113,38.649748346291914913
0.253000000000000114,38.197001202429156308
0.254000000000000115,37.748868598176507305
0.255000000000000115,37.305326574182288368
0.256000000000000116,36.866346417511543621
0.257000000000000117,36.431894723440564121
0.258000000000000118,36.001933506546500041
0.259000000000000119,35.576420355609286617
0.260000000000000120,35.155308626958806428
0.261000000000000121,34.738547671060103994
0.262000000000000122,34.326083087325471865
0.263000000000000123,33.917857002367505004
0.264000000000000123,33.513808367156116219
0.265000000000000124,33.113873268809030037
0.266000000000000125,32.717985253024416181
0.267000000000000126,32.326075653451610492
0.268000000000000127,31.938073924586962704
0.269000000000000128,31.553907975074501735
0.270000000000000129,31.173504498580104638
0.271000000000000130,30.796789299692630237
0.272000000000000131,30.423687612583030671
0.273000000000000131,30.054124410420314462
0.274000000000000132,29.688024703801396242
0.275000000000000133,29.325313826697311015
0.276000000000000134,28.965917708651790718
0.277000000000000135,28.609763132188028578
0.278000000000000136,28.256777974585396862
0.279000000000000137,27.906891433379712453
0.280000000000000138,27.560034235118660462
0.281000000000000139,27.216138827067481998
0.282000000000000139,26.875139551709565922
0.283000000000000140,26.536972804023072570
0.284000000000000141,26.201577171637019603
0.285000000000000142,25.868893558080504391
0.286000000000000143,25.538865289436479600
0.287000000000000144,25.211438204797218532
0.288000000000000145,24.886560730993519286
0.289000000000000146,24.564183942134143024
0.290000000000000147,24.244261604546050393
0.291000000000000147,23.926750207751531718
0.292000000000000148,23.611608982154500325
0.293000000000000149,23.298799904137261763
0.294000000000000150,22.988287689289986560
0.295000000000000151,22.680039774509815231
0.296000000000000152,22.374026289714997517
0.297000000000000153,22.070220019922466292
0.298000000000000154,21.768596358434759708
0.299000000000000155,21.469133251876222346
0.300000000000000155,21.171811137807321046
0.301000000000000156,20.876612875632492461
0.302000000000000157,20.583523671499172281
0.303000000000000158,20.292530997866741416
0.304000000000000159,20.003624508401568249
0.305000000000000160,19.716795948830942109
0.306000000000000161,19.432039064363102909
0.307000000000000162,19.149349504254271181
0.308000000000000163,18.868724724075740085
0.309000000000000163,18.590163886206308774
0.310000000000000164,18.313667759046360572
0.311000000000000165,18.039238615421279377
0.312000000000000166,17.766880130612726418
0.313000000000000167,17.496597280427916843
0.314000000000000168,17.228396239688169800
0.315000000000000169,16.962284281490077831
0.316000000000000170,16.698269677565257041
0.317000000000000171,16.436361600037521669
0.318000000000000171,16.176570024850342122
0.319000000000000172,15.918905637111951279
0.320000000000000173,15.663379738581117095
0.321000000000000174,15.410004157492926069
0.322000000000000175,15.158791160901307293
0.323000000000000176,14.909753369693447667
0.324000000000000177,14.662903676410531162
0.325000000000000178,14.418255165989773303
0.326000000000000179,14.175821039523896161
0.327000000000000179,13.935614541116915888
0.328000000000000180,13.697648887898349557
0.329000000000000181,13.461937203242607453
0.330000000000000182,13.228492453225616288
0.331000000000000183,12.997327386337332200
0.332000000000000184,12.768454476456124524
0.333000000000000185,12.541885869079369087
0.334000000000000186,12.317633330793832158
0.335000000000000187,12.095708201959494588
0.336000000000000187,11.876121352571434642
0.337000000000000188,11.658883141256250582
0.338000000000000189,11.444003377351885220
0.339000000000000190,11.231491286013044473
0.340000000000000191,11.021355476278527519
0.341000000000000192,10.813603912031330978
0.342000000000000193,10.608243885777625337
0.343000000000000194,10.405281995166845377
0.344000000000000195,10.204724122171523248
0.345000000000000195,10.006575414842314942
0.346000000000000196,9.810840271551711567
0.347000000000000197,9.617522327637335167
0.348000000000000198,9.426624444354702703
0.349000000000000199,9.238148700047901229
0.350000000000000200,9.052096383446013306
0.351000000000000201,8.868467988992634332
0.352000000000000202,8.687263214115940713
0.353000000000000203,8.508480958346931189
0.354000000000000203,8.332119324193811849
0.355000000000000204,8.158175619681673041
0.356000000000000205,7.986646362467294757
0.357000000000000206,7.817527285440111662
0.358000000000000207,7.650813343722134618
0.359000000000000208,7.486498722980837961
0.360000000000000209,7.324576848970801635
0.361000000000000210,7.165040398222060958
0.362000000000000210,7.007881309794629310
0.363000000000000211,6.853090798021137076
0.364000000000000212,6.700659366161417552
0.365000000000000213,6.550576820895294361
0.366000000000000214,6.402832287581927240
0.367000000000000215,6.257414226216655884
0.368000000000000216,6.114310448018269284
0.369000000000000217,5.973508132582573182
0.370000000000000218,5.834993845539919732
0.371000000000000218,5.698753556657357500
0.372000000000000219,5.564772658328038801
0.373000000000000220,5.433035984393137063
0.374000000000000221,5.303527829243958713
0.375000000000000222,5.176231967154290459
0.376000000000000223,5.051131671795071831
0.377000000000000224,4.928209735886344589
0.378000000000000225,4.807448490943236230
0.379000000000000226,4.688829827075260859
0.380000000000000226,4.572335212800150650
0.381000000000000227,4.457945714835950923
0.382000000000000228,4.345642017836799376
0.383000000000000229,4.235404444040183236
0.384000000000000230,4.127212972795279100
0.385000000000000231,4.021047259943954622
0.386000000000000232,3.916886657027991880
0.387000000000000233,3.814710230297694515
0.388000000000000234,3.714496779499088852
0.389000000000000234,3.616224856418415179
0.390000000000000235,3.519872783164281316
0.391000000000000236,3.425418670169620761
0.392000000000000237,3.332840433896829602
0.393000000000000238,3.242115814231176785
0.394000000000000239,3.153222391548891501
0.395000000000000240,3.066137603447619764
0.396000000000000241,2.980838761128379755
0.397000000000000242,2.897303065419269519
0.398000000000000242,2.815507622432354307
0.399000000000000243,2.735429458846462047
0.400000000000000244,2.657045536809346409
0.401000000000000245,2.580332768454077996
0.402000000000000246,2.505268030025299630
0.403000000000000247,2.431828175611759679
0.404000000000000248,2.359990050482762225
0.405000000000000249,2.289730504026647573
0.406000000000000250,2.221026402290427360
0.407000000000000250,2.153854640120268282
0.408000000000000251,2.088192152903286303
0.409000000000000252,2.024015927911786861
0.410000000000000253,1.961303015251553372
0.411000000000000254,1.900030538416512371
0.412000000000000255,1.840175704452552408
0.413000000000000256,1.781715813733653508
0.414000000000000257,1.724628269354234744
0.415000000000000258,1.668890586141643428
0.416000000000000258,1.614480399293487078
0.417000000000000259,1.561375472644563223
0.418000000000000260,1.509553706568679265
0.419000000000000261,1.458993145520754098
0.420000000000000262,1.409671985225105395
0.421000000000000263,1.361568579515780142
0.422000000000000264,1.314661446835314607
0.423000000000000265,1.268929276398195416
0.424000000000000266,1.224350934025708826
0.425000000000000266,1.180905467658919461
0.426000000000000267,1.138572112556578642
0.427000000000000268,1.097330296185028198
0.428000000000000269,1.057159642807143474
0.429000000000000270,1.018039977777417615
0.430000000000000271,0.979951331550508842
0.431000000000000272,0.942873943410358684
0.432000000000000273,0.906788264927285703
0.433000000000000274,0.871674963150279369
0.434000000000000274,0.837514923541795353
0.435000000000000275,0.804289252662379495
0.436000000000000276,0.771979280612330121
0.437000000000000277,0.740566563237681441
0.438000000000000278,0.710032884107673512
0.439000000000000279,0.680360256270848507
0.440000000000000280,0.651530923796881822
0.441000000000000281,0.623527363111155197
0.442000000000000282,0.596332284128975987
0.443000000000000282,0.569928631196393143
0.444000000000000283,0.544299583844288337
0.445000000000000284,0.519428557362510701
0.446000000000000285,0.495299203200606442
0.447000000000000286,0.471895409201604110
0.448000000000000287,0.449201299675321519
0.449000000000000288,0.427201235317367090
0.450000000000000289,0.405879812980091681
0.451000000000000290,0.385221865301482225
0.452000000000000290,0.365212460197912314
0.453000000000000291,0.345836900226644484
0.454000000000000292,0.327080721823676146
0.455000000000000293,0.308929694422549361
0.456000000000000294,0.291369819459586732
0.457000000000000295,0.274387329270787739
0.458000000000000296,0.257968685885692939
0.459000000000000297,0.242100579723181136
0.460000000000000298,0.226769928194212905
0.461000000000000298,0.211963874216284209
0.462000000000000299,0.197669784644310093
0.463000000000000300,0.183875248622513893
0.464000000000000301,0.170568075861703944
0.465000000000000302,0.157736294846320124
0.466000000000000303,0.145368150975417831
0.467000000000000304,0.133452104641604008
0.468000000000000305,0.121976829252000665
0.469000000000000306,0.110931209194939623
0.470000000000000306,0.100304337756134537
0.471000000000000307,0.090085514987999202
0.472000000000000308,0.080264245535482615
0.473000000000000309,0.070830236421834752
0.474000000000000310,0.061773394797582926
0.475000000000000311,0.053083825655813544
0.476000000000000312,0.044751829516832722
0.477000000000000313,0.036767900085074412
0.478000000000000314,0.029122721881188328
0.479000000000000314,0.021807167851899935
0.480000000000000315,0.014812296960364213
0.481000000000000316,0.008129351759474745
0.482000000000000317,0.001749755950598375
0.483000000000000318,-0.004334888069977905
0.484000000000000319,-0.010132801674621893
0.485000000000000320,-0.015652032475784373
0.486000000000000321,-0.020900456803281266
0.487000000000000322,-0.025885782185410190
0.488000000000000322,-0.030615549831970391
0.489000000000000323,-0.035097137117503674
0.490000000000000324,-0.039337760062892704
0.491000000000000325,-0.043344475813744940
0.492000000000000326,-0.047124185113941799
0.493000000000000327,-0.050683634772909422
0.494000000000000328,-0.054029420125101354
0.495000000000000329,-0.057167987480419159
0.496000000000000330,-0.060105636564164698
0.497000000000000330,-0.062848522945474120
0.498000000000000331,-0.065402660452816092
0.499000000000000332,-0.067773923575723552
0.500000000000000333,-0.069968049851539663
0.501000000000000334,-0.071990642236201441
0.502000000000000335,-0.073847171458250302
0.503000000000000336,-0.075542978355058785
0.504000000000000337,-0.077083276190549319
0.505000000000000338,-0.078473152953579220
0.506000000000000338,-0.079717573636298569
0.507000000000000339,-0.080821382491808286
0.508000000000000340,-0.081789305270438109
0.509000000000000341,-0.082625951434189646
0.510000000000000342,-0.083335816348621833
0.511000000000000343,-0.083923283451866892
0.512000000000000344,-0.084392626400159515
0.513000000000000345,-0.084748011189558131
0.514000000000000346,-0.084993498253457825
0.515000000000000346,-0.085133044535499858
0.516000000000000347,-0.085170505537600888
0.517000000000000348,-0.085109637342841632
0.518000000000000349,-0.084954098612886914
0.519000000000000350,-0.084707452559829588
0.520000000000000351,-0.084373168892116074
0.521000000000000352,-0.083954625734579208
0.522000000000000353,-0.083455111522245301
0.523000000000000353,-0.082877826867954613
0.524000000000000354,-0.082225886403631487
0.525000000000000355,-0.081502320595158342
0.526000000000000356,-0.080710077530799201
0.527000000000000357,-0.079852024683197409
0.528000000000000358,-0.078930950644863856
0.529000000000000359,-0.077949566837293816
0.530000000000000360,-0.076910509193595419
0.531000000000000361,-0.075816339814840331
0.532000000000000361,-0.074669548600099694
0.533000000000000362,-0.073472554850299646
0.534000000000000363,-0.072227708845974195
0.535000000000000364,-0.070937293399079365
0.536000000000000365,-0.069603525378907502
0.537000000000000366,-0.068228557212368646
0.538000000000000367,-0.066814478358641308
0.539000000000000368,-0.065363316758525941
0.540000000000000369,-0.063877040258516746
0.541000000000000369,-0.062357558009925526
0.542000000000000370,-0.060806721843098897
0.543000000000000371,-0.059226327617078092
0.544000000000000372,-0.057618116544812803
0.545000000000000373,-0.055983776494211469
0.546000000000000374,-0.054324943265198364
0.547000000000000375,-0.052643201843060608
0.548000000000000376,-0.050940087628300990
0.549000000000000377,-0.049217087643229726
0.550000000000000377,-0.047475641715603131
0.551000000000000378,-0.045717143639452687
0.552000000000000379,-0.043942942313511556
0.553000000000000380,-0.042154342857362567
0.554000000000000381,-0.040352607705647837
0.555000000000000382,-0.038538957680639377
0.556000000000000383,-0.036714573043322020
0.557000000000000384,-0.034880594523437794
0.558000000000000385,-0.033038124328578881
0.559000000000000385,-0.031188227132764063
0.560000000000000386,-0.029331931044714654
0.561000000000000387,-0.027470228556087762
0.562000000000000388,-0.025604077469980380
0.563000000000000389,-0.023734401810020241
0.564000000000000390,-0.021862092710246316
0.565000000000000391,-0.019988009286138607
0.566000000000000392,-0.018112979487016768
0.567000000000000393,-0.016237800930184777
0.568000000000000393,-0.014363241716979303
0.569000000000000394,-0.012490041231100818
0.570000000000000395,-0.010618910919499781
0.571000000000000396,-0.008750535056028453
0.572000000000000397,-0.006885571488244713
0.573000000000000398,-0.005024652367537979
0.574000000000000399,-0.003168384862957907
0.575000000000000400,-0.001317351858926380
0.576000000000000401,0.000527887362842694
0.577000000000000401,0.002366796456905040
0.578000000000000402,0.004198861362958234
0.579000000000000403,0.006023589669702356
0.580000000000000404,0.007840509993355893
0.581000000000000405,0.009649171370724624
0.582000000000000406,0.011449142666379242
0.583000000000000407,0.013240011993847878
0.584000000000000408,0.015021386150428967
0.585000000000000409,0.016792890065457387
0.586000000000000409,0.018554166261769412
0.587000000000000410,0.020304874330030680
0.588000000000000411,0.022044690415828093
0.589000000000000412,0.023773306719119442
0.590000000000000413,0.025490431005938997
0.591000000000000414,0.027195786132037957
0.592000000000000415,0.028889109578239647
0.593000000000000416,0.030570152997315046
0.594000000000000417,0.032238681772116876
0.595000000000000417,0.033894474584705431
0.596000000000000418,0.035537322996378143
0.597000000000000419,0.037167031038199093
0.598000000000000420,0.038783414811992378
0.599000000000000421,0.040386302101433173
0.600000000000000422,0.041975531993125516
0.601000000000000423,0.043550954507444152
0.602000000000000424,0.045112430238870585
0.603000000000000425,0.046659830005702306
0.604000000000000425,0.048193034508910590
0.605000000000000426,0.049711933999923241
0.606000000000000427,0.051216427957148092
0.607000000000000428,0.052706424771140757
0.608000000000000429,0.054181841438019761
0.609000000000000430,0.055642603261215416
0.610000000000000431,0.057088643561126619
0.611000000000000432,0.058519903392673003
0.612000000000000433,0.059936331270497675
0.613000000000000433,0.061337882901652194
0.614000000000000434,0.062724520925607652
0.615000000000000435,0.064096214661427522
0.616000000000000436,0.065452939861962919
