# ZnO10m10NBDry_GLU-AC
# h[nm],U(h)[kJ/mol]
0.149999999999999994,179.691744744132790856
0.150999999999999995,175.155980836464351569
0.151999999999999996,172.151315306957314988
0.152999999999999997,169.450158838829565866
0.153999999999999998,166.614337023699306428
0.154999999999999999,163.575045934921348589
0.156000000000000000,160.405798308808414276
0.157000000000000001,157.209289754677598694
0.158000000000000002,154.068725790813573440
0.159000000000000002,151.033428847449442856
0.160000000000000003,148.120900873192283598
0.161000000000000004,145.325284775763606149
0.162000000000000005,142.626930811540546529
0.163000000000000006,140.000599037710145467
0.164000000000000007,137.421427453822445841
0.165000000000000008,134.868636324517694902
0.166000000000000009,132.327326978597795915
0.167000000000000010,129.788862497155747633
0.168000000000000010,127.250309366817461409
0.169000000000000011,124.713346713058328419
0.170000000000000012,122.182955616548312605
0.171000000000000013,119.666108265226895924
0.172000000000000014,117.170596384225220277
0.173000000000000015,114.704074554281575615
0.174000000000000016,112.273346803354300505
0.175000000000000017,109.883892394907817902
0.176000000000000018,107.539606402351409997
0.177000000000000018,105.242719687863655054
0.178000000000000019,102.993858756801358822
0.179000000000000020,100.792206481990675115
0.180000000000000021,98.635728159938423687
0.181000000000000022,96.521432457379958691
0.182000000000000023,94.445642575078224468
0.183000000000000024,92.404258737726152617
0.184000000000000025,90.392998491292175345
0.185000000000000026,88.407606008551454124
0.186000000000000026,86.444025557007876159
0.187000000000000027,84.498537449238625641
0.188000000000000028,82.567857212077655049
0.189000000000000029,80.649200452320457089
0.190000000000000030,78.740317055716602113
0.191000000000000031,76.839499032130291312
0.192000000000000032,74.945566610034560995
0.193000000000000033,73.057837177793658157
0.194000000000000034,71.176081447063111796
0.195000000000000034,69.300470843096533713
0.196000000000000035,67.431519664052089524
0.197000000000000036,65.570025041611572192
0.198000000000000037,63.717007213256025011
0.199000000000000038,61.873652108349155299
0.200000000000000039,60.041257774127032576
0.201000000000000040,58.221185735838659525
0.202000000000000041,56.414818004620130409
0.203000000000000042,54.623520120234637432
0.204000000000000042,52.848610343580602944
0.205000000000000043,51.091334893689499097
0.206000000000000044,49.352848952115195402
0.207000000000000045,47.634203029527689921
0.208000000000000046,45.936334199807312473
0.209000000000000047,44.260061650657959831
0.210000000000000048,42.606085971455463834
0.211000000000000049,40.974991593706377557
0.212000000000000050,39.367251812465944738
0.213000000000000050,37.783235844160792283
0.214000000000000051,36.223217413759982719
0.215000000000000052,34.687384408922895318
0.216000000000000053,33.175849187884999481
0.217000000000000054,31.688659179145211908
0.218000000000000055,30.225807462639199485
0.219000000000000056,28.787243072555952494
0.220000000000000057,27.372880810145819197
0.221000000000000058,25.982610399964848114
0.222000000000000058,24.616304864409688236
0.223000000000000059,23.273828028784652844
0.224000000000000060,21.955041102313042956
0.225000000000000061,20.659808309434364304
0.226000000000000062,19.388001570494576953
0.227000000000000063,18.139504251706920712
0.228000000000000064,16.914214021271188670
0.229000000000000065,15.712044862062748862
0.230000000000000066,14.532928301654305159
0.231000000000000066,13.376813927926548331
0.232000000000000067,12.243669263493581312
0.233000000000000068,11.133479074930928476
0.234000000000000069,10.046244193663781630
0.235000000000000070,8.981979924643756164
0.236000000000000071,7.940714116891728125
0.237000000000000072,6.922484966861931710
0.238000000000000073,5.927338621624530290
0.239000000000000073,4.955326644274694381
0.240000000000000074,4.006503398935255866
0.241000000000000075,3.080923407396692237
0.242000000000000076,2.178638723962376567
0.243000000000000077,1.299696369560635612
0.244000000000000078,0.444135860747221056
0.245000000000000079,-0.388013136069049858
0.246000000000000080,-1.196732999919830620
0.247000000000000081,-1.982020179646020397
0.248000000000000081,-2.743887031406157195
0.249000000000000082,-3.482363457569232601
0.250000000000000111,-4.197498339070763862
0.251000000000000112,-4.889360756788544649
0.252000000000000113,-5.558041000617347294
0.253000000000000114,-6.203651367687274210
0.254000000000000115,-6.826326753597099284
0.255000000000000115,-7.426225042624229111
0.256000000000000116,-8.003527304650898344
0.257000000000000117,-8.558437808025271210
0.258000000000000118,-9.091183858776206606
0.259000000000000119,-9.602015477545055688
0.260000000000000120,-10.091204926305564982
0.261000000000000121,-10.559046097434912070
0.262000000000000122,-11.005853777999702103
0.263000000000000123,-11.431962802246086852
0.264000000000000123,-11.837727105258531779
0.265000000000000124,-12.223518690591479441
0.266000000000000125,-12.589726524404188268
0.267000000000000126,-12.936755368255916210
0.268000000000000127,-13.265024562264661867
0.269000000000000128,-13.574966769809686085
0.270000000000000129,-13.867026694382900587
0.271000000000000130,-14.141659778577130524
0.272000000000000131,-14.399330894551715332
0.273000000000000131,-14.640513034648986235
0.274000000000000132,-14.865686010156462515
0.275000000000000133,-15.075335165528475301
0.276000000000000134,-15.269950114703116029
0.277000000000000135,-15.450023505481913944
0.278000000000000136,-15.616049817287365187
0.279000000000000137,-15.768524196979067042
0.280000000000000138,-15.907941336798037568
0.281000000000000139,-16.034794397923917586
0.282000000000000139,-16.149573982571862274
0.283000000000000140,-16.252767157028809919
0.284000000000000141,-16.344856527531728574
0.285000000000000142,-16.426319370426060829
0.286000000000000143,-16.497626817609667427
0.287000000000000144,-16.559243097867160088
0.288000000000000145,-16.611624834331731648
0.289000000000000146,-16.655220397973948820
0.290000000000000147,-16.690469316711954662
0.291000000000000147,-16.717801739460849575
0.292000000000000148,-16.737637954192607026
0.293000000000000149,-16.750387958858077297
0.294000000000000150,-16.756451083830238957
0.295000000000000151,-16.756215664360269102
0.296000000000000152,-16.750058761394122087
0.297000000000000153,-16.738345928976283261
0.298000000000000154,-16.721431026366676775
0.299000000000000155,-16.699656072916404526
0.300000000000000155,-16.673351143685238185
0.301000000000000156,-16.642834303737821244
0.302000000000000157,-16.608411579025638360
0.303000000000000158,-16.570376961745083122
0.304000000000000159,-16.529012448059056339
0.305000000000000160,-16.484588106077033842
0.306000000000000161,-16.437362172007766503
0.307000000000000162,-16.387581172426486376
0.308000000000000163,-16.335480070634332606
0.309000000000000163,-16.281282435131586794
0.310000000000000164,-16.225200628275704418
0.311000000000000165,-16.167436013250146232
0.312000000000000166,-16.108179177530097093
0.313000000000000167,-16.047610171094131459
0.314000000000000168,-15.985898757697885486
0.315000000000000169,-15.923204677594593903
0.316000000000000170,-15.859677920158537390
0.317000000000000171,-15.795459004939242931
0.318000000000000171,-15.730679269747543714
0.319000000000000172,-15.665461164447885167
0.320000000000000173,-15.599918549204470963
0.321000000000000174,-15.534156996001524220
0.322000000000000175,-15.468274092330180025
0.323000000000000176,-15.402359746005419794
0.324000000000000177,-15.336496490146036109
0.325000000000000178,-15.270759787418711539
0.326000000000000179,-15.205218332714039775
0.327000000000000179,-15.139934353486278695
0.328000000000000180,-15.074963907051364131
0.329000000000000181,-15.010357174198436070
0.330000000000000182,-14.946158748527219373
0.331000000000000183,-14.882407920980790905
0.332000000000000184,-14.819138959095374375
0.333000000000000185,-14.756381380540933179
0.334000000000000186,-14.694160220574469022
0.335000000000000187,-14.632496293074336080
0.336000000000000187,-14.571406444868079788
0.337000000000000188,-14.510903803107208176
0.338000000000000189,-14.450998015482245052
0.339000000000000190,-14.391695483107810105
0.340000000000000191,-14.332999585942058474
0.341000000000000192,-14.274910900637754807
0.342000000000000193,-14.217427410751671601
0.343000000000000194,-14.160544709268231500
0.344000000000000195,-14.104256193418274634
0.345000000000000195,-14.048553251799209107
0.346000000000000196,-13.993425443824088816
0.347000000000000197,-13.938860671548383152
0.348000000000000198,-13.884845343941563556
0.349000000000000199,-13.831364533687837692
0.350000000000000200,-13.778402126615949541
0.351000000000000201,-13.725940963871781975
0.352000000000000202,-13.673962976960146065
0.353000000000000203,-13.622449315793383917
0.354000000000000203,-13.571380469894219090
0.355000000000000204,-13.520736382908864925
0.356000000000000205,-13.470496560594165558
0.357000000000000206,-13.420640172448903726
0.358000000000000207,-13.371146147164498785
0.359000000000000208,-13.321993262075389808
0.360000000000000209,-13.273160226792523275
0.361000000000000210,-13.224625761206146635
0.362000000000000210,-13.176368668046450239
0.363000000000000211,-13.128367900191346251
0.364000000000000212,-13.080602622911834843
0.365000000000000213,-13.033052271244869758
0.366000000000000214,-12.985696602683592715
0.367000000000000215,-12.938515745373269539
0.368000000000000216,-12.891490242000173794
0.369000000000000217,-12.844601089558278062
0.370000000000000218,-12.797829775176698064
0.371000000000000218,-12.751158308187642731
0.372000000000000219,-12.704569248612212817
0.373000000000000220,-12.658045732237681591
0.374000000000000221,-12.611571492456517873
0.375000000000000222,-12.565130879033659994
0.376000000000000223,-12.518708873964845552
0.377000000000000224,-12.472291104584348531
0.378000000000000225,-12.425863854076663273
0.379000000000000226,-12.379414069542038490
0.380000000000000226,-12.332929367761817474
0.381000000000000227,-12.286398038804367872
0.382000000000000228,-12.239809047608734005
0.383000000000000229,-12.193152033677922219
0.384000000000000230,-12.146417309009404306
0.385000000000000231,-12.099595854386084426
0.386000000000000232,-12.052679314146022449
0.387000000000000233,-12.005659989544996691
0.388000000000000234,-11.958530830821269220
0.389000000000000234,-11.911285428067873937
0.390000000000000235,-11.863918001012640602
0.391000000000000236,-11.816423387802773348
0.392000000000000237,-11.768797032885604636
0.393000000000000238,-11.721034974073793578
0.394000000000000239,-11.673133828878450302
0.395000000000000240,-11.625090780190163287
0.396000000000000241,-11.576903561383732111
0.397000000000000242,-11.528570440918537443
0.398000000000000242,-11.480090206503071215
0.399000000000000243,-11.431462148888000385
0.400000000000000244,-11.382686045349123205
0.401000000000000245,-11.333762142917937155
0.402000000000000246,-11.284691141414043614
0.403000000000000247,-11.235474176330747298
0.404000000000000248,-11.186112801621824531
0.405000000000000249,-11.136608972434647313
0.406000000000000250,-11.086965027831718444
0.407000000000000250,-11.037183673540081230
0.408000000000000251,-10.987267964765317529
0.409000000000000252,-10.937221289104247290
0.410000000000000253,-10.887047349587952283
0.411000000000000254,-10.836750147884410822
0.412000000000000255,-10.786333967687721014
0.413000000000000256,-10.735803358318786849
0.414000000000000257,-10.685163118560002005
0.415000000000000258,-10.634418280744883489
0.416000000000000258,-10.583574095121312197
0.417000000000000259,-10.532636014505452948
0.418000000000000260,-10.481609679241636002
0.419000000000000261,-10.430500902481846026
0.420000000000000262,-10.379315655796869322
0.421000000000000263,-10.328060055129842709
0.422000000000000264,-10.276740347101171125
0.423000000000000265,-10.225362895672935437
0.424000000000000266,-10.173934169179371878
0.425000000000000266,-10.122460727728789465
0.426000000000000267,-10.070949210981352095
0.427000000000000268,-10.019406326306059540
0.428000000000000269,-9.967838837319144218
0.429000000000000270,-9.916253552805411431
0.430000000000000271,-9.864657316022935163
0.431000000000000272,-9.813056994390993992
0.432000000000000273,-9.761459469560033853
0.433000000000000274,-9.709871627862222354
0.434000000000000274,-9.658300351139921247
0.435000000000000275,-9.606752507949384068
0.436000000000000276,-9.555234945136040992
0.437000000000000277,-9.503754479777313691
0.438000000000000278,-9.452317891488586810
0.439000000000000279,-9.400931915087348045
0.440000000000000280,-9.349603233610167763
0.441000000000000281,-9.298338471676878214
0.442000000000000282,-9.247144189196072617
0.443000000000000282,-9.196026875405406642
0.444000000000000283,-9.144992943240488614
0.445000000000000284,-9.094048724025350694
0.446000000000000285,-9.043200462477654966
0.447000000000000286,-8.992454312021624929
0.448000000000000287,-8.941816330401142210
0.449000000000000288,-8.891292475585983013
0.450000000000000289,-8.840888601963387217
0.451000000000000290,-8.790610456807527839
0.452000000000000290,-8.740463677019322475
0.453000000000000291,-8.690453786128683689
0.454000000000000292,-8.640586191551756556
0.455000000000000293,-8.590866182095210135
0.456000000000000294,-8.541298925700038680
0.457000000000000295,-8.491889467417106374
0.458000000000000296,-8.442642727606733288
0.459000000000000297,-8.393563500354861873
0.460000000000000298,-8.344656452098041299
0.461000000000000298,-8.295926120449916397
0.462000000000000299,-8.247376913221726724
0.463000000000000300,-8.199013107629415487
0.464000000000000301,-8.150838849680265952
0.465000000000000302,-8.102858153731798296
0.466000000000000303,-8.055074902215901389
0.467000000000000304,-8.007492845521330338
0.468000000000000305,-7.960115602027711290
0.469000000000000306,-7.912946658284377932
0.470000000000000306,-7.865989369327538228
0.471000000000000307,-7.819246959129164232
0.472000000000000308,-7.772722521171583132
0.473000000000000309,-7.726419019141339106
0.474000000000000310,-7.680339287736442699
0.475000000000000311,-7.634486033581093345
0.476000000000000312,-7.588861836242193348
0.477000000000000313,-7.543469149341888169
0.478000000000000314,-7.498310301760831464
0.479000000000000314,-7.453387498926868027
0.480000000000000315,-7.408702824183786007
0.481000000000000316,-7.364258240235367126
0.482000000000000317,-7.320055590659658940
0.483000000000000318,-7.276096601488819537
0.484000000000000319,-7.232382882849913486
0.485000000000000320,-7.188915930662266085
0.486000000000000321,-7.145697128386994557
0.487000000000000322,-7.102727748824595899
0.488000000000000322,-7.060008955956499577
0.489000000000000323,-7.017541806826789852
0.490000000000000324,-6.975327253460283039
0.491000000000000325,-6.933366144813317256
0.492000000000000326,-6.891659228753761468
0.493000000000000327,-6.850207154066957571
0.494000000000000328,-6.809010472484248844
0.495000000000000329,-6.768069640731089187
0.496000000000000330,-6.727385022591607644
0.497000000000000330,-6.686956890986976987
0.498000000000000331,-6.646785430064520384
0.499000000000000332,-6.606870737295283291
0.500000000000000333,-6.567212825577260382
0.501000000000000334,-6.527811625341998436
0.502000000000000335,-6.488666986662235736
0.503000000000000336,-6.449778681358438348
0.504000000000000337,-6.411146405102047474
0.505000000000000338,-6.372769779513496324
0.506000000000000338,-6.334648354253110014
0.507000000000000339,-6.296781609103060617
0.508000000000000340,-6.259168956038654308
0.509000000000000341,-6.221809741287423812
0.510000000000000342,-6.184703247374354618
0.511000000000000343,-6.147848695151931331
0.512000000000000344,-6.111245245813536897
0.513000000000000345,-6.074892002888989673
0.514000000000000346,-6.038788014221036171
0.515000000000000346,-6.002932273921548045
0.516000000000000347,-5.967323724306475619
0.517000000000000348,-5.931961257808609389
0.518000000000000349,-5.896843718867037509
0.519000000000000350,-5.861969905792681068
0.520000000000000351,-5.827338572608941725
0.521000000000000352,-5.792948430866855958
0.522000000000000353,-5.758798151433997425
0.523000000000000353,-5.724886366256534131
0.524000000000000354,-5.691211670093985653
0.525000000000000355,-5.657772622226000081
0.526000000000000356,-5.624567748130841593
0.527000000000000357,-5.591595541135135683
0.528000000000000358,-5.558854464034491016
0.529000000000000359,-5.526342950684749233
0.530000000000000360,-5.494059407563502972
0.531000000000000361,-5.462002215301755115
0.532000000000000361,-5.430169730185455457
0.533000000000000362,-5.398560285626807342
0.534000000000000363,-5.367172193605204811
0.535000000000000364,-5.336003746077749632
0.536000000000000365,-5.305053216359265633
0.537000000000000366,-5.274318860471851167
0.538000000000000367,-5.243798918463882686
0.539000000000000368,-5.213491615698690573
0.540000000000000369,-5.183395164112747366
0.541000000000000369,-5.153507763443691658
0.542000000000000370,-5.123827602428145944
0.543000000000000371,-5.094352859969546898
0.544000000000000372,-5.065081706276146178
0.545000000000000373,-5.036012303969375381
0.546000000000000374,-5.007142809162745678
0.547000000000000375,-4.978471372511521054
0.548000000000000376,-4.949996140233476005
0.549000000000000377,-4.921715255100886921
0.550000000000000377,-4.893626857404089314
0.551000000000000378,-4.865729085886890459
0.552000000000000379,-4.838020078654132305
0.553000000000000380,-4.810497974051716419
0.554000000000000381,-4.783160911519372505
0.555000000000000382,-4.756007032416652791
0.556000000000000383,-4.729034480822233988
0.557000000000000384,-4.702241404307205386
0.558000000000000385,-4.675625954682410601
0.559000000000000385,-4.649186288720413174
0.560000000000000386,-4.622920568852353362
0.561000000000000387,-4.596826963840149105
0.562000000000000388,-4.570903649424343129
0.563000000000000389,-4.545148808948100694
0.564000000000000390,-4.519560633957641294
0.565000000000000391,-4.494137324779591935
0.566000000000000392,-4.468877091075609265
0.567000000000000393,-4.443778152374721735
0.568000000000000393,-4.418838738583749759
0.569000000000000394,-4.394057090476245264
0.570000000000000395,-4.369431460160386749
0.571000000000000396,-4.344960111526150470
0.572000000000000397,-4.320641320672303110
0.573000000000000398,-4.296473376313470816
0.574000000000000399,-4.272454580167877047
0.575000000000000400,-4.248583247325956158
0.576000000000000401,-4.224857706600416485
0.577000000000000401,-4.201276300858117096
0.578000000000000402,-4.177837387334095709
0.579000000000000403,-4.154539337928218501
0.580000000000000404,-4.131380539484875491
0.581000000000000405,-4.108359394056025238
0.582000000000000406,-4.085474319148092448
0.583000000000000407,-4.062723747953015163
0.584000000000000408,-4.040106129563918458
0.585000000000000409,-4.017619929175731741
0.586000000000000409,-3.995263628271155998
0.587000000000000410,-3.973035724792396195
0.588000000000000411,-3.950934733298947066
0.589000000000000412,-3.928959185111934538
0.590000000000000413,-3.907107628445197101
0.591000000000000414,-3.885378628523652900
0.592000000000000415,-3.863770767689226115
0.593000000000000416,-3.842282645494627502
0.594000000000000417,-3.820912878785437616
0.595000000000000417,-3.799660101770850673
0.596000000000000418,-3.778522966083221579
0.597000000000000419,-3.757500140827062296
0.598000000000000420,-3.736590312617498633
0.599000000000000421,-3.715792185608755460
0.600000000000000422,-3.695104481512834216
0.601000000000000423,-3.674525939608776159
0.602000000000000424,-3.654055316742790716
0.603000000000000425,-3.633691387319556210
0.604000000000000425,-3.613432943284986099
0.605000000000000426,-3.593278794100739582
0.606000000000000427,-3.573227766710867392
0.607000000000000428,-3.553278705500602541
0.608000000000000429,-3.533430472248014986
