# ZnO10m10NBDry_OXIDOLAMBDA4SULFANE-AC
# h[nm],U(h)[kJ/mol]
0.149999999999999994,93.470914890580374390
0.150999999999999995,92.436206236750592780
0.151999999999999996,90.736327647980530742
0.152999999999999997,88.881341018484150140
0.153999999999999998,87.069504395551618359
0.154999999999999999,85.349079878180702963
0.156000000000000000,83.706820278278883052
0.157000000000000001,82.112897510716805982
0.158000000000000002,80.540973409950908035
0.159000000000000002,78.974884663118672279
0.160000000000000003,77.408761159530200757
0.161000000000000004,75.844459026477764496
0.162000000000000005,74.288378444395164024
0.163000000000000006,72.748654970388997754
0.164000000000000007,71.233095800872277437
0.165000000000000008,69.747903337892566356
0.166000000000000009,68.297072864403801873
0.167000000000000010,66.882295516000866087
0.168000000000000010,65.503195924140939610
0.169000000000000011,64.157757804946442093
0.170000000000000012,62.842823964108482926
0.171000000000000013,61.554590675530242549
0.172000000000000014,60.289045735921021674
0.173000000000000015,59.042322986618145819
0.174000000000000016,57.810963545207904701
0.175000000000000017,56.592086005864985054
0.176000000000000018,55.383475384316639634
0.177000000000000018,54.183604607606056902
0.178000000000000019,52.991603817649640007
0.179000000000000020,51.807192473517034159
0.180000000000000021,50.630587847619324293
0.181000000000000022,49.462401511763822270
0.182000000000000023,48.303533162541967272
0.183000000000000024,47.155068892057315111
0.184000000000000025,46.018188930695785643
0.185000000000000026,44.894088066444211904
0.186000000000000026,43.783910423131700895
0.187000000000000027,42.688699065852077297
0.188000000000000028,41.609359980555090885
0.189000000000000029,40.546639317189736573
0.190000000000000030,39.501112355395164855
0.191000000000000031,38.473182409624428146
0.192000000000000032,37.463087798587373811
0.193000000000000033,36.470915026658524027
0.194000000000000034,35.496616431074500042
0.195000000000000034,34.540030711516557460
0.196000000000000035,33.600904955847354927
0.197000000000000036,32.678916989553194128
0.198000000000000037,31.773697093076492592
0.199000000000000038,30.884848340488456842
0.200000000000000039,30.011965007656488780
0.201000000000000040,29.154648673523091418
0.202000000000000041,28.312521791678204153
0.203000000000000042,27.485238640010134503
0.204000000000000042,26.672493663999471636
0.205000000000000043,25.874027315196038046
0.206000000000000044,25.089629552204890217
0.207000000000000045,24.319141219110182561
0.208000000000000046,23.562453547882746818
0.209000000000000047,22.819506049222461286
0.210000000000000048,22.090283062710405204
0.211000000000000049,21.374809234216495923
0.212000000000000050,20.673144178186074527
0.213000000000000050,19.985376566495340001
0.214000000000000051,19.311617865583947662
0.215000000000000052,18.651995920908326809
0.216000000000000053,18.006648563561828524
0.217000000000000054,17.375717389137872004
0.218000000000000055,16.759341834345931943
0.219000000000000056,16.157653653141817784
0.220000000000000057,15.570771871666352126
0.221000000000000058,14.998798280444855635
0.222000000000000058,14.441813503304823385
0.223000000000000059,13.899873665464696160
0.224000000000000060,13.373007668286314598
0.225000000000000061,12.861215065267240121
0.226000000000000062,12.364464522924354384
0.227000000000000063,11.882692841196073275
0.228000000000000064,11.415804500750917683
0.229000000000000065,10.963671698996302339
0.230000000000000066,10.526134832486254922
0.231000000000000066,10.103003380673159839
0.232000000000000067,9.694057144381464042
0.233000000000000068,9.299047791845497457
0.234000000000000069,8.917700665501136825
0.235000000000000070,8.549716803810694543
0.236000000000000071,8.194775134101256242
0.237000000000000072,7.852534794585857014
0.238000000000000073,7.522637546306069289
0.239000000000000073,7.204710238583517778
0.240000000000000074,6.898367294607685274
0.241000000000000075,6.603213186943325930
0.242000000000000076,6.318844875943701922
0.243000000000000077,6.044854187250186861
0.244000000000000078,5.780830107696242948
0.245000000000000079,5.526360981975229514
0.246000000000000080,5.281036595345417695
0.247000000000000081,5.044450130406399779
0.248000000000000081,4.816199988571732149
0.249000000000000082,4.595891469268694074
0.250000000000000111,4.383138302109705897
0.251000000000000112,4.177564029297296422
0.252000000000000113,3.978803237343627952
0.253000000000000114,3.786502638811066301
0.254000000000000115,3.600322006213288351
0.255000000000000115,3.419934961467414158
0.256000000000000116,3.245029625361416148
0.257000000000000117,3.075309132409235424
0.258000000000000118,2.910492017218046623
0.259000000000000119,2.750312479098292684
0.260000000000000120,2.594520532119381606
0.261000000000000121,2.442882048163345310
0.262000000000000122,2.295178700766072666
0.263000000000000123,2.151207817672911027
0.264000000000000123,2.010782150081968478
0.265000000000000124,1.873729566516270761
0.266000000000000125,1.739892679163118405
0.267000000000000126,1.609128410356712280
0.268000000000000127,1.481307506665418883
0.269000000000000128,1.356314007787684961
0.270000000000000129,1.234044677166995285
0.271000000000000130,1.114408400913924568
0.272000000000000131,0.997325561278661787
0.273000000000000131,0.882727390555962166
0.274000000000000132,0.770555310931703707
0.275000000000000133,0.660760265400501368
0.276000000000000134,0.553302044501698953
0.277000000000000135,0.448148613239959026
0.278000000000000136,0.345275442179439507
0.279000000000000137,0.244664846330690272
0.280000000000000138,0.146305335088598554
0.281000000000000139,0.050190976130143519
0.282000000000000139,-0.043679224155874906
0.283000000000000140,-0.135301921457501251
0.284000000000000141,-0.224670013604269941
0.285000000000000142,-0.311773198256822703
0.286000000000000143,-0.396598506845348697
0.287000000000000144,-0.479130813638524278
0.288000000000000145,-0.559353319066110521
0.289000000000000146,-0.637248006641912057
0.290000000000000147,-0.712796073041651157
0.291000000000000147,-0.785978331080595671
0.292000000000000148,-0.856775585510797577
0.293000000000000149,-0.925168981716310901
0.294000000000000150,-0.991140327528652110
0.295000000000000151,-1.054672388513838710
0.296000000000000152,-1.115749157197327035
0.297000000000000153,-1.174356096795070581
0.298000000000000154,-1.230480360107973015
0.299000000000000155,-1.284110984314272841
0.300000000000000155,-1.335239062460352510
0.301000000000000156,-1.383857892505879983
0.302000000000000157,-1.429963104824936826
0.303000000000000158,-1.473552769101194482
0.304000000000000159,-1.514627481583445956
0.305000000000000160,-1.553190433687896554
0.306000000000000161,-1.589247462947072087
0.307000000000000162,-1.622807087311738172
0.308000000000000163,-1.653880523813010317
0.309000000000000163,-1.682481692587370237
0.310000000000000164,-1.708627207257941150
0.311000000000000165,-1.732336352651685729
0.312000000000000166,-1.753631050814961512
0.313000000000000167,-1.772535816269017461
0.314000000000000168,-1.789077701423467559
0.315000000000000169,-1.803286233039689490
0.316000000000000170,-1.815193340607946570
0.317000000000000171,-1.824833277471993309
0.318000000000000171,-1.832242535503591840
0.319000000000000172,-1.837459754096885334
0.320000000000000173,-1.840525624219145673
0.321000000000000174,-1.841482788220417888
0.322000000000000175,-1.840375736070299695
0.323000000000000176,-1.837250698655517933
0.324000000000000177,-1.832155538737449518
0.325000000000000178,-1.825139640134361141
0.326000000000000179,-1.816253795659363846
0.327000000000000179,-1.805550094311266562
0.328000000000000180,-1.793081808182761749
0.329000000000000181,-1.778903279518249336
0.330000000000000182,-1.763069808321785725
0.331000000000000183,-1.745637540885527361
0.332000000000000184,-1.726663359578943346
0.333000000000000185,-1.706204774210636543
0.334000000000000186,-1.684319815246835272
0.335000000000000187,-1.661066929143972803
0.336000000000000187,-1.636504876027325306
0.337000000000000188,-1.610692629923028862
0.338000000000000189,-1.583689281727686193
0.339000000000000190,-1.555553945077385425
0.340000000000000191,-1.526345665256755080
0.341000000000000192,-1.496123331268939038
0.342000000000000193,-1.464945591168035577
0.343000000000000194,-1.432870770738107424
0.344000000000000195,-1.399956795585647118
0.345000000000000195,-1.366261116697017552
0.346000000000000196,-1.331840639497305245
0.347000000000000197,-1.296751656433430266
0.348000000000000198,-1.261049783091532150
0.349000000000000199,-1.224789897846656261
0.350000000000000200,-1.188026085031948620
0.351000000000000201,-1.150811581604247014
0.352000000000000202,-1.113198727273797761
0.353000000000000203,-1.075238918057297877
0.354000000000000203,-1.036982563205668395
0.355000000000000204,-0.998479045451005853
0.356000000000000205,-0.959776684510844746
0.357000000000000206,-0.920922703782234509
0.358000000000000207,-0.881963200152987570
0.359000000000000208,-0.842943116853214214
0.360000000000000209,-0.803906219266276145
0.361000000000000210,-0.764895073614946019
0.362000000000000210,-0.725951028435815382
0.363000000000000211,-0.687114198752550753
0.364000000000000212,-0.648423452856748073
0.365000000000000213,-0.609916401603539660
0.366000000000000214,-0.571629390128099657
0.367000000000000215,-0.533597491888299080
0.368000000000000216,-0.495854504938489427
0.369000000000000217,-0.458432950339102974
0.370000000000000218,-0.421364072607082474
0.371000000000000218,-0.384677842112421342
0.372000000000000219,-0.348402959326922279
0.373000000000000220,-0.312566860832035665
0.374000000000000221,-0.277195726993840375
0.375000000000000222,-0.242314491214337291
0.376000000000000223,-0.207946850669906869
0.377000000000000224,-0.174115278449075206
0.378000000000000225,-0.140841037003691133
0.379000000000000226,-0.108144192829258495
0.380000000000000226,-0.076043632292265601
0.381000000000000227,-0.044557078524168639
0.382000000000000228,-0.013701109303997283
0.383000000000000229,0.016508824146448740
0.384000000000000230,0.046058377528615059
0.385000000000000231,0.074934293065843607
0.386000000000000232,0.103124378403988762
0.387000000000000233,0.130617484880851453
0.388000000000000234,0.157403485229089896
0.389000000000000234,0.183473250774772778
0.390000000000000235,0.208818628191624833
0.391000000000000236,0.233432415868414844
0.392000000000000237,0.257308339944902875
0.393000000000000238,0.280441030069185082
0.394000000000000239,0.302825994927228337
0.395000000000000240,0.324459597592954174
0.396000000000000241,0.345339030745116293
0.397000000000000242,0.365462291794983296
0.398000000000000242,0.384828157966653428
0.399000000000000243,0.403436161369777557
0.400000000000000244,0.421286564102396011
0.401000000000000245,0.438380333419406631
0.402000000000000246,0.454719117000488893
0.403000000000000247,0.470305218349106546
0.404000000000000248,0.485141572352475570
0.405000000000000249,0.499231721030502062
0.406000000000000250,0.512579789499954086
0.407000000000000250,0.525190462178337647
0.408000000000000251,0.537068959250367017
0.409000000000000252,0.548221013418181302
0.410000000000000253,0.558652846955032700
0.411000000000000254,0.568371149080511784
0.412000000000000255,0.577383053674063174
0.413000000000000256,0.585696117341981237
0.414000000000000257,0.593318297851903376
0.415000000000000258,0.600257932947320549
0.416000000000000258,0.606523719553570206
0.417000000000000259,0.612124693385413643
0.418000000000000260,0.617070208965270650
0.419000000000000261,0.621369920060026448
0.420000000000000262,0.625033760543300065
0.421000000000000263,0.628071925689023702
0.422000000000000264,0.630494853901327978
0.423000000000000265,0.632313208884707878
0.424000000000000266,0.633537862257597117
0.425000000000000266,0.634179876611778104
0.426000000000000267,0.634250489019105634
0.427000000000000268,0.633761094986403650
0.428000000000000269,0.632723232858679263
0.429000000000000270,0.631148568670095722
0.430000000000000271,0.629048881441585772
0.431000000000000272,0.626436048923361244
0.432000000000000273,0.623322033780071671
0.433000000000000274,0.619718870215799189
0.434000000000000274,0.615638651035638973
0.435000000000000275,0.611093515140174293
0.436000000000000276,0.606095635448686609
0.437000000000000277,0.600657207246624525
0.438000000000000278,0.594790436952444712
0.439000000000000279,0.588507531298629316
0.440000000000000280,0.581820686921378560
0.441000000000000281,0.574742080353230378
0.442000000000000282,0.567283858412498732
0.443000000000000282,0.559458128983377323
0.444000000000000283,0.551276952180125290
0.445000000000000284,0.542752331888756712
0.446000000000000285,0.533896207679396717
0.447000000000000286,0.524720447082278829
0.448000000000000287,0.515236838220365589
0.449000000000000288,0.505457082791310852
0.450000000000000289,0.495392789391499444
0.451000000000000290,0.485055467174769550
0.452000000000000290,0.474456519838348190
0.453000000000000291,0.463607239928548076
0.454000000000000292,0.452518803458636931
0.455000000000000293,0.441202264831370150
0.456000000000000294,0.429668552058586672
0.457000000000000295,0.417928462270318879
0.458000000000000296,0.405992657505845511
0.459000000000000297,0.393871660779171739
0.460000000000000298,0.381575852411389971
0.461000000000000298,0.369115466622515320
0.462000000000000299,0.356500588375304683
0.463000000000000300,0.343741150463758582
0.464000000000000301,0.330846930838948228
0.465000000000000302,0.317827550164975492
0.466000000000000303,0.304692469597870885
0.467000000000000304,0.291450988780373899
0.468000000000000305,0.278112244045584267
0.469000000000000306,0.264685206822587005
0.470000000000000306,0.251178682237232553
0.471000000000000307,0.237601307901376430
0.472000000000000308,0.223961552883942788
0.473000000000000309,0.210267716857324150
0.474000000000000310,0.196527929412733254
0.475000000000000311,0.182750149538166540
0.476000000000000312,0.168942165252887355
0.477000000000000313,0.155111593392285141
0.478000000000000314,0.141265879537245342
0.479000000000000314,0.127412298082133862
0.480000000000000315,0.113557952435765358
0.481000000000000316,0.099709775349692442
0.482000000000000317,0.085874529368425781
0.483000000000000318,0.072058807396186114
0.484000000000000319,0.058269033375000875
0.485000000000000320,0.044511463069028548
0.486000000000000321,0.030792184950139367
0.487000000000000322,0.017117121179891327
0.488000000000000322,0.003492028683184911
0.489000000000000323,-0.010077499691048052
0.490000000000000324,-0.023586033926594994
0.491000000000000325,-0.037028305518535629
0.492000000000000326,-0.050399206077884506
0.493000000000000327,-0.063693785866462030
0.494000000000000328,-0.076907252266003062
0.495000000000000329,-0.090034968185415357
0.496000000000000330,-0.103072450409976660
0.497000000000000330,-0.116015367896182983
0.498000000000000331,-0.128859540015769769
0.499000000000000332,-0.141600934752404622
0.500000000000000333,-0.154235666854416115
0.501000000000000334,-0.166759995946756168
0.502000000000000335,-0.179170324605400999
0.503000000000000336,-0.191463196397180013
0.504000000000000337,-0.203635293888012298
0.505000000000000338,-0.215683436622357366
0.506000000000000338,-0.227604579076647162
0.507000000000000339,-0.239395808589338899
0.508000000000000340,-0.251054343270126323
0.509000000000000341,-0.262577529890800132
0.510000000000000342,-0.273962841760091724
0.511000000000000343,-0.285207876584820164
0.512000000000000344,-0.296310354319501701
0.513000000000000345,-0.307268115006544329
0.514000000000000346,-0.318079116609090051
0.515000000000000346,-0.328741432838383973
0.516000000000000347,-0.339253250977589516
0.517000000000000348,-0.349612869703839035
0.518000000000000349,-0.359818696910198799
0.519000000000000350,-0.369869247529229506
0.520000000000000351,-0.379763141359690082
0.521000000000000352,-0.389499100897903849
0.522000000000000353,-0.399075949175182187
0.523000000000000353,-0.408492607602733149
0.524000000000000354,-0.417748093825293321
0.525000000000000355,-0.426841519584775675
0.526000000000000356,-0.435772088595062612
0.527000000000000357,-0.444539094429113657
0.528000000000000358,-0.453141918419418921
0.529000000000000359,-0.461580027572803975
0.530000000000000360,-0.469852972500551858
0.531000000000000361,-0.477960385364741558
0.532000000000000361,-0.485901977841638133
0.533000000000000362,-0.493677539102948537
0.534000000000000363,-0.501286933815680569
0.535000000000000364,-0.508730100161332466
0.536000000000000365,-0.516007047875039371
0.537000000000000366,-0.523117856305336248
0.538000000000000367,-0.530062672495056564
0.539000000000000368,-0.536841709283977564
0.540000000000000369,-0.543455243433620394
0.541000000000000369,-0.549903613774740729
0.542000000000000370,-0.556187219377870190
0.543000000000000371,-0.562306517747331758
0.544000000000000372,-0.568262023039072695
0.545000000000000373,-0.574054304302618612
0.546000000000000374,-0.579683983747459552
0.547000000000000375,-0.585151735034096454
0.548000000000000376,-0.590458281590017453
0.549000000000000377,-0.595604394950752125
0.550000000000000377,-0.600590893126223824
0.551000000000000378,-0.605418638992509028
0.552000000000000379,-0.610088538709155914
0.553000000000000380,-0.614601540162139859
0.554000000000000381,-0.618958631432529272
0.555000000000000382,-0.623160839290950563
0.556000000000000383,-0.627209227717814177
0.557000000000000384,-0.631104896449402042
0.558000000000000385,-0.634848979549722303
0.559000000000000385,-0.638442644008177518
0.560000000000000386,-0.641887088362952052
0.561000000000000387,-0.645183541350089484
0.562000000000000388,-0.648333260578163317
0.563000000000000389,-0.651337531228478039
0.564000000000000390,-0.654197664780650889
0.565000000000000391,-0.656914997763503927
0.566000000000000392,-0.659490890531098439
0.567000000000000393,-0.661926726063787885
0.568000000000000393,-0.664223908794115636
0.569000000000000394,-0.666383863457406855
0.570000000000000395,-0.668408033966873538
0.571000000000000396,-0.670297882313022120
0.572000000000000397,-0.672054887487214536
0.573000000000000398,-0.673680544429121619
0.574000000000000399,-0.675176362997901292
0.575000000000000400,-0.676543866966847651
0.576000000000000401,-0.677784593041294237
0.577000000000000401,-0.678900089899558745
0.578000000000000402,-0.679891917256637446
0.579000000000000403,-0.680761644950445666
0.580000000000000404,-0.681510852050341343
0.581000000000000405,-0.682141125987656083
0.582000000000000406,-0.682654061708001469
0.583000000000000407,-0.683051260845049968
0.584000000000000408,-0.683334330915559063
0.585000000000000409,-0.683504884535327317
0.586000000000000409,-0.683564538655833109
0.587000000000000410,-0.683514913821276715
0.588000000000000411,-0.683357633445709767
0.589000000000000412,-0.683094323110030155
0.590000000000000413,-0.682726609878489543
0.591000000000000414,-0.682256121634474910
0.592000000000000415,-0.681684486435265691
0.593000000000000416,-0.681013331885455542
0.594000000000000417,-0.680244284528772059
0.595000000000000417,-0.679378969258016552
0.596000000000000418,-0.678419008742775942
0.597000000000000419,-0.677366022874700824
0.598000000000000420,-0.676221628229972116
0.599000000000000421,-0.674987437548739466
0.600000000000000422,-0.673665059231195018
0.601000000000000423,-0.672256096850008755
0.602000000000000424,-0.670762148678842984
0.603000000000000425,-0.669184807236664958
0.604000000000000425,-0.667525658847536785
0.605000000000000426,-0.665786283215642927
0.606000000000000427,-0.663968253015259746
0.607000000000000428,-0.662073133495339805
0.608000000000000429,-0.660102482098539722
0.609000000000000430,-0.658057848094263154
0.610000000000000431,-0.655940772225604096
0.611000000000000432,-0.653752786369786065
0.612000000000000433,-0.651495413211894858
0.613000000000000433,-0.649170165931635235
0.614000000000000434,-0.646778547902814083
0.615000000000000435,-0.644322052405294499
0.616000000000000436,-0.641802162349183303
