# CNT15-COOH-3_HMD
# h[nm],U(h)[kJ/mol]
0.149999999999999994,140.530464968342982957
0.150999999999999995,139.703345409288431256
0.151999999999999996,137.392946163525607517
0.152999999999999997,134.846610840093205752
0.153999999999999998,132.493234609476729702
0.154999999999999999,130.390567870801930894
0.156000000000000000,128.460911350904325445
0.157000000000000001,126.604480171449978343
0.158000000000000002,124.745324042352734750
0.159000000000000002,122.842623607351669079
0.160000000000000003,120.886269537334698043
0.161000000000000004,118.887049840247456700
0.162000000000000005,116.866628174000680929
0.163000000000000006,114.849532403696827032
0.164000000000000007,112.857760214311880986
0.165000000000000008,110.907810163167255268
0.166000000000000009,109.009619503945103247
0.167000000000000010,107.166820450960315725
0.168000000000000010,105.377784304879085653
0.169000000000000011,103.637032057805413388
0.170000000000000012,101.936708791965415344
0.171000000000000013,100.267926323588639548
0.172000000000000014,98.621865431540783220
0.173000000000000015,96.990593905449259182
0.174000000000000016,95.367601386185512524
0.175000000000000017,93.748079941768480694
0.176000000000000018,92.128994304425987139
0.177000000000000018,90.508991242591719129
0.178000000000000019,88.888196694087426408
0.179000000000000020,87.267944477578822671
0.180000000000000021,85.650473473862717810
0.181000000000000022,84.038622452713056532
0.182000000000000023,82.435544111856614791
0.183000000000000024,80.844452951827079801
0.184000000000000025,79.268415640160455382
0.185000000000000026,77.710187644906341120
0.186000000000000026,76.172096141076323761
0.187000000000000027,74.655966436108371909
0.188000000000000028,73.163087298592444085
0.189000000000000029,71.694209465001591752
0.190000000000000030,70.249571095175099344
0.191000000000000031,68.828943909495464482
0.192000000000000032,67.431694043796198912
0.193000000000000033,66.056852194025651670
0.194000000000000034,64.703188301901519708
0.195000000000000034,63.369286783373510730
0.196000000000000035,62.053619068268496051
0.197000000000000036,60.754610961138169500
0.198000000000000037,59.470703021552694167
0.199000000000000038,58.200402778622219557
0.200000000000000039,56.942328129311896134
0.201000000000000040,55.695241719445995443
0.202000000000000041,54.458076471229368565
0.203000000000000042,53.229952706105926552
0.204000000000000042,52.010187523540686527
0.205000000000000043,50.798297242940847696
0.206000000000000044,49.593993806157676829
0.207000000000000045,48.397176080686840294
0.208000000000000046,47.207917007389823993
0.209000000000000047,46.026447509319119433
0.210000000000000048,44.853138027353644190
0.211000000000000049,43.688478480324548059
0.212000000000000050,42.533057367757848510
0.213000000000000050,41.387540647053974396
0.214000000000000051,40.252650927812069881
0.215000000000000052,39.129147437279250710
0.216000000000000053,38.017807125059697171
0.217000000000000054,36.919407194135899886
0.218000000000000055,35.834709270285117100
0.219000000000000056,34.764445354010049982
0.220000000000000057,33.709305638649048831
0.221000000000000058,32.669928225595683102
0.222000000000000058,31.646890722473084878
0.223000000000000059,30.640703672442135996
0.224000000000000060,29.651805732170323893
0.225000000000000061,28.680560491859438343
0.226000000000000062,27.727254812556942909
0.227000000000000063,26.792098543153770152
0.228000000000000064,25.875225471382162112
0.229000000000000065,24.976695359150006936
0.230000000000000066,24.096496912092341347
0.231000000000000066,23.234551535709506709
0.232000000000000067,22.390717735370749608
0.233000000000000068,21.564796024298367172
0.234000000000000069,20.756534211970379289
0.235000000000000070,19.965632954791352915
0.236000000000000071,19.191751461034197490
0.237000000000000072,18.434513252642744874
0.238000000000000073,17.693511897249699416
0.239000000000000073,16.968316634486164673
0.240000000000000074,16.258477831151957105
0.241000000000000075,15.563532209941428164
0.242000000000000076,14.883007806054223465
0.243000000000000077,14.216428615080229036
0.244000000000000078,13.563318903970326801
0.245000000000000079,12.923207164644992417
0.246000000000000080,12.295629696831582578
0.247000000000000081,11.680133813046431612
0.248000000000000081,11.076280664259286368
0.249000000000000082,10.483647689708128325
0.250000000000000111,9.901830698598043767
0.251000000000000112,9.330445595049891239
0.252000000000000113,8.769129760697591536
0.253000000000000114,8.217543111811821177
0.254000000000000115,7.675368849787057357
0.255000000000000115,7.142313925320715740
0.256000000000000116,6.618109237673839296
0.257000000000000117,6.102509591080890416
0.258000000000000118,5.595293430712571237
0.259000000000000119,5.096262380630186328
0.260000000000000120,4.605240605943594190
0.261000000000000121,4.122074020934275218
0.262000000000000122,3.646629364263412665
0.263000000000000123,3.178793161586945804
0.264000000000000123,2.718470594972247856
0.265000000000000124,2.265584297484048104
0.266000000000000125,1.820073090202875887
0.267000000000000126,1.381890677781608456
0.268000000000000127,0.951004317452116554
0.269000000000000128,0.527393475184995464
0.270000000000000129,0.111048481492882975
0.271000000000000130,-0.298030801833133407
0.272000000000000131,-0.699836293942188492
0.273000000000000131,-1.094352977132687643
0.274000000000000132,-1.481560141193086988
0.275000000000000133,-1.861432583076688463
0.276000000000000134,-2.233941756122073574
0.277000000000000135,-2.599056863984453791
0.278000000000000136,-2.956745895340656460
0.279000000000000137,-3.306976596267117596
0.280000000000000138,-3.649717377966455789
0.281000000000000139,-3.984938158234991867
0.282000000000000139,-4.312611135718379174
0.283000000000000140,-4.632711496599718259
0.284000000000000141,-4.945218053902656230
0.285000000000000142,-5.250113820074993498
0.286000000000000143,-5.547386513946966247
0.287000000000000144,-5.837029003535514349
0.288000000000000145,-6.119039686494788910
0.289000000000000146,-6.393422810294211445
0.290000000000000147,-6.660188734445137371
0.291000000000000147,-6.919354137294085660
0.292000000000000148,-7.170942170061569421
0.293000000000000149,-7.414982560929841426
0.294000000000000150,-7.651511672076604320
0.295000000000000151,-7.880572512614826053
0.296000000000000152,-8.102214710435927003
0.297000000000000153,-8.316494445965911808
0.298000000000000154,-8.523474350835256175
0.299000000000000155,-8.723223374434576627
0.300000000000000155,-8.915816621282795396
0.301000000000000156,-9.101335162073496576
0.302000000000000157,-9.279865821192158748
0.303000000000000158,-9.451500943411545563
0.304000000000000159,-9.616338142378811682
0.305000000000000160,-9.774480033405549051
0.306000000000000161,-9.926033952964008478
0.307000000000000162,-10.071111667179263094
0.308000000000000163,-10.209829071490229779
0.309000000000000163,-10.342305883532883826
0.310000000000000164,-10.468665331178204525
0.311000000000000165,-10.589033837535488658
0.312000000000000166,-10.703540704610560397
0.313000000000000167,-10.812317797187914081
0.314000000000000168,-10.915499228386979169
0.315000000000000169,-11.013221048226309762
0.316000000000000170,-11.105620936415649069
0.317000000000000171,-11.192837900484835956
0.318000000000000171,-11.275011980251480992
0.319000000000000172,-11.352283959525911072
0.320000000000000173,-11.424795085852197829
0.321000000000000174,-11.492686798988852814
0.322000000000000175,-11.556100468742124932
0.323000000000000176,-11.615177142678001942
0.324000000000000177,-11.670057304157456457
0.325000000000000178,-11.720880641061594218
0.326000000000000179,-11.767785825501258401
0.327000000000000179,-11.810910304736518484
0.328000000000000180,-11.850390103468146918
0.329000000000000181,-11.886359637603693074
0.330000000000000182,-11.918951539545250995
0.331000000000000183,-11.948296494995664929
0.332000000000000184,-11.974523091232496697
0.333000000000000185,-11.997757676756448220
0.334000000000000186,-12.018124232181962796
0.335000000000000187,-12.035744252201842741
0.336000000000000187,-12.050736638426519320
0.337000000000000188,-12.063217602869162448
0.338000000000000189,-12.073300581823364297
0.339000000000000190,-12.081096159857224848
0.340000000000000191,-12.086712003628379719
0.341000000000000192,-12.090252805207960307
0.342000000000000193,-12.091820234587135729
0.343000000000000194,-12.091512901028320215
0.344000000000000195,-12.089426322913316980
0.345000000000000195,-12.085652905733883955
0.346000000000000196,-12.080281927863996572
0.347000000000000197,-12.073399533750221124
0.348000000000000198,-12.065088734154128858
0.349000000000000199,-12.055429413080526402
0.350000000000000200,-12.044498341026345756
0.351000000000000201,-12.032369194187211292
0.352000000000000202,-12.019112579262177576
0.353000000000000203,-12.004796063501951053
0.354000000000000203,-11.989484209651120494
0.355000000000000204,-11.973238615441365695
0.356000000000000205,-11.956117957299918331
0.357000000000000206,-11.938178037945212040
0.358000000000000207,-11.919471837550002391
0.359000000000000208,-11.900049568161209734
0.360000000000000209,-11.879958731075225487
0.361000000000000210,-11.859244176876694965
0.362000000000000210,-11.837948167859240201
0.363000000000000211,-11.816110442556455595
0.364000000000000212,-11.793768282122117697
0.365000000000000213,-11.770956578308929608
0.366000000000000214,-11.747707902805826663
0.367000000000000215,-11.724052577704345168
0.368000000000000216,-11.700018746875446851
0.369000000000000217,-11.675632448048357759
0.370000000000000218,-11.650917685393967105
0.371000000000000218,-11.625896502425181467
0.372000000000000219,-11.600589055037344721
0.373000000000000220,-11.575013684521671564
0.374000000000000221,-11.549186990394579411
0.375000000000000222,-11.523123902895388682
0.376000000000000223,-11.496837755014736260
0.377000000000000224,-11.470340353924783017
0.378000000000000225,-11.443642051691586659
0.379000000000000226,-11.416751815158653116
0.380000000000000226,-11.389677294899362536
0.381000000000000227,-11.362424893143607818
0.382000000000000228,-11.334999830592691339
0.383000000000000229,-11.307406212043442650
0.384000000000000230,-11.279647090750204441
0.385000000000000231,-11.251724531460522982
0.386000000000000232,-11.223639672066743955
0.387000000000000233,-11.195392783822592619
0.388000000000000234,-11.166983330079721881
0.389000000000000234,-11.138410023505407764
0.390000000000000235,-11.109670881747844007
0.391000000000000236,-11.080763281521260666
0.392000000000000237,-11.051684011087747450
0.393000000000000238,-11.022429321117879653
0.394000000000000239,-10.992994973916438539
0.395000000000000240,-10.963376291004077956
0.396000000000000241,-10.933568199049727099
0.397000000000000242,-10.903565274152263953
0.398000000000000242,-10.873361784473713598
0.399000000000000243,-10.842951731229391044
0.400000000000000244,-10.812328888043625241
0.401000000000000245,-10.781486838682662111
0.402000000000000246,-10.750419013178737160
0.403000000000000247,-10.719118722362203755
0.404000000000000248,-10.687579190820585495
0.405000000000000249,-10.655793588305670028
0.406000000000000250,-10.623755059611600160
0.407000000000000250,-10.591456752948849029
0.408000000000000251,-10.558891846840264606
0.409000000000000252,-10.526053575567177134
0.410000000000000253,-10.492935253194463741
0.411000000000000254,-10.459530296204963662
0.412000000000000255,-10.425832244774326796
0.413000000000000256,-10.391834782718545327
0.414000000000000257,-10.357531756146901358
0.415000000000000258,-10.322917190853992508
0.416000000000000258,-10.287985308484723035
0.417000000000000259,-10.252730541506792861
0.418000000000000260,-10.217147547025550836
0.419000000000000261,-10.181231219476060801
0.420000000000000262,-10.144976702227733512
0.421000000000000263,-10.108379398136758454
0.422000000000000264,-10.071434979081375971
0.423000000000000265,-10.034139394515417365
0.424000000000000266,-9.996488879075036138
0.425000000000000266,-9.958479959273345727
0.426000000000000267,-9.920109459317668410
0.427000000000000268,-9.881374506083540510
0.428000000000000269,-9.842272533279398772
0.429000000000000270,-9.802801284835402029
0.430000000000000271,-9.762958817549371560
0.431000000000000272,-9.722743503022490685
0.432000000000000273,-9.682154028916647448
0.433000000000000274,-9.641189399565044837
0.434000000000000274,-9.599848935966786456
0.435000000000000275,-9.558132275195944771
0.436000000000000276,-9.516039369254619018
0.437000000000000277,-9.473570483399052833
0.438000000000000278,-9.430726193967258197
0.439000000000000279,-9.387507385735792909
0.440000000000000280,-9.343915248832681542
0.441000000000000281,-9.299951275232871239
0.442000000000000282,-9.255617254861897791
0.443000000000000282,-9.210915271332492438
0.444000000000000283,-9.165847697338628919
0.445000000000000284,-9.120417189730275709
0.446000000000000285,-9.074626684291736467
0.447000000000000286,-9.028479390245763625
0.448000000000000287,-8.981978784504615732
0.449000000000000288,-8.935128605688941406
0.450000000000000289,-8.887932847934278513
0.451000000000000290,-8.840395754504545067
0.452000000000000290,-8.792521811231148732
0.453000000000000291,-8.744315739795421649
0.454000000000000292,-8.695782490871879489
0.455000000000000293,-8.646927237148624101
0.456000000000000294,-8.597755366240946273
0.457000000000000295,-8.548272473513382153
0.458000000000000296,-8.498484354824745068
0.459000000000000297,-8.448396999210299185
0.460000000000000298,-8.398016581514339052
0.461000000000000298,-8.347349454986053630
0.462000000000000299,-8.296402143850873045
0.463000000000000300,-8.245181335868867478
0.464000000000000301,-8.193693874891405216
0.465000000000000302,-8.141946753426498873
0.466000000000000303,-8.089947105222858426
0.467000000000000304,-8.037702197882151012
0.468000000000000305,-7.985219425508445212
0.469000000000000306,-7.932506301403222437
0.470000000000000306,-7.879570450814169291
0.471000000000000307,-7.826419603744956710
0.472000000000000308,-7.773061587833427488
0.473000000000000309,-7.719504321304588856
0.474000000000000310,-7.665755806004748152
0.475000000000000311,-7.611824120522482140
0.476000000000000312,-7.557717413402090578
0.477000000000000313,-7.503443896454196071
0.478000000000000314,-7.449011838168445365
0.479000000000000314,-7.394429557232477634
0.480000000000000315,-7.339705416161042884
0.481000000000000316,-7.284847815039073637
0.482000000000000317,-7.229865185381751935
0.483000000000000318,-7.174765984114746864
0.484000000000000319,-7.119558687677201014
0.485000000000000320,-7.064251786249938547
0.486000000000000321,-7.008853778110919919
0.487000000000000322,-6.953373164119916794
0.488000000000000322,-6.897818442333859323
0.489000000000000323,-6.842198102754442068
0.490000000000000324,-6.786520622208934483
0.491000000000000325,-6.730794459365196936
0.492000000000000326,-6.675028049881568393
0.493000000000000327,-6.619229801692226189
0.494000000000000328,-6.563408090428197283
0.495000000000000329,-6.507571254974289232
0.496000000000000330,-6.451727593161775687
0.497000000000000330,-6.395885357596807985
0.498000000000000331,-6.340052751623913352
0.499000000000000332,-6.284237925424479343
0.500000000000000333,-6.228448972249193361
0.501000000000000334,-6.172693924783891894
0.502000000000000335,-6.116980751647853154
0.503000000000000336,-6.061317354023569415
0.504000000000000337,-6.005711562416800930
0.505000000000000338,-5.950171133545755886
0.506000000000000338,-5.894703747358066792
0.507000000000000339,-5.839317004174126247
0.508000000000000340,-5.784018421955297029
0.509000000000000341,-5.728815433695547910
0.510000000000000342,-5.673715384934639339
0.511000000000000343,-5.618725531391421057
0.512000000000000344,-5.563853036715263656
0.513000000000000345,-5.509104970353929431
0.514000000000000346,-5.454488305536022708
0.515000000000000346,-5.400009917365989232
0.516000000000000347,-5.345676581029806584
0.517000000000000348,-5.291494970109416052
0.518000000000000349,-5.237471655003669291
0.519000000000000350,-5.183613101454024985
0.520000000000000351,-5.129925669172608060
0.521000000000000352,-5.076415610570828463
0.522000000000000353,-5.023089069586206712
0.523000000000000353,-4.969952080605343880
0.524000000000000354,-4.917010567481043815
0.525000000000000355,-4.864270342641134448
0.526000000000000356,-4.811737106287099053
0.527000000000000357,-4.759416445680286323
0.528000000000000358,-4.707313834513355388
0.529000000000000359,-4.655434632365151870
0.530000000000000360,-4.603784084236466789
0.531000000000000361,-4.552367320164859343
0.532000000000000361,-4.501189354916165897
0.533000000000000362,-4.450255087750725203
0.534000000000000363,-4.399569302262110959
0.535000000000000364,-4.349136666286304909
0.536000000000000365,-4.298961731879205495
0.537000000000000366,-4.249048935360471013
0.538000000000000367,-4.199402597421455496
0.539000000000000368,-4.150026923295542680
0.540000000000000369,-4.100926002988442676
0.541000000000000369,-4.052103811566881042
0.542000000000000370,-4.003564209503400306
0.543000000000000371,-3.955310943075487362
0.544000000000000372,-3.907347644817107835
0.545000000000000373,-3.859677834020732945
0.546000000000000374,-3.812304917287944850
0.547000000000000375,-3.765232189126887619
0.548000000000000376,-3.718462832594726653
0.549000000000000377,-3.671999919983294891
0.550000000000000377,-3.625846413546206293
0.551000000000000378,-3.580005166265741057
0.552000000000000379,-3.534478922657804389
0.553000000000000380,-3.489270319613275717
0.554000000000000381,-3.444381887274128307
0.555000000000000382,-3.399816049942816054
0.556000000000000383,-3.355575127023155968
0.557000000000000384,-3.311661333991450906
0.558000000000000385,-3.268076783396077101
0.559000000000000385,-3.224823485884277030
0.560000000000000386,-3.181903351254604662
0.561000000000000387,-3.139318189533655712
0.562000000000000388,-3.097069712075699588
0.563000000000000389,-3.055159532683875412
0.564000000000000390,-3.013589168751635849
0.565000000000000391,-2.972360042423157545
0.566000000000000392,-2.931473481771457834
0.567000000000000393,-2.890930721993052899
0.568000000000000393,-2.850732906617873930
0.569000000000000394,-2.810881088733344857
0.570000000000000395,-2.771376232221543834
0.571000000000000396,-2.732219213008195702
0.572000000000000397,-2.693410820322623689
0.573000000000000398,-2.654951757967434212
0.574000000000000399,-2.616842645597104333
0.575000000000000400,-2.579084020004301259
0.576000000000000401,-2.541676336413140724
0.577000000000000401,-2.504619969778430821
0.578000000000000402,-2.467915216089887842
0.579000000000000403,-2.431562293680580300
0.580000000000000404,-2.395561344538768012
0.581000000000000405,-2.359912435622185889
0.582000000000000406,-2.324615560174142725
0.583000000000000407,-2.289670639040529920
0.584000000000000408,-2.255077521987131739
0.585000000000000409,-2.220835989016426204
0.586000000000000409,-2.186945751683207373
0.587000000000000410,-2.153406454408429482
0.588000000000000411,-2.120217675790516232
0.589000000000000412,-2.087378929913644932
0.590000000000000413,-2.054889667652291418
0.591000000000000414,-2.022749277971538362
0.592000000000000415,-1.990957089222610943
0.593000000000000416,-1.959512370433006412
0.594000000000000417,-1.928414332590798308
0.595000000000000417,-1.897662129922693897
0.596000000000000418,-1.867254861165110968
0.597000000000000419,-1.837191570828203835
0.598000000000000420,-1.807471250452047595
0.599000000000000421,-1.778092839854837903
0.600000000000000422,-1.749055228372554893
0.601000000000000423,-1.720357256089806608
0.602000000000000424,-1.691997715061444696
0.603000000000000425,-1.663975350524639296
0.604000000000000425,-1.636288862101088926
0.605000000000000426,-1.608936904989039407
0.606000000000000427,-1.581918091144905336
0.607000000000000428,-1.555230990454018691
0.608000000000000429,-1.528874131890575416
0.609000000000000430,-1.502846004666134494
0.610000000000000431,-1.477145059366840041
