# CNT15-COOH-3_PRO-AC
# h[nm],U(h)[kJ/mol]
0.149999999999999994,146.994867883186003610
0.150999999999999995,145.725936063413115562
0.151999999999999996,143.734106738396974379
0.152999999999999997,141.635709158190877588
0.153999999999999998,139.636946570609296714
0.154999999999999999,137.760708739017502467
0.156000000000000000,135.965120906666385281
0.157000000000000001,134.199808455860591039
0.158000000000000002,132.428057889555532256
0.159000000000000002,130.631657622251935891
0.160000000000000003,128.808034292745389848
0.161000000000000004,126.964893690045101948
0.162000000000000005,125.114945590464429870
0.163000000000000006,123.271785246843890604
0.164000000000000007,121.447191913979196443
0.165000000000000008,119.649708890563744035
0.166000000000000009,117.884213364150497227
0.167000000000000010,116.152157823486248844
0.168000000000000010,114.452201392224353071
0.169000000000000011,112.781010462742386835
0.170000000000000012,111.134072308766661763
0.171000000000000013,109.506422481097416721
0.172000000000000014,107.893232599704063546
0.173000000000000015,106.290239018740479082
0.174000000000000016,104.694015912829144099
0.175000000000000017,103.102110515592542583
0.176000000000000018,101.513065595700979316
0.177000000000000018,99.926356691084464501
0.178000000000000019,98.342270756746955840
0.179000000000000020,96.761750002649890234
0.180000000000000021,95.186220774604294093
0.181000000000000022,93.617423054672457283
0.182000000000000023,92.057251992024930587
0.183000000000000024,90.507619106209205029
0.184000000000000025,88.970337584938846476
0.185000000000000026,87.447033485390505803
0.186000000000000026,85.939082634953919637
0.187000000000000027,84.447571567420808947
0.188000000000000028,82.973279854184397664
0.189000000000000029,81.516680617869340608
0.190000000000000030,80.077955767649726226
0.191000000000000031,78.657022495714045363
0.192000000000000032,77.253567755246621118
0.193000000000000033,75.867087743812632539
0.194000000000000034,74.496929794108524447
0.195000000000000034,73.142334488273576198
0.196000000000000035,71.802476232855681815
0.197000000000000036,70.476500937389289447
0.198000000000000037,69.163559815322386726
0.199000000000000038,67.862838662141513169
0.200000000000000039,66.573582256798800927
0.201000000000000040,65.295113777117308018
0.202000000000000041,64.026849318466020122
0.203000000000000042,62.768307760156133668
0.204000000000000042,61.519116339423263184
0.205000000000000043,60.279012372942609943
0.206000000000000044,59.047841615321502218
0.207000000000000045,57.825553767733254062
0.208000000000000046,56.612195652434159854
0.209000000000000047,55.407902554682678442
0.210000000000000048,54.212888206505546407
0.211000000000000049,53.027433850328520748
0.212000000000000050,51.851876777745829372
0.213000000000000050,50.686598692224436036
0.214000000000000051,49.532014196451669363
0.215000000000000052,48.388559657071688491
0.216000000000000053,47.256682653064203237
0.217000000000000054,46.136832170022884725
0.218000000000000055,45.029449661824386908
0.219000000000000056,43.934961064135833908
0.220000000000000057,42.853769811162862879
0.221000000000000058,41.786250878123993857
0.222000000000000058,40.732745847111104354
0.223000000000000059,39.693558973154594582
0.224000000000000060,38.668954210237913571
0.225000000000000061,37.659153143448293122
0.226000000000000062,36.664333763106853326
0.227000000000000063,35.684630009274130202
0.228000000000000064,34.720132010148716972
0.229000000000000065,33.770886935236475779
0.230000000000000066,32.836900383453283325
0.231000000000000066,31.918138227225558268
0.232000000000000067,31.014528835892384961
0.233000000000000068,30.125965605024987326
0.234000000000000069,29.252309722427753513
0.235000000000000070,28.393393106356960232
0.236000000000000071,27.549021456700756971
0.237000000000000072,26.718977365340215613
0.238000000000000073,25.903023437518935879
0.239000000000000073,25.100905381665931770
0.240000000000000074,24.312355030642187614
0.241000000000000075,23.537093262739752220
0.242000000000000076,22.774832795883689585
0.243000000000000077,22.025280833325009411
0.244000000000000078,21.288141543631095232
0.245000000000000079,20.563118361952216873
0.246000000000000080,19.849916103356946451
0.247000000000000081,19.148242882475130955
0.248000000000000081,18.457811836769671743
0.249000000000000082,17.778342653481207236
0.250000000000000111,17.109562902665413020
0.251000000000000112,16.451209180786236175
0.252000000000000113,15.803028071055731374
0.253000000000000114,15.164776928147272628
0.254000000000000115,14.536224496067223555
0.255000000000000115,13.917151368880652740
0.256000000000000116,13.307350304666178076
0.257000000000000117,12.706626403547938153
0.258000000000000118,12.114797160942291754
0.259000000000000119,11.531692407280738522
0.260000000000000120,10.957154145452335570
0.261000000000000121,10.391036297066799321
0.262000000000000122,9.833204368390477512
0.263000000000000123,9.283535046470571928
0.264000000000000123,8.741915735551605948
0.265000000000000124,8.208244043418407188
0.266000000000000125,7.682427226783754115
0.267000000000000126,7.164381604288358574
0.268000000000000127,6.654031945106136270
0.269000000000000128,6.151310840559387039
0.270000000000000129,5.656158065553164249
0.271000000000000130,5.168519936043127316
0.272000000000000131,4.688348668164758593
0.273000000000000131,4.215601744075692991
0.274000000000000132,3.750241289005121104
0.275000000000000133,3.292233463465306986
0.276000000000000134,2.841547874065021073
0.277000000000000135,2.398157005875638070
0.278000000000000136,1.962035678836807406
0.279000000000000137,1.533160530254718656
0.280000000000000138,1.111509525040818680
0.281000000000000139,0.697061494961938033
0.282000000000000139,0.289795707826899007
0.283000000000000140,-0.110308532783612925
0.284000000000000141,-0.503272256925810790
0.285000000000000142,-0.889117166783720103
0.286000000000000143,-1.267865944420186963
0.287000000000000144,-1.639542529174322194
0.288000000000000145,-2.004172365276523760
0.289000000000000146,-2.361782620411754685
0.290000000000000147,-2.712402376101615165
0.291000000000000147,-3.056062790892533965
0.292000000000000148,-3.392797237436956159
0.293000000000000149,-3.722641414633922174
0.294000000000000150,-4.045633436060323440
0.295000000000000151,-4.361813895972054489
0.296000000000000152,-4.671225914189429673
0.297000000000000153,-4.973915161202753232
0.298000000000000154,-5.269929864844841383
0.299000000000000155,-5.559320799877083275
0.300000000000000155,-5.842141261826793830
0.301000000000000156,-6.118447026396077959
0.302000000000000157,-6.388296295738667752
0.303000000000000158,-6.651749632869884188
0.304000000000000159,-6.908869885439609781
0.305000000000000160,-7.159722100057285488
0.306000000000000161,-7.404373428314086070
0.307000000000000162,-7.642893025600048240
0.308000000000000163,-7.875351943764296259
0.309000000000000163,-8.101823018614933147
0.310000000000000164,-8.322380753202638815
0.311000000000000165,-8.537101197778074635
0.312000000000000166,-8.746061827259513421
0.313000000000000167,-8.949341416992899312
0.314000000000000168,-9.147019917533048883
0.315000000000000169,-9.339178329121605060
0.316000000000000170,-9.525898576485552383
0.317000000000000171,-9.707263384528779682
0.318000000000000171,-9.883356155439926738
0.319000000000000172,-10.054260847691766756
0.320000000000000173,-10.220061857360635216
0.321000000000000174,-10.380843902150092006
0.322000000000000175,-10.536691908460158018
0.323000000000000176,-10.687690901802557875
0.324000000000000177,-10.833925900823766497
0.325000000000000178,-10.975481815160232912
0.326000000000000179,-11.112443347316252940
0.327000000000000179,-11.244894898721096155
0.328000000000000180,-11.372920480092004070
0.329000000000000181,-11.496603626200471382
0.330000000000000182,-11.616027315112308571
0.331000000000000183,-11.731273891947477495
0.332000000000000184,-11.842424997182048330
0.333000000000000185,-11.949561499493789540
0.334000000000000186,-12.052763433133298676
0.335000000000000187,-12.152109939784699222
0.336000000000000187,-12.247679214864055197
0.337000000000000188,-12.339548458188490443
0.338000000000000189,-12.427793828936680498
0.339000000000000190,-12.512490404809135214
0.340000000000000191,-12.593712145286412252
0.341000000000000192,-12.671531858874750753
0.342000000000000193,-12.746021174220331318
0.343000000000000194,-12.817250514967103214
0.344000000000000195,-12.885289078226909609
0.345000000000000195,-12.950204816526873941
0.346000000000000196,-13.012064423094434673
0.347000000000000197,-13.070933320338237849
0.348000000000000198,-13.126875651380796484
0.349000000000000199,-13.179954274497569955
0.350000000000000200,-13.230230760316700866
0.351000000000000201,-13.277765391633511882
0.352000000000000202,-13.322617165694484953
0.353000000000000203,-13.364843798806791852
0.354000000000000203,-13.404501733130905095
0.355000000000000204,-13.441646145515727895
0.356000000000000205,-13.476330958238383673
0.357000000000000206,-13.508608851513537630
0.358000000000000207,-13.538531277639771488
0.359000000000000208,-13.566148476654415589
0.360000000000000209,-13.591509493371475514
0.361000000000000210,-13.614662195680940826
0.362000000000000210,-13.635653293991984114
0.363000000000000211,-13.654528361706189443
0.364000000000000212,-13.671331856611498523
0.365000000000000213,-13.686107143091362559
0.366000000000000214,-13.698896515048236466
0.367000000000000215,-13.709741219444500970
0.368000000000000216,-13.718681480368635661
0.369000000000000217,-13.725756523538322540
0.370000000000000218,-13.731004601156936218
0.371000000000000218,-13.734463017043726296
0.372000000000000219,-13.736168151962525386
0.373000000000000220,-13.736155489077981784
0.374000000000000221,-13.734459639472214931
0.375000000000000222,-13.731114367658889819
0.376000000000000223,-13.726152617035982217
0.377000000000000224,-13.719606535221847921
0.378000000000000225,-13.711507499223307249
0.379000000000000226,-13.701886140387998125
0.380000000000000226,-13.690772369096924521
0.381000000000000227,-13.678195399156214407
0.382000000000000228,-13.664183771850963112
0.383000000000000229,-13.648765379626709660
0.384000000000000230,-13.631967489367431412
0.385000000000000231,-13.613816765242081175
0.386000000000000232,-13.594339291094005517
0.387000000000000233,-13.573560592350963461
0.388000000000000234,-13.551505657435432894
0.389000000000000234,-13.528198958657966955
0.390000000000000235,-13.503664472578170930
0.391000000000000236,-13.477925699820607619
0.392000000000000237,-13.451005684334642609
0.393000000000000238,-13.422927032089708277
0.394000000000000239,-13.393711929198833133
0.395000000000000240,-13.363382159465663435
0.396000000000000241,-13.331959121351454556
0.397000000000000242,-13.299463844360227327
0.398000000000000242,-13.265917004842005866
0.399000000000000243,-13.231338941214971783
0.400000000000000244,-13.195749668609153105
0.401000000000000245,-13.159168892935213080
0.402000000000000246,-13.121616024382964483
0.403000000000000247,-13.083110190355512259
0.404000000000000248,-13.043670247845616572
0.405000000000000249,-13.003314795262019388
0.406000000000000250,-12.962062183713896957
0.407000000000000250,-12.919930527762724992
0.408000000000000251,-12.876937715651262550
0.409000000000000252,-12.833101419019959266
0.410000000000000253,-12.788439102121715862
0.411000000000000254,-12.742968030546304448
0.412000000000000255,-12.696705279466190319
0.413000000000000256,-12.649667741415948186
0.414000000000000257,-12.601872133617465721
0.415000000000000258,-12.553335004863884095
0.416000000000000258,-12.504072741974846750
0.417000000000000259,-12.454101575836345361
0.418000000000000260,-12.403437587038117940
0.419000000000000261,-12.352096711121975048
0.420000000000000262,-12.300094743454263124
0.421000000000000263,-12.247447343735895942
0.422000000000000264,-12.194170040163040625
0.423000000000000265,-12.140278233251933671
0.424000000000000266,-12.085787199340916942
0.425000000000000266,-12.030712093782714334
0.426000000000000267,-11.975067953840063950
0.427000000000000268,-11.918869701297415631
0.428000000000000269,-11.862132144801403655
0.429000000000000270,-11.804869981942683665
0.430000000000000271,-11.747097801091200608
0.431000000000000272,-11.688830082997299087
0.432000000000000273,-11.630081202170256205
0.433000000000000274,-11.570865428046124279
0.434000000000000274,-11.511196925956054926
0.435000000000000275,-11.451089757906467881
0.436000000000000276,-11.390557883181823939
0.437000000000000277,-11.329615158780603323
0.438000000000000278,-11.268275339694950432
0.439000000000000279,-11.206552079043991199
0.440000000000000280,-11.144458928070553938
0.441000000000000281,-11.082009336010893108
0.442000000000000282,-11.019216649846626410
0.443000000000000282,-10.956094113947704827
0.444000000000000283,-10.892654869615210345
0.445000000000000284,-10.828911954532205897
0.446000000000000285,-10.764878302130702181
0.447000000000000286,-10.700566740882676342
0.448000000000000287,-10.635989993522354524
0.449000000000000288,-10.571160676207259854
0.450000000000000289,-10.506091297624662317
0.451000000000000290,-10.440794258050278387
0.452000000000000290,-10.375281848365556669
0.453000000000000291,-10.309566249039509245
0.454000000000000292,-10.243659529081094561
0.455000000000000293,-10.177573644967599975
0.456000000000000294,-10.111320439554368988
0.457000000000000295,-10.044911640970994426
0.458000000000000296,-9.978358861508597855
0.459000000000000297,-9.911673596503019823
0.460000000000000298,-9.844867223217990571
0.461000000000000298,-9.777950999732576420
0.462000000000000299,-9.710936063836658860
0.463000000000000300,-9.643833431938094947
0.464000000000000301,-9.576653997985042466
0.465000000000000302,-9.509408532406677494
0.466000000000000303,-9.442107681075237124
0.467000000000000304,-9.374761964292295247
0.468000000000000305,-9.307381775801903956
0.469000000000000306,-9.239977381832931158
0.470000000000000306,-9.172558920173106145
0.471000000000000307,-9.105136399276513970
0.472000000000000308,-9.037719697406835451
0.473000000000000309,-8.970318561817814285
0.474000000000000310,-8.902942607972731182
0.475000000000000311,-8.835601318804188864
0.476000000000000312,-8.768304044015771126
0.477000000000000313,-8.701059999426439262
0.478000000000000314,-8.633878266358918196
0.479000000000000314,-8.566767791072980032
0.480000000000000315,-8.499737384244237859
0.481000000000000316,-8.432795720489419722
0.482000000000000317,-8.365951337938330568
0.483000000000000318,-8.299212637853271346
0.484000000000000319,-8.232587884296062697
0.485000000000000320,-8.166085203843007179
0.486000000000000321,-8.099712585347962346
0.487000000000000322,-8.033477879753565531
0.488000000000000322,-7.967388799950503753
0.489000000000000323,-7.901452920685007264
0.490000000000000324,-7.835677678514100464
0.491000000000000325,-7.770070371808560417
0.492000000000000326,-7.704638160803151337
0.493000000000000327,-7.639388067693910322
0.494000000000000328,-7.574326976781914134
0.495000000000000329,-7.509461634663155749
0.496000000000000330,-7.444798650463868128
0.497000000000000330,-7.380344496120902598
0.498000000000000331,-7.316105506706229278
0.499000000000000332,-7.252087880795279773
0.500000000000000333,-7.188297680878084073
0.501000000000000334,-7.124740833812561291
0.502000000000000335,-7.061423131319250146
0.503000000000000336,-6.998350230516630965
0.504000000000000337,-6.935527654496110195
0.505000000000000338,-6.872960792935918661
0.506000000000000338,-6.810654902753005224
0.507000000000000339,-6.748615108791939932
0.508000000000000340,-6.686846404549962486
0.509000000000000341,-6.625353652937323368
0.510000000000000342,-6.564141587071726569
0.511000000000000343,-6.503214811106147408
0.512000000000000344,-6.442577801088847700
0.513000000000000345,-6.382234905854749840
0.514000000000000346,-6.322190347947121758
0.515000000000000346,-6.262448224568514910
0.516000000000000347,-6.203012508559999638
0.517000000000000348,-6.143887049407805279
0.518000000000000349,-6.085075574276069155
0.519000000000000350,-6.026581689065040770
0.520000000000000351,-5.968408879493430241
0.521000000000000352,-5.910560512204163786
0.522000000000000353,-5.853039835892330345
0.523000000000000353,-5.795849982454432947
0.524000000000000354,-5.738993968158055736
0.525000000000000355,-5.682474694830739637
0.526000000000000356,-5.626294951067305483
0.527000000000000357,-5.570457413454627194
0.528000000000000358,-5.514964647812744758
0.529000000000000359,-5.459819110451703317
0.530000000000000360,-5.405023149442811814
0.531000000000000361,-5.350579005903736807
0.532000000000000361,-5.296488815296309660
0.533000000000000362,-5.242754608736296618
0.534000000000000363,-5.189378314314176066
0.535000000000000364,-5.136361758426099655
0.536000000000000365,-5.083706667114192612
0.537000000000000366,-5.031414667415374353
0.538000000000000367,-4.979487288717793447
0.539000000000000368,-4.927925964124286295
0.540000000000000369,-4.876732031821791047
0.541000000000000369,-4.825906736456244239
0.542000000000000370,-4.775451230511959189
0.543000000000000371,-4.725366575694915916
0.544000000000000372,-4.675653744319172134
0.545000000000000373,-4.626313620695746032
0.546000000000000374,-4.577347002523173281
0.547000000000000375,-4.528754602279214225
0.548000000000000376,-4.480537048612994511
0.549000000000000377,-4.432694887736921885
0.550000000000000377,-4.385228584817793873
0.551000000000000378,-4.338138525366471043
0.552000000000000379,-4.291425016625603384
0.553000000000000380,-4.245088288954739220
0.554000000000000381,-4.199128497212306854
0.555000000000000382,-4.153545722134040830
0.556000000000000383,-4.108339971707089866
0.557000000000000384,-4.063511182539624400
0.558000000000000385,-4.019059221225143474
0.559000000000000385,-3.974983885701262043
0.560000000000000386,-3.931284906602391604
0.561000000000000387,-3.887961948605905604
0.562000000000000388,-3.845014611771385038
0.563000000000000389,-3.802442432872530809
0.564000000000000390,-3.760244886721344493
0.565000000000000391,-3.718421387484215135
0.566000000000000392,-3.676971289989519498
0.567000000000000393,-3.635893891026488411
0.568000000000000393,-3.595188430634838284
0.569000000000000394,-3.554854093384995029
0.570000000000000395,-3.514890009648594660
0.571000000000000396,-3.475295256858843551
0.572000000000000397,-3.436068860760657095
0.573000000000000398,-3.397209796650122460
0.574000000000000399,-3.358716990603197949
0.575000000000000400,-3.320589320693265734
0.576000000000000401,-3.282825618197418915
0.577000000000000401,-3.245424668791278666
0.578000000000000402,-3.208385213732008800
0.579000000000000403,-3.171705951029472281
0.580000000000000404,-3.135385536605340029
0.581000000000000405,-3.099422585439891797
0.582000000000000406,-3.063815672706465598
0.583000000000000407,-3.028563334893310977
0.584000000000000408,-2.993664070912814612
0.585000000000000409,-2.959116343197885080
0.586000000000000409,-2.924918578785418610
0.587000000000000410,-2.891069170386775689
0.588000000000000411,-2.857566477445085518
0.589000000000000412,-2.824408827179414772
0.590000000000000413,-2.791594515615586580
0.591000000000000414,-2.759121808603684833
0.592000000000000415,-2.726988942822182072
0.593000000000000416,-2.695194126768538645
0.594000000000000417,-2.663735541736326873
0.595000000000000417,-2.632611342778898411
0.596000000000000418,-2.601819659659308837
0.597000000000000419,-2.571358597786866707
0.598000000000000420,-2.541226239139894094
0.599000000000000421,-2.511420643175017453
0.600000000000000422,-2.481939847722776982
0.601000000000000423,-2.452781869869659293
0.602000000000000424,-2.423944706826555162
0.603000000000000425,-2.395426336783621935
0.604000000000000425,-2.367224719751630069
0.605000000000000426,-2.339337798389753864
0.606000000000000427,-2.311763498819986218
0.607000000000000428,-2.284499731427923841
0.608000000000000429,-2.257544391650416760
0.609000000000000430,-2.230895360749615808
