# CNT15-COOH-3_ASNSCA-JS
# h[nm],U(h)[kJ/mol]
0.200000000000000011,66.879461424189585728
0.201000000000000012,64.688916495164704656
0.202000000000000013,63.131954735671470758
0.203000000000000014,61.885911022613086629
0.204000000000000015,60.759261630813831800
0.205000000000000016,59.647280217020274051
0.206000000000000016,58.500731621509636682
0.207000000000000017,57.304160475900971505
0.208000000000000018,56.061168628351062182
0.209000000000000019,54.784721487454774547
0.210000000000000020,53.491020023252801252
0.211000000000000021,52.195855144037793139
0.212000000000000022,50.912650372044232938
0.213000000000000023,49.651617550304159465
0.214000000000000024,48.419614739367617062
0.215000000000000024,47.220418054780566308
0.216000000000000025,46.055209760774587835
0.217000000000000026,44.923151112722301548
0.218000000000000027,43.821956162510289801
0.219000000000000028,42.748416595228952986
0.220000000000000029,41.698851186046091755
0.221000000000000030,40.669469361101199922
0.222000000000000031,39.656648680093994130
0.223000000000000032,38.657132394615480564
0.224000000000000032,37.668156750981296454
0.225000000000000033,36.687519275992258372
0.226000000000000034,35.713599555595415325
0.227000000000000035,34.745343461437926180
0.228000000000000036,33.782220737328870541
0.229000000000000037,32.824164565002213578
0.230000000000000038,31.871500349831155319
0.231000000000000039,30.924869610519031937
0.232000000000000040,29.985153590170643412
0.233000000000000040,29.053400068421204594
0.234000000000000041,28.130755863945125839
0.235000000000000042,27.218406678160704359
0.236000000000000043,26.317525239527647329
0.237000000000000044,25.429228152980602573
0.238000000000000045,24.554541426979305641
0.239000000000000046,23.694374326137655373
0.240000000000000047,22.849500964902553335
0.241000000000000048,22.020548902334411423
0.242000000000000048,21.207993905777843935
0.243000000000000049,20.412160009536130190
0.244000000000000050,19.633223992477976338
0.245000000000000051,18.871223426195616213
0.246000000000000052,18.126067494744525277
0.247000000000000053,17.397549851303821811
0.248000000000000054,16.685362850721432437
0.249000000000000055,15.989112575355534318
0.250000000000000056,15.308334151359090924
0.251000000000000056,14.642506930868986359
0.252000000000000057,13.991069190444624937
0.253000000000000058,13.353432066129323985
0.254000000000000059,12.728992509734306182
0.255000000000000060,12.117145108817439336
0.256000000000000061,11.517292664099167965
0.257000000000000062,10.928855462722932401
0.258000000000000063,10.351279224003771873
0.259000000000000064,9.784041726428501562
0.260000000000000064,9.226658151078567016
0.261000000000000065,8.678685197808265528
0.262000000000000066,8.139724046923586087
0.263000000000000067,7.609422251285680616
0.264000000000000068,7.087474652213972881
0.265000000000000069,6.573623417781812250
0.266000000000000070,6.067657304552717790
0.267000000000000071,5.569410243933939242
0.268000000000000071,5.078759352533678495
0.269000000000000072,4.595622462564540989
0.270000000000000073,4.119955263770624931
0.271000000000000074,3.651748142862532909
0.272000000000000075,3.191022800280736593
0.273000000000000076,2.737828717497984510
0.274000000000000077,2.292239541206034570
0.275000000000000078,1.854349443774047090
0.276000000000000079,1.424269512449928499
0.277000000000000079,1.002124213010849418
0.278000000000000080,0.588047967046300579
0.279000000000000081,0.182181875840970620
0.280000000000000082,-0.215329382028918159
0.281000000000000083,-0.604340457729846903
0.282000000000000084,-0.984708027215488002
0.283000000000000085,-1.356293262262764809
0.284000000000000086,-1.718964069645176895
0.285000000000000087,-2.072597094317690569
0.286000000000000087,-2.417079485793068194
0.287000000000000088,-2.752310429784651902
0.288000000000000089,-3.078202449694738441
0.289000000000000090,-3.394682484662668198
0.290000000000000091,-3.701692752674511588
0.291000000000000092,-3.999191408704006356
0.292000000000000093,-4.287153009024907035
0.293000000000000094,-4.565568793735900854
0.294000000000000095,-4.834446800194940330
0.295000000000000095,-5.093811820496457088
0.296000000000000096,-5.343705216364534216
0.297000000000000097,-5.584184604903282612
0.298000000000000098,-5.815323428562074071
0.299000000000000099,-6.037210422460234760
0.300000000000000100,-6.249948991891149497
0.301000000000000101,-6.453656512408850077
0.302000000000000102,-6.648463564405393988
0.303000000000000103,-6.834513113532556972
0.304000000000000103,-7.011959647716773603
0.305000000000000104,-7.180968280877323195
0.306000000000000105,-7.341713832793510974
0.307000000000000106,-7.494379893887106903
0.308000000000000107,-7.639157883001101546
0.309000000000000108,-7.776246105570995049
0.310000000000000109,-7.905848818908486564
0.311000000000000110,-8.028175310652937213
0.312000000000000111,-8.143438995800984515
0.313000000000000111,-8.251856537099749644
0.314000000000000112,-8.353646992990240605
0.315000000000000113,-8.449030996715158892
0.316000000000000114,-8.538229969663063912
0.317000000000000115,-8.621465371508316267
0.318000000000000116,-8.698957989226084209
0.319000000000000117,-8.770927266613050222
0.320000000000000118,-8.837590675528296913
0.321000000000000119,-8.899163129684824369
0.322000000000000119,-8.955856441469423501
0.323000000000000120,-9.007878821947112868
0.324000000000000121,-9.055434423914988429
0.325000000000000122,-9.098722927607786559
0.326000000000000123,-9.137939168423194758
0.327000000000000124,-9.173272805827071608
0.328000000000000125,-9.204908032416774688
0.329000000000000126,-9.233023321962301466
0.330000000000000127,-9.257791215109525851
0.331000000000000127,-9.279378141315662631
0.332000000000000128,-9.297944275492337596
0.333000000000000129,-9.313643427756051807
0.334000000000000130,-9.326622964626348988
0.335000000000000131,-9.337023759969305559
0.336000000000000132,-9.344980173954445135
0.337000000000000133,-9.350620058277888447
0.338000000000000134,-9.354064785900309431
0.339000000000000135,-9.355429303555023779
0.340000000000000135,-9.354822205298082949
0.341000000000000136,-9.352345825396776391
0.342000000000000137,-9.348096348885514217
0.343000000000000138,-9.342163938156776481
0.344000000000000139,-9.334632873999499481
0.345000000000000140,-9.325581709546641562
0.346000000000000141,-9.315083435647036225
0.347000000000000142,-9.303205656233544119
0.348000000000000143,-9.290010772319087451
0.349000000000000143,-9.275556173313574959
0.350000000000000144,-9.259894434418034947
0.351000000000000145,-9.243073518916267162
0.352000000000000146,-9.225136984249225236
0.353000000000000147,-9.206124190821983078
0.354000000000000148,-9.186070512558069723
0.355000000000000149,-9.165007548279778149
0.356000000000000150,-9.142963333056465913
0.357000000000000151,-9.119962548725034424
0.358000000000000151,-9.096026732847422025
0.359000000000000152,-9.071174485429358114
0.360000000000000153,-9.045421672782250511
0.361000000000000154,-9.018781627965655190
0.362000000000000155,-8.991265347301757416
0.363000000000000156,-8.962881682504987069
0.364000000000000157,-8.933637528019421126
0.365000000000000158,-8.903538003204390705
0.366000000000000159,-8.872586629053596852
0.367000000000000159,-8.840785499176396556
0.368000000000000160,-8.808135444810513803
0.369000000000000161,-8.774636193674158591
0.370000000000000162,-8.740286522501678590
0.371000000000000163,-8.705084403141324145
0.372000000000000164,-8.669027142125360186
0.373000000000000165,-8.632111513653041968
0.374000000000000166,-8.594333885954457131
0.375000000000000167,-8.555690341029244195
0.376000000000000167,-8.516176787778086066
0.377000000000000168,-8.475789068566681905
0.378000000000000169,-8.434523059282259538
0.379000000000000170,-8.392374762960976398
0.380000000000000171,-8.349340397081260079
0.381000000000000172,-8.305416474633329216
0.382000000000000173,-8.260599879088555753
0.383000000000000174,-8.214887933404639853
0.384000000000000175,-8.168278463213006546
0.385000000000000175,-8.120769854344377592
0.386000000000000176,-8.072361104856607739
0.387000000000000177,-8.023051871735594531
0.388000000000000178,-7.972842512446291607
0.389000000000000179,-7.921734121515159543
0.390000000000000180,-7.869728562329639132
0.391000000000000181,-7.816828494342773936
0.392000000000000182,-7.763037395873458202
0.393000000000000183,-7.708359582693736556
0.394000000000000183,-7.652800222595357305
0.395000000000000184,-7.596365346127510243
0.396000000000000185,-7.539061853696848559
0.397000000000000186,-7.480897519219763758
0.398000000000000187,-7.421880990514736709
0.399000000000000188,-7.362021786620512209
0.400000000000000189,-7.301330292222933949
0.401000000000000190,-7.239817749370137889
0.402000000000000191,-7.177496246652492751
0.403000000000000191,-7.114378706019559573
0.404000000000000192,-7.050478867402658167
0.405000000000000193,-6.985811271307035497
0.406000000000000194,-6.920391239533302041
0.407000000000000195,-6.854234854183175685
0.408000000000000196,-6.787358935099538471
0.409000000000000197,-6.719781015886178821
0.410000000000000198,-6.651519318647454604
0.411000000000000199,-6.582592727582914804
0.412000000000000199,-6.513020761567004158
0.413000000000000200,-6.442823545838730404
0.414000000000000201,-6.372021782920965549
0.415000000000000202,-6.300636722883949048
0.416000000000000203,-6.228690133062480427
0.417000000000000204,-6.156204267331054858
0.418000000000000205,-6.083201835036328831
0.419000000000000206,-6.009705969681209403
0.420000000000000207,-5.935740197449911548
0.421000000000000207,-5.861328405658743357
0.422000000000000208,-5.786494811212216760
0.423000000000000209,-5.711263929139968276
0.424000000000000210,-5.635660541284970293
0.425000000000000211,-5.559709665209352281
0.426000000000000212,-5.483436523379801919
0.427000000000000213,-5.406866512690211124
0.428000000000000214,-5.330025174375341734
0.429000000000000214,-5.252938164365138718
0.430000000000000215,-5.175631224125618601
0.431000000000000216,-5.098130152028634399
0.432000000000000217,-5.020460775289012467
0.433000000000000218,-4.942648922504369935
0.434000000000000219,-4.864720396829482318
0.435000000000000220,-4.786700949813988970
0.436000000000000221,-4.708616255929018557
0.437000000000000222,-4.630491887805580298
0.438000000000000222,-4.552353292204683655
0.439000000000000223,-4.474225766736492638
0.440000000000000224,-4.396134437343283352
0.441000000000000225,-4.318104236558502507
0.442000000000000226,-4.240159882552132053
0.443000000000000227,-4.162325858970016057
0.444000000000000228,-4.084626395573134339
0.445000000000000229,-4.007085449680553246
0.446000000000000230,-3.929726688418066605
0.447000000000000230,-3.852573471772852365
0.448000000000000231,-3.775648836452691448
0.449000000000000232,-3.698975480546811134
0.450000000000000233,-3.622575748984137700
0.451000000000000234,-3.546471619783075901
0.452000000000000235,-3.470684691086053597
0.453000000000000236,-3.395236168970517276
0.454000000000000237,-3.320146856027428761
0.455000000000000238,-3.245437140696830536
0.456000000000000238,-3.171126987349602189
0.457000000000000239,-3.097235927103260344
0.458000000000000240,-3.023783049359325847
0.459000000000000241,-2.950786994048566036
0.460000000000000242,-2.878265944570392865
0.461000000000000243,-2.806237621411514116
0.462000000000000244,-2.734719276429024681
0.463000000000000245,-2.663727687782069697
0.464000000000000246,-2.593279155496428956
0.465000000000000246,-2.523389497645571744
0.466000000000000247,-2.454074047131657554
0.467000000000000248,-2.385347649049658791
0.468000000000000249,-2.317224658617681676
0.469000000000000250,-2.249718939656215166
0.470000000000000251,-2.182843863599172263
0.471000000000000252,-2.116612309019255456
0.472000000000000253,-2.051036661650420534
0.473000000000000254,-1.986128814889954297
0.474000000000000254,-1.921900170762878890
0.475000000000000255,-1.858361641331379932
0.476000000000000256,-1.795523650532059978
0.477000000000000257,-1.733396136423982936
0.478000000000000258,-1.671988553830450197
0.479000000000000259,-1.611309877357852471
0.480000000000000260,-1.551368604774912896
0.481000000000000261,-1.492172760735888781
0.482000000000000262,-1.433729900831629323
0.483000000000000262,-1.376047115952456323
0.484000000000000263,-1.319131036947165381
0.485000000000000264,-1.262987839562724757
0.486000000000000265,-1.207623249649472541
0.487000000000000266,-1.153042548616909357
0.488000000000000267,-1.099250579125486071
0.489000000000000268,-1.046251751000129460
0.490000000000000269,-0.994050047351413113
0.491000000000000270,-0.942649030890840622
0.492000000000000270,-0.892051850426719306
0.493000000000000271,-0.842261247527752110
0.494000000000000272,-0.793279563341555471
0.495000000000000273,-0.745108745555716379
0.496000000000000274,-0.697750355489487162
0.497000000000000275,-0.651205575304241946
0.498000000000000276,-0.605475215321486182
0.499000000000000277,-0.560559721437335456
0.500000000000000222,-0.516459182622747481
0.501000000000000334,-0.473173338499230822
0.502000000000000224,-0.430701586980006657
0.503000000000000336,-0.389042991966831952
0.504000000000000226,-0.348196291093357757
0.505000000000000338,-0.308159903505701160
0.506000000000000227,-0.268931937671892440
0.507000000000000339,-0.230510199211440003
0.508000000000000229,-0.192892198737300069
0.509000000000000341,-0.156075159702206923
0.510000000000000231,-0.120056026242237796
0.511000000000000343,-0.084831471010131929
0.512000000000000233,-0.050397902991864252
0.513000000000000345,-0.016751475299642649
0.514000000000000234,0.016111907064619579
0.515000000000000346,0.048196579481669818
0.516000000000000236,0.079507110028463168
0.517000000000000348,0.110048291838582404
0.518000000000000238,0.139825135514481169
0.519000000000000350,0.168842861596604749
0.520000000000000240,0.197106893093872582
0.521000000000000352,0.224622848080020976
0.522000000000000242,0.251396532359876024
0.523000000000000353,0.277433932209521894
0.524000000000000243,0.302741207193974737
0.525000000000000355,0.327324683065890909
0.526000000000000245,0.351190844748434039
0.527000000000000357,0.374346329405476741
0.528000000000000247,0.396797919601752203
0.529000000000000359,0.418552536555784394
0.530000000000000249,0.439617233487823889
0.531000000000000361,0.459999189065173730
0.532000000000000250,0.479705700946820468
0.533000000000000362,0.498744179429383649
0.534000000000000252,0.517122141195959895
0.535000000000000364,0.534847203169479091
0.536000000000000254,0.551927076471901534
0.537000000000000366,0.568369560490549541
0.538000000000000256,0.584182537052540196
0.539000000000000368,0.599373964708388884
0.540000000000000258,0.613951873125433867
0.541000000000000369,0.627924357591898574
0.542000000000000259,0.641299573631978648
0.543000000000000371,0.654085731732502951
0.544000000000000261,0.666291092181361067
0.545000000000000373,0.677923960017953298
0.546000000000000263,0.688992680095699916
0.547000000000000375,0.699505632256627430
0.548000000000000265,0.709471226617836237
0.549000000000000377,0.718897898969728777
0.550000000000000266,0.727794106285617470
0.551000000000000378,0.736168322342344639
0.552000000000000268,0.744029033451451105
0.553000000000000380,0.751384734300341695
0.554000000000000270,0.758243923902796157
0.555000000000000382,0.764615101658182583
0.556000000000000272,0.770506763518555515
0.557000000000000384,0.775927398262890589
0.558000000000000274,0.780885483877483799
0.559000000000000385,0.785389484041681629
0.560000000000000275,0.789447844717865221
0.561000000000000387,0.793068990844707500
0.562000000000000277,0.796261323132619103
0.563000000000000389,0.799033214960225169
0.564000000000000279,0.801393009370739762
0.565000000000000391,0.803349016167015706
0.566000000000000281,0.804909509104070553
0.567000000000000393,0.806082723177767968
0.568000000000000282,0.806876852008393208
0.569000000000000394,0.807300045317796311
0.570000000000000284,0.807360406498756733
0.571000000000000396,0.807065990275177336
0.572000000000000286,0.806424800451731150
0.573000000000000398,0.805444787751579683
0.574000000000000288,0.804133847740709173
0.575000000000000400,0.802499818837411616
0.576000000000000290,0.800550480405578413
0.577000000000000401,0.798293550930201934
0.578000000000000291,0.795736686273721072
0.579000000000000403,0.792887478011702229
0.580000000000000293,0.789753451846369248
0.581000000000000405,0.786342066096486714
0.582000000000000295,0.782660710262167214
0.583000000000000407,0.778716703663027698
0.584000000000000297,0.774517294148311608
0.585000000000000409,0.770069656877369724
0.586000000000000298,0.765380893169163468
0.587000000000000410,0.760458029419150749
0.588000000000000300,0.755308016082234746
0.589000000000000412,0.749937726720188769
0.590000000000000302,0.744353957112191877
0.591000000000000414,0.738563424426912918
0.592000000000000304,0.732572766454844815
0.593000000000000416,0.726388540899314039
0.594000000000000306,0.720017224724835758
0.595000000000000417,0.713465213561349065
0.596000000000000307,0.706738821163002462
0.597000000000000419,0.699844278920000562
0.598000000000000309,0.692787735422216167
0.599000000000000421,0.685575256073209127
0.600000000000000311,0.678212822753248568
0.601000000000000423,0.670706333530052601
0.602000000000000313,0.663061602415927931
0.603000000000000425,0.655284359169995834
0.604000000000000314,0.647380249144217101
0.605000000000000426,0.639354833171964398
0.606000000000000316,0.631213587497883699
0.607000000000000428,0.622961903747807466
0.608000000000000318,0.614605088937511868
0.609000000000000430,0.606148365519090571
0.610000000000000320,0.597596871463835222
0.611000000000000432,0.588955660380340862
0.612000000000000322,0.580229701666839071
0.613000000000000433,0.571423880696489528
0.614000000000000323,0.562542999034628233
0.615000000000000435,0.553591774686803539
0.616000000000000325,0.544574842376613355
0.617000000000000437,0.535496753852189866
0.618000000000000327,0.526361978220391435
0.619000000000000439,0.517174902307622308
0.620000000000000329,0.507939831046319901
0.621000000000000441,0.498660987886103357
0.622000000000000330,0.489342515228661123
0.623000000000000442,0.479988474885377325
0.624000000000000332,0.470602848556872844
0.625000000000000444,0.461189538333414806
0.626000000000000334,0.451752367215479622
0.627000000000000446,0.442295079653436729
0.628000000000000336,0.432821342105637552
0.629000000000000448,0.423334743613987097
0.630000000000000338,0.413838796396258757
0.631000000000000449,0.404336936454270934
0.632000000000000339,0.394832524197257284
0.633000000000000451,0.385328845079562221
0.634000000000000341,0.375829110252022425
0.635000000000000453,0.366336457226183687
0.636000000000000343,0.356853950550828913
0.637000000000000455,0.347384582499895567
0.638000000000000345,0.337931273771342688
0.639000000000000457,0.328496874196115396
0.640000000000000346,0.319084163456717973
0.641000000000000458,0.309695851814639211
0.642000000000000348,0.300334580846154886
0.643000000000000460,0.291002924185777334
0.644000000000000350,0.281703388276909550
0.645000000000000462,0.272438413129012014
0.646000000000000352,0.263210373080866866
0.647000000000000464,0.254021577569273571
0.648000000000000353,0.244874271902793816
0.649000000000000465,0.235770638039908442
0.650000000000000355,0.226712795371232817
0.651000000000000467,0.217702801505194860
0.652000000000000357,0.208742653056809419
0.653000000000000469,0.199834286439037168
0.654000000000000359,0.190979578656338245
0.655000000000000471,0.182180348099976824
0.656000000000000361,0.173438355344686934
0.657000000000000473,0.164755303946269194
0.658000000000000362,0.156132841239794290
0.659000000000000474,0.147572559137992665
0.660000000000000364,0.139075994929503094
0.661000000000000476,0.130644632076598627
0.662000000000000366,0.122279901012124673
0.663000000000000478,0.113983179935230078
0.664000000000000368,0.105755795605686043
0.665000000000000480,0.097599024136380524
0.666000000000000369,0.089514091783812463
0.667000000000000481,0.081502175736200125
