# CNT15-COOH-3_CYSSCA-JS
# h[nm],U(h)[kJ/mol]
0.200000000000000011,71.172760336577681528
0.201000000000000012,68.565769832379402260
0.202000000000000013,66.919364481370593012
0.203000000000000014,65.731237486072714660
0.204000000000000015,64.707911343841530538
0.205000000000000016,63.692218490230381178
0.206000000000000016,62.612751333084830208
0.207000000000000017,61.449287788657045439
0.208000000000000018,60.209707257475557185
0.209000000000000019,58.915063730172178680
0.210000000000000020,57.590358012144804434
0.211000000000000021,56.259212953068399088
0.212000000000000022,54.941153275957063329
0.213000000000000023,53.650563446948353885
0.214000000000000024,52.396672785915804127
0.215000000000000024,51.184119758066358941
0.216000000000000025,50.013794927206397745
0.217000000000000026,48.883768110992278366
0.218000000000000027,47.790180379376053565
0.219000000000000028,46.728033716301652589
0.220000000000000029,45.691846530732910026
0.221000000000000030,44.676166375340166326
0.222000000000000031,43.675945680394541171
0.223000000000000032,42.686794625885752907
0.224000000000000032,41.705129372042428315
0.225000000000000033,40.728235150151149924
0.226000000000000034,39.754263196885887055
0.227000000000000035,38.782178919781600257
0.228000000000000036,37.811676514951408024
0.229000000000000037,36.843072865661063986
0.230000000000000038,35.877191159116151198
0.231000000000000039,34.915242410811238472
0.232000000000000040,33.958711062482208831
0.233000000000000040,33.009249060322090941
0.234000000000000041,32.068581335277926314
0.235000000000000042,31.138424388887870009
0.236000000000000043,30.220418716729774644
0.237000000000000044,29.316075051283700503
0.238000000000000045,28.426733848230547608
0.239000000000000046,27.553537045932483096
0.240000000000000047,26.697410869275323364
0.241000000000000048,25.859058300571621913
0.242000000000000048,25.038959778858401961
0.243000000000000049,24.237380694587649543
0.244000000000000050,23.454384302203266088
0.245000000000000051,22.689848763962103817
0.246000000000000052,21.943487152685012376
0.247000000000000053,21.214869369276975419
0.248000000000000054,20.503445065216997278
0.249000000000000055,19.808566794902155550
0.250000000000000056,19.129512753326928021
0.251000000000000056,18.465508577915123567
0.252000000000000057,17.815747807237066525
0.253000000000000058,17.179410692505175717
0.254000000000000059,16.555681149459012147
0.255000000000000060,15.943761718355807133
0.256000000000000061,15.342886468480255502
0.257000000000000062,14.752331841373717225
0.258000000000000063,14.171425474547342915
0.259000000000000064,13.599553085607420044
0.260000000000000064,13.036163526378985011
0.261000000000000065,12.480772138693597029
0.262000000000000066,11.932962558931114572
0.263000000000000067,11.392387128075881719
0.264000000000000068,10.858766068815359773
0.265000000000000069,10.331885591872943309
0.266000000000000070,9.811595091059892582
0.267000000000000071,9.297803581115704930
0.268000000000000071,8.790475524879264313
0.269000000000000072,8.289626187216361686
0.270000000000000073,7.795316642882831104
0.271000000000000074,7.307648554520243422
0.272000000000000075,6.826758825597584845
0.273000000000000076,6.352814221610023182
0.274000000000000077,5.886006041454050042
0.275000000000000078,5.426544909805725680
0.276000000000000079,4.974655750681781896
0.277000000000000079,4.530572992273753208
0.278000000000000080,4.094536043698252747
0.279000000000000081,3.666785075553932849
0.280000000000000082,3.247557128155990736
0.281000000000000083,2.837082564044304256
0.282000000000000084,2.435581874833730787
0.283000000000000085,2.043262846681238809
0.284000000000000086,1.660318083561226787
0.285000000000000087,1.286922883139227203
0.286000000000000087,0.923233456276611575
0.287000000000000088,0.569385478046088855
0.288000000000000089,0.225492955546130747
0.289000000000000090,-0.108352604273514647
0.290000000000000091,-0.432082745166942506
0.291000000000000092,-0.745652350099210381
0.292000000000000093,-1.049039688073307053
0.293000000000000094,-1.342246240103350363
0.294000000000000095,-1.625296325320287449
0.295000000000000095,-1.898236548097850473
0.296000000000000096,-2.161135086764001567
0.297000000000000097,-2.414080843952658206
0.298000000000000098,-2.657182477981653967
0.299000000000000099,-2.890567333845626585
0.300000000000000100,-3.114380291511973375
0.301000000000000101,-3.328782548228962135
0.302000000000000102,-3.533950350517065964
0.303000000000000103,-3.730073690438842959
0.304000000000000103,-3.917354979642870827
0.305000000000000104,-4.096007713570857689
0.306000000000000105,-4.266255137114626450
0.307000000000000106,-4.428328921922871864
0.308000000000000107,-4.582467864495681553
0.309000000000000108,-4.728916613174737549
0.310000000000000109,-4.867924431146197328
0.311000000000000110,-4.999744001624753409
0.312000000000000111,-5.124630280487554757
0.313000000000000111,-5.242839400775719305
0.314000000000000112,-5.354627632683177652
0.315000000000000113,-5.460250401907543960
0.316000000000000114,-5.559961368546575855
0.317000000000000115,-5.654011568086070305
0.318000000000000116,-5.742648615440812065
0.319000000000000117,-5.826115972477480476
0.320000000000000118,-5.904652278966717738
0.321000000000000119,-5.978490746478589024
0.322000000000000119,-6.047858614349777007
0.323000000000000120,-6.112976666509601031
0.324000000000000121,-6.174058807653790559
0.325000000000000122,-6.231311696996672644
0.326000000000000123,-6.284934437612046843
0.327000000000000124,-6.335118319188266511
0.328000000000000125,-6.382046611871265540
0.329000000000000126,-6.425894408747678810
0.330000000000000127,-6.466828514427236385
0.331000000000000127,-6.505007377116202250
0.332000000000000128,-6.540581061529830542
0.333000000000000129,-6.573691259969473677
0.334000000000000130,-6.604471338886630072
0.335000000000000131,-6.633046418270820865
0.336000000000000132,-6.659533481227119189
0.337000000000000133,-6.684041511152718940
0.338000000000000134,-6.706671653976775005
0.339000000000000135,-6.727517402992785556
0.340000000000000135,-6.746664803887290063
0.341000000000000136,-6.764192677649775831
0.342000000000000137,-6.780172859136527563
0.343000000000000138,-6.794670449153700886
0.344000000000000139,-6.807744078021483070
0.345000000000000140,-6.819446178680570014
0.346000000000000141,-6.829823267503561723
0.347000000000000142,-6.838916231076507479
0.348000000000000143,-6.846760617318949471
0.349000000000000143,-6.853386929413497697
0.350000000000000144,-6.858820921118170766
0.351000000000000145,-6.863083892135375841
0.352000000000000146,-6.866192982310427517
0.353000000000000147,-6.868161463529334654
0.354000000000000148,-6.868999028279890062
0.355000000000000149,-6.868712073931652284
0.356000000000000150,-6.867303981878968955
0.357000000000000151,-6.864775390776436836
0.358000000000000151,-6.861124463178211563
0.359000000000000152,-6.856347144970835750
0.360000000000000153,-6.850437417064415335
0.361000000000000154,-6.843387538877747645
0.362000000000000155,-6.835188283220932526
0.363000000000000156,-6.825829162242565751
0.364000000000000157,-6.815298644168798603
0.365000000000000158,-6.803584360618319060
0.366000000000000159,-6.790673304329840398
0.367000000000000159,-6.776552017188452126
0.368000000000000160,-6.761206768482949769
0.369000000000000161,-6.744623723368934343
0.370000000000000162,-6.726789101551723604
0.371000000000000163,-6.707689326239462346
0.372000000000000164,-6.687311163449668250
0.373000000000000165,-6.665641851782924121
0.374000000000000166,-6.642669222804629570
0.375000000000000167,-6.618381812200349934
0.376000000000000167,-6.592768961892590873
0.377000000000000168,-6.565820913326315456
0.378000000000000169,-6.537528892147865811
0.379000000000000170,-6.507885184517219201
0.380000000000000171,-6.476883205306355862
0.381000000000000172,-6.444517558447773631
0.382000000000000173,-6.410784089706335287
0.383000000000000174,-6.375679932155255081
0.384000000000000175,-6.339203544642900923
0.385000000000000175,-6.301354743541488723
0.386000000000000176,-6.262134728071907297
0.387000000000000177,-6.221546099500449678
0.388000000000000178,-6.179592874504068689
0.389000000000000179,-6.136280492999910408
0.390000000000000180,-6.091615820733640163
0.391000000000000181,-6.045607146918418273
0.392000000000000182,-5.998264177213243009
0.393000000000000183,-5.949598022325201185
0.394000000000000183,-5.899621182515618401
0.395000000000000184,-5.848347528284683960
0.396000000000000185,-5.795792277503293732
0.397000000000000186,-5.741971969254601404
0.398000000000000187,-5.686904434640988271
0.399000000000000188,-5.630608764805058009
0.400000000000000189,-5.573105276406016273
0.401000000000000190,-5.514415474784936322
0.402000000000000191,-5.454562015044910339
0.403000000000000191,-5.393568661263699937
0.404000000000000192,-5.331460244048744634
0.405000000000000193,-5.268262616635935203
0.406000000000000194,-5.204002609725426609
0.407000000000000195,-5.138707985239597598
0.408000000000000196,-5.072407389179687698
0.409000000000000197,-5.005130303749804277
0.410000000000000198,-4.936906998908671795
0.411000000000000199,-4.867768483501308197
0.412000000000000199,-4.797746456115064007
0.413000000000000200,-4.726873255796507856
0.414000000000000201,-4.655181812757943405
0.415000000000000202,-4.582705599194719426
0.416000000000000203,-4.509478580327304975
0.417000000000000204,-4.435535165774597388
0.418000000000000205,-4.360910161358136250
0.419000000000000206,-4.285638721429986475
0.420000000000000207,-4.209756301810225310
0.421000000000000207,-4.133298613413913358
0.422000000000000208,-4.056301576640700901
0.423000000000000209,-3.978801276594676750
0.424000000000000210,-3.900833919195913158
0.425000000000000211,-3.822435788239665122
0.426000000000000212,-3.743643203453943080
0.427000000000000213,-3.664492479600702346
0.428000000000000214,-3.585019886661323429
0.429000000000000214,-3.505261611141953892
0.430000000000000215,-3.425253718529985836
0.431000000000000216,-3.345032116928627008
0.432000000000000217,-3.264632521892192329
0.433000000000000218,-3.184090422481094862
0.434000000000000219,-3.103441048551653036
0.435000000000000220,-3.022719339292366136
0.436000000000000221,-2.941959913014941197
0.437000000000000222,-2.861197038205232523
0.438000000000000222,-2.780464605836384884
0.439000000000000223,-2.699796102943514242
0.440000000000000224,-2.619224587456830289
0.441000000000000225,-2.538782664287459134
0.442000000000000226,-2.458502462658271881
0.443000000000000227,-2.378415614669461497
0.444000000000000228,-2.298553235087026358
0.445000000000000229,-2.218945902340269782
0.446000000000000230,-2.139623640712790209
0.447000000000000230,-2.060615903709944519
0.448000000000000231,-1.981951558584249096
0.449000000000000232,-1.903658871998896274
0.450000000000000233,-1.825765496808536836
0.451000000000000234,-1.748298459935137883
0.452000000000000235,-1.671284151316076771
0.453000000000000236,-1.594748313900475223
0.454000000000000237,-1.518716034669352011
0.455000000000000238,-1.443211736654164801
0.456000000000000238,-1.368259171928090323
0.457000000000000239,-1.293881415543568725
0.458000000000000240,-1.220100860389624620
0.459000000000000241,-1.146939212941660902
0.460000000000000242,-1.074417489876742682
0.461000000000000243,-1.002556015526639310
0.462000000000000244,-0.931374420141283799
0.463000000000000245,-0.860891638934737857
0.464000000000000246,-0.791125911886266575
0.465000000000000246,-0.722094784268784484
0.466000000000000247,-0.653815107877191992
0.467000000000000248,-0.586303042929235962
0.468000000000000249,-0.519574060611825428
0.469000000000000250,-0.453642946245717660
0.470000000000000251,-0.388523803042049309
0.471000000000000252,-0.324230056424200330
0.472000000000000253,-0.260774458889098004
0.473000000000000254,-0.198169095382158544
0.474000000000000254,-0.136425389160644561
0.475000000000000255,-0.075554108120530955
0.476000000000000256,-0.015565371562400131
0.477000000000000257,0.043531342627541769
0.478000000000000258,0.101727190405003845
0.479000000000000259,0.159013953626617549
0.480000000000000260,0.215384031763029782
0.481000000000000261,0.270830433288163530
0.482000000000000262,0.325346766766062667
0.483000000000000262,0.378927231656419394
0.484000000000000263,0.431566608859197287
0.485000000000000264,0.483260251018290787
0.486000000000000265,0.534004072603585622
0.487000000000000266,0.583794539790266187
0.488000000000000267,0.632628660153672584
0.489000000000000268,0.680503972197365803
0.490000000000000269,0.727418534731717470
0.491000000000000270,0.773370916119499263
0.492000000000000270,0.818360183404737263
0.493000000000000271,0.862385891340228028
0.494000000000000272,0.905448071328820325
0.495000000000000273,0.947547220292953130
0.496000000000000274,0.988684289486280954
0.497000000000000275,1.028860673260980407
0.498000000000000276,1.068078197803504326
0.499000000000000277,1.106339109851256275
0.500000000000000222,1.143646065402089906
0.501000000000000334,1.180002118427995850
0.502000000000000224,1.215410709603886419
0.503000000000000336,1.249875655062023805
0.504000000000000226,1.283401135181869712
0.505000000000000338,1.315991683425117298
0.506000000000000227,1.347652175224666626
0.507000000000000339,1.378387816936485377
0.508000000000000229,1.408204134862247603
0.509000000000000341,1.437106964350767457
0.510000000000000231,1.465102438985329991
0.511000000000000343,1.492196979864142126
0.512000000000000233,1.518397284980226081
0.513000000000000345,1.543710318707131712
0.514000000000000234,1.568143301396047740
0.515000000000000346,1.591703699090068813
0.516000000000000236,1.614399213360393714
0.517000000000000348,1.636237771269443586
0.518000000000000238,1.657227515465206524
0.519000000000000350,1.677376794410982530
0.520000000000000240,1.696694152754259166
0.521000000000000352,1.715188321838272856
0.522000000000000242,1.732868210359414629
0.523000000000000353,1.749742895173447277
0.524000000000000243,1.765821612253136497
0.525000000000000355,1.781113747799743852
0.526000000000000245,1.795628829510442781
0.527000000000000357,1.809376518003659839
0.528000000000000247,1.822366598403859284
0.529000000000000359,1.834608972087366396
0.530000000000000249,1.846113648590298251
0.531000000000000361,1.856890737679727010
0.532000000000000250,1.866950441588792087
0.533000000000000362,1.876303047416468583
0.534000000000000252,1.884958919692358847
0.535000000000000364,1.892928493106789345
0.536000000000000254,1.900222265406313893
0.537000000000000366,1.906850790454555078
0.538000000000000256,1.912824671458128734
0.539000000000000368,1.918154554357343500
0.540000000000000258,1.922851121381103257
0.541000000000000369,1.926925084765438667
0.542000000000000259,1.930387180634849376
0.543000000000000371,1.933248163045619750
0.544000000000000261,1.935518798190081657
0.545000000000000373,1.937209858760741366
0.546000000000000263,1.938332118473075738
0.547000000000000375,1.938896346745674348
0.548000000000000265,1.938913303536377031
0.549000000000000377,1.938393734332906293
0.550000000000000266,1.937348365296495345
0.551000000000000378,1.935787898556818432
0.552000000000000268,1.933723007656614978
0.553000000000000380,1.931164333144202772
0.554000000000000270,1.928122478312085164
0.555000000000000382,1.924608005079792905
0.556000000000000272,1.920631430019026364
0.557000000000000384,1.916203220519175687
0.558000000000000274,1.911333791091145873
0.559000000000000385,1.906033499807524567
0.560000000000000275,1.900312644876950063
0.561000000000000387,1.894181461350594065
0.562000000000000277,1.887650117958656226
0.563000000000000389,1.880728714074630492
0.564000000000000279,1.873427276805248898
0.565000000000000391,1.865755758203815562
0.566000000000000281,1.857724032604816999
0.567000000000000393,1.849341894077463078
0.568000000000000282,1.840619053996013221
0.569000000000000394,1.831565138724578379
0.570000000000000284,1.822189687414216053
0.571000000000000396,1.812502149909963833
0.572000000000000286,1.802511884765649608
0.573000000000000398,1.792228157364175178
0.574000000000000288,1.781660138141051730
0.575000000000000400,1.770816900908868785
0.576000000000000290,1.759707421280601425
0.577000000000000401,1.748340575189347934
0.578000000000000291,1.736725137502425742
0.579000000000000403,1.724869780727543045
0.580000000000000293,1.712783073808884726
0.581000000000000405,1.700473481010873700
0.582000000000000295,1.687949360887567973
0.583000000000000407,1.675218965335383725
0.584000000000000297,1.662290438727188846
0.585000000000000409,1.649171817125482109
0.586000000000000298,1.635871027572769476
0.587000000000000410,1.622395887456846042
0.588000000000000300,1.608754103949166181
0.589000000000000412,1.594953273514086778
0.590000000000000302,1.581000881487152121
0.591000000000000414,1.566904301720270620
0.592000000000000304,1.552670796292043853
0.593000000000000416,1.538307515281120974
0.594000000000000306,1.523821496600840764
0.595000000000000417,1.509219665893173579
0.596000000000000307,1.494508836480248792
0.597000000000000419,1.479695709371509960
0.598000000000000309,1.464786873324806393
0.599000000000000421,1.449788804959663668
0.600000000000000311,1.434707868920946705
0.601000000000000423,1.419550318091235885
0.602000000000000313,1.404322293850294168
0.603000000000000425,1.389029826379889254
0.604000000000000314,1.373678835012448030
0.605000000000000426,1.358275128621866612
0.606000000000000316,1.342824406055020292
0.607000000000000428,1.327332256602345328
0.608000000000000318,1.311804160506082395
0.609000000000000430,1.296245489504616710
0.610000000000000320,1.280661507411606781
0.611000000000000432,1.265057370728317032
0.612000000000000322,1.249438129287971710
0.613000000000000433,1.233808726930584188
0.614000000000000323,1.218174002207089934
0.615000000000000435,1.202538689111367187
0.616000000000000325,1.186907417839002443
0.617000000000000437,1.171284715571418111
0.618000000000000327,1.155675007284285183
0.619000000000000439,1.140082616578938168
0.620000000000000329,1.124511766535701840
0.621000000000000441,1.108966580587945838
0.622000000000000330,1.093451083415827751
0.623000000000000442,1.077969201858559378
0.624000000000000332,1.062524765844285124
0.625000000000000444,1.047121509336361722
0.626000000000000334,1.031763071295254131
0.627000000000000446,1.016452996654874763
0.628000000000000336,1.001194737312583793
0.629000000000000448,0.985991653131807033
0.630000000000000338,0.970847012956485678
0.631000000000000449,0.955763995636344399
0.632000000000000339,0.940745691062299216
0.633000000000000451,0.925795101211019600
0.634000000000000341,0.910915141197980338
0.635000000000000453,0.896108640338071916
0.636000000000000343,0.881378343213217841
0.637000000000000455,0.866726910746013379
0.638000000000000345,0.852156921278931279
0.639000000000000457,0.837670871658172111
0.640000000000000346,0.823271178321684949
0.641000000000000458,0.808960178390534246
0.642000000000000348,0.794740130763154418
0.643000000000000460,0.780613217211711063
0.644000000000000350,0.766581543480149175
0.645000000000000462,0.752647140383187807
0.646000000000000352,0.738811964905890961
0.647000000000000464,0.725077901303083916
0.648000000000000353,0.711446762198311156
0.649000000000000465,0.697920289681620343
0.650000000000000355,0.684500156405910887
0.651000000000000467,0.671187966681189740
0.652000000000000357,0.657985257566436887
0.653000000000000469,0.644893499958551386
0.654000000000000359,0.631914099678030472
0.655000000000000471,0.619048398550941958
0.656000000000000361,0.606297675486845433
0.657000000000000473,0.593663147552237924
0.658000000000000362,0.581145971039244147
0.659000000000000474,0.568747242529157537
0.660000000000000364,0.556467999950542747
0.661000000000000476,0.544309223631536332
0.662000000000000366,0.532271837346147580
0.663000000000000478,0.520356709354148794
0.664000000000000368,0.508564653434414260
0.665000000000000480,0.496896429911316440
0.666000000000000369,0.485352746674068691
0.667000000000000481,0.473934260188655532
0.668000000000000371,0.462641576502234031
