# CNT15-COOH-3_TYRSCA-JS
# h[nm],U(h)[kJ/mol]
0.200000000000000011,70.359884720956216597
0.201000000000000012,69.859600577064085769
0.202000000000000013,68.509424550248368746
0.203000000000000014,66.791578488228225297
0.204000000000000015,64.975131730011298714
0.205000000000000016,63.194910155406645913
0.206000000000000016,61.504949195570929987
0.207000000000000017,59.913868320862903261
0.208000000000000018,58.407577593191149390
0.209000000000000019,56.963251438970928575
0.210000000000000020,55.557404048379893879
0.211000000000000021,54.170084638784338438
0.212000000000000022,52.786609919866990026
0.213000000000000023,51.397812287197567116
0.214000000000000024,49.999464877836047094
0.215000000000000024,48.591317645610352827
0.216000000000000025,47.176018516532579383
0.217000000000000026,45.758082670520280999
0.218000000000000027,44.342997674934530039
0.219000000000000028,42.936502550102431996
0.220000000000000029,41.544047428066413374
0.221000000000000030,40.170421775206605730
0.222000000000000031,38.819529163524677529
0.223000000000000032,37.494282379502273272
0.224000000000000032,36.196592167831035169
0.225000000000000033,34.927424649919458943
0.226000000000000034,33.686905417565377263
0.227000000000000035,32.474451795433395773
0.228000000000000036,31.288918346038371965
0.229000000000000037,30.128744082211731836
0.230000000000000038,28.992092898196347051
0.231000000000000039,27.876981356947720059
0.232000000000000040,26.781390157582325884
0.233000000000000040,25.703357367434676917
0.234000000000000041,24.641052872652146277
0.235000000000000042,23.592834525269491763
0.236000000000000043,22.557287193042931506
0.237000000000000044,21.533246400612494398
0.238000000000000045,20.519808533545717211
0.239000000000000046,19.516329702834092075
0.240000000000000047,18.522415373622358459
0.241000000000000048,17.537902780154436044
0.242000000000000048,16.562838005690622367
0.243000000000000049,15.597449423211234176
0.244000000000000050,14.642118987433141442
0.245000000000000051,13.697352654536828709
0.246000000000000052,12.763750993278325296
0.247000000000000053,11.841980847296301960
0.248000000000000054,10.932748718607411931
0.249000000000000055,10.036776369840517020
0.250000000000000056,9.154778989555010682
0.251000000000000056,8.287446131740423994
0.252000000000000057,7.435425527163698867
0.253000000000000058,6.599309769848479945
0.254000000000000059,5.779625805425284923
0.255000000000000060,4.976827087892487178
0.256000000000000061,4.191288225815159585
0.257000000000000062,3.423301906438382503
0.258000000000000063,2.673077864879970011
0.259000000000000064,1.940743653828498783
0.260000000000000064,1.226346965432816960
0.261000000000000065,0.529859259875030242
0.262000000000000066,-0.148819536855522877
0.263000000000000067,-0.809855491402063143
0.264000000000000068,-1.453474488044443458
0.265000000000000069,-2.079955613459999242
0.266000000000000070,-2.689624275952811505
0.267000000000000071,-3.282845214713354665
0.268000000000000071,-3.860015535385852736
0.269000000000000072,-4.421557889239963401
0.270000000000000073,-4.967913894909862016
0.271000000000000074,-5.499537884242263530
0.272000000000000075,-6.016891037481669535
0.273000000000000076,-6.520435957948770067
0.274000000000000077,-7.010631722623050344
0.275000000000000078,-7.487929432663212204
0.276000000000000079,-7.952768276895663568
0.277000000000000079,-8.405572111652427125
0.278000000000000080,-8.846746551997707542
0.279000000000000081,-9.276676562290663952
0.280000000000000082,-9.695724528112910079
0.281000000000000083,-10.104228786763805203
0.282000000000000084,-10.502502589704395319
0.283000000000000085,-10.890833467422741165
0.284000000000000086,-11.269482965108464256
0.285000000000000087,-11.638686716169939217
0.286000000000000087,-11.998654819919918779
0.287000000000000088,-12.349572489607741232
0.288000000000000089,-12.691600937310372643
0.289000000000000090,-13.024878462937389045
0.290000000000000091,-13.349521715684556256
0.291000000000000092,-13.665627097628554765
0.292000000000000093,-13.973272280729327477
0.293000000000000094,-14.272517810248311676
0.294000000000000095,-14.563408769452077962
0.295000000000000095,-14.845976482412595487
0.296000000000000096,-15.120240233699078658
0.297000000000000097,-15.386208985754084466
0.298000000000000098,-15.643883076728698711
0.299000000000000099,-15.893255883498119019
0.300000000000000100,-16.134315436469258032
0.301000000000000101,-16.367045974611951209
0.302000000000000102,-16.591429430881941443
0.303000000000000103,-16.807446839848722675
0.304000000000000103,-17.015079660886005541
0.305000000000000104,-17.214311011724088729
0.306000000000000105,-17.405126808497666246
0.307000000000000106,-17.587516809648690241
0.308000000000000107,-17.761475562162857500
0.309000000000000108,-17.927003249630040216
0.310000000000000109,-18.084106442528096181
0.311000000000000110,-18.232798751936375226
0.312000000000000111,-18.373101388597689265
0.313000000000000111,-18.505043629865792099
0.314000000000000112,-18.628663197607771451
0.315000000000000113,-18.744006550580571968
0.316000000000000114,-18.851129095174044892
0.317000000000000115,-18.950095318714389236
0.318000000000000116,-19.040978849758211311
0.319000000000000117,-19.123862449982375722
0.320000000000000118,-19.198837942395229561
0.321000000000000119,-19.266006080665356137
0.322000000000000119,-19.325476364388713080
0.323000000000000120,-19.377366805100400882
0.324000000000000121,-19.421803647786983760
0.325000000000000122,-19.458921052573220578
0.326000000000000123,-19.488860741148311462
0.327000000000000124,-19.511771612364491091
0.328000000000000125,-19.527809331289063266
0.329000000000000126,-19.537135895822366649
0.330000000000000127,-19.539919184812529096
0.331000000000000127,-19.536332491405982381
0.332000000000000128,-19.526554045171984342
0.333000000000000129,-19.510766526334357707
0.334000000000000130,-19.489156575233472779
0.335000000000000131,-19.461914299931734718
0.336000000000000132,-19.429232784663902578
0.337000000000000133,-19.391307601625051404
0.338000000000000134,-19.348336328382551130
0.339000000000000135,-19.300518072995494379
0.340000000000000135,-19.248053008728565061
0.341000000000000136,-19.191141920054924697
0.342000000000000137,-19.129985761458339510
0.343000000000000138,-19.064785230366261715
0.344000000000000139,-18.995740355375808406
0.345000000000000140,-18.923050100771725113
0.346000000000000141,-18.846911988181233255
0.347000000000000142,-18.767521736064658455
0.348000000000000143,-18.685072917603445575
0.349000000000000143,-18.599756637417819150
0.350000000000000144,-18.511761227425910903
0.351000000000000145,-18.421271962043977766
0.352000000000000146,-18.328470792823107871
0.353000000000000147,-18.233536102522087674
0.354000000000000148,-18.136642478527853939
0.355000000000000149,-18.037960505454435634
0.356000000000000150,-17.937656576678385534
0.357000000000000151,-17.835892724502439677
0.358000000000000151,-17.732826468580185519
0.359000000000000152,-17.628610682181438563
0.360000000000000153,-17.523393475832111932
0.361000000000000154,-17.417318097821148370
0.362000000000000155,-17.310522851032363434
0.363000000000000156,-17.203141025529227193
0.364000000000000157,-17.095300846295490516
0.365000000000000158,-16.987125435514716543
0.366000000000000159,-16.878732788755414163
0.367000000000000159,-16.770235764416714375
0.368000000000000160,-16.661742085781458655
0.369000000000000161,-16.553354355018495170
0.370000000000000162,-16.445170078474383502
0.371000000000000163,-16.337281702596420985
0.372000000000000164,-16.229776659831944841
0.373000000000000165,-16.122737423856097649
0.374000000000000166,-16.016241573487889127
0.375000000000000167,-15.910361864665301113
0.376000000000000167,-15.805166309861988339
0.377000000000000168,-15.700718264341897878
0.378000000000000169,-15.597076518662996492
0.379000000000000170,-15.494295396857541647
0.380000000000000171,-15.392424859733276676
0.381000000000000172,-15.291510612758077770
0.382000000000000173,-15.191594218008964035
0.383000000000000174,-15.092713209686024811
0.384000000000000175,-14.994901212710837868
0.385000000000000175,-14.898188063949486803
0.386000000000000176,-14.802599935620142091
0.387000000000000177,-14.708159460465321189
0.388000000000000178,-14.614885858289781595
0.389000000000000179,-14.522795063484400302
0.390000000000000180,-14.431899853177375448
0.391000000000000181,-14.342209975673261724
0.392000000000000182,-14.253732278860525184
0.393000000000000183,-14.166470838287164469
0.394000000000000183,-14.080427084623346801
0.395000000000000184,-13.995599930248213028
0.396000000000000185,-13.911985894716355716
0.397000000000000186,-13.829579228876900387
0.398000000000000187,-13.748372037435625970
0.399000000000000188,-13.668354399766679208
0.400000000000000189,-13.589514488796988090
0.401000000000000190,-13.511838687801766667
0.402000000000000191,-13.435311704964558288
0.403000000000000191,-13.359916685569519501
0.404000000000000192,-13.285635321707720991
0.405000000000000193,-13.212447959392198626
0.406000000000000194,-13.140333702989261511
0.407000000000000195,-13.069270516885731936
0.408000000000000196,-12.999235324323043628
0.409000000000000197,-12.930204103340281918
0.410000000000000198,-12.862151979778479571
0.411000000000000199,-12.795053317308353158
0.412000000000000199,-12.728881804452818471
0.413000000000000200,-12.663610538584574527
0.414000000000000201,-12.599212106887035745
0.415000000000000202,-12.535658664274649254
0.416000000000000203,-12.472922008275979522
0.417000000000000204,-12.410973650889513209
0.418000000000000205,-12.349784887428455704
0.419000000000000206,-12.289326862376688254
0.420000000000000207,-12.229570632283232712
0.421000000000000207,-12.170487225727899983
0.422000000000000208,-12.112047700394843019
0.423000000000000209,-12.054223197295479864
0.424000000000000210,-11.996984992185641516
0.425000000000000211,-11.940304544225345040
0.426000000000000212,-11.884153541932956699
0.427000000000000213,-11.828503946487803233
0.428000000000000214,-11.773328032438339363
0.429000000000000214,-11.718598425874690250
0.430000000000000215,-11.664288140126517490
0.431000000000000216,-11.610370609048890955
0.432000000000000217,-11.556819717959939453
0.433000000000000218,-11.503609832295483173
0.434000000000000219,-11.450715824046671543
0.435000000000000220,-11.398113096047412185
0.436000000000000221,-11.345777604178785225
0.437000000000000222,-11.293685877558157671
0.438000000000000222,-11.241815036780744563
0.439000000000000223,-11.190142810281457741
0.440000000000000224,-11.138647548884614835
0.441000000000000225,-11.087308238608937216
0.442000000000000226,-11.036104511794846417
0.443000000000000227,-10.985016656620294029
0.444000000000000228,-10.934025625071148724
0.445000000000000229,-10.883113039431025371
0.446000000000000230,-10.832261197354714710
0.447000000000000230,-10.781453075588650847
0.448000000000000231,-10.730672332400617464
0.449000000000000232,-10.679903308779811866
0.450000000000000233,-10.629131028467579512
0.451000000000000234,-10.578341196877483199
0.452000000000000235,-10.527520198962607267
0.453000000000000236,-10.476655096086290087
0.454000000000000237,-10.425733621951573937
0.455000000000000238,-10.374744177642995169
0.456000000000000238,-10.323675825833143804
0.457000000000000239,-10.272518284204986472
0.458000000000000240,-10.221261918139607161
0.459000000000000241,-10.169897732717368299
0.460000000000000242,-10.118417364079489218
0.461000000000000243,-10.066813070195101076
0.462000000000000244,-10.015077721077918937
0.463000000000000245,-9.963204788494667952
0.464000000000000246,-9.911188335206647437
0.465000000000000246,-9.859023003783701000
0.466000000000000247,-9.806704005029052595
0.467000000000000248,-9.754227106051571283
0.468000000000000249,-9.701588618021066424
0.469000000000000250,-9.648785383640541724
0.470000000000000251,-9.595814764368137517
0.471000000000000252,-9.542674627420030475
0.472000000000000253,-9.489363332584581201
0.473000000000000254,-9.435879718876172717
0.474000000000000254,-9.382223091056484776
0.475000000000000255,-9.328393206049328867
0.476000000000000256,-9.274390259274145620
0.477000000000000257,-9.220214870922063710
0.478000000000000258,-9.165868072197030259
0.479000000000000259,-9.111351291543844155
0.480000000000000260,-9.056666340883349875
0.481000000000000261,-9.001815401874212696
0.482000000000000262,-8.946801012219637528
0.483000000000000262,-8.891626052036381012
0.484000000000000263,-8.836293730302221761
0.485000000000000264,-8.780807571397442501
0.486000000000000265,-8.725171401754591827
0.487000000000000266,-8.669389336630151988
0.488000000000000267,-8.613465767010620056
0.489000000000000268,-8.557405346665017731
0.490000000000000269,-8.501212979354543009
0.491000000000000270,-8.444893806209794462
0.492000000000000270,-8.388453193284790999
0.493000000000000271,-8.331896719296636888
0.494000000000000272,-8.275230163558729757
0.495000000000000273,-8.218459494114764396
0.496000000000000274,-8.161590856080348289
0.497000000000000275,-8.104630560198044620
0.498000000000000276,-8.047585071611379703
0.499000000000000277,-7.990460998862658926
0.500000000000000222,-7.933265083118724803
0.501000000000000334,-7.876004187628621089
0.502000000000000224,-7.818685287416241358
0.503000000000000336,-7.761315459210729628
0.504000000000000226,-7.703901871617100383
0.505000000000000338,-7.646451775528620765
0.506000000000000227,-7.588972494782774803
0.507000000000000339,-7.531471417061467832
0.508000000000000229,-7.473955985036466743
0.509000000000000341,-7.416433687760045856
0.510000000000000231,-7.358912052301202600
0.511000000000000343,-7.301398635626614286
0.512000000000000233,-7.243901016726111308
0.513000000000000345,-7.186426788981316705
0.514000000000000234,-7.128983552776679389
0.515000000000000346,-7.071578908350886650
0.516000000000000236,-7.014220448887495074
0.517000000000000348,-6.956915753842361383
0.518000000000000238,-6.899672382506135015
0.519000000000000350,-6.842497867799106182
0.520000000000000240,-6.785399710296205811
0.521000000000000352,-6.728385372479229076
0.522000000000000242,-6.671462273213646377
0.523000000000000353,-6.614637782446742165
0.524000000000000243,-6.557919216124313166
0.525000000000000355,-6.501313831322320880
0.526000000000000245,-6.444828821590492751
0.527000000000000357,-6.388471312504067079
0.528000000000000247,-6.332248357420529494
0.529000000000000359,-6.276166933437314910
0.530000000000000249,-6.220233937547174463
0.531000000000000361,-6.164456182987067656
0.532000000000000250,-6.108840395777171750
0.533000000000000362,-6.053393211445738054
0.534000000000000252,-5.998121171936242391
0.535000000000000364,-5.943030722692654422
0.536000000000000254,-5.888128209919093692
0.537000000000000366,-5.833419878009557635
0.538000000000000256,-5.778911867144217673
0.539000000000000368,-5.724610211047719943
0.540000000000000258,-5.670520834906051633
0.541000000000000369,-5.616649553437437881
0.542000000000000259,-5.563002069113776926
0.543000000000000371,-5.509583970528201036
0.544000000000000261,-5.456400730905131446
0.545000000000000373,-5.403457706748639566
0.546000000000000263,-5.350760136625448915
0.547000000000000375,-5.298313140078295902
0.548000000000000265,-5.246121716666348078
0.549000000000000377,-5.194190745128230979
0.550000000000000266,-5.142524982664421707
0.551000000000000378,-5.091129064334841026
0.552000000000000268,-5.040007502568246700
0.553000000000000380,-4.989164686779508529
0.554000000000000270,-4.938604883091412212
0.555000000000000382,-4.888332234157088507
0.556000000000000272,-4.838350759079982133
0.557000000000000384,-4.788664353427384057
0.558000000000000274,-4.739276789334651241
0.559000000000000385,-4.690191715696222730
0.560000000000000275,-4.641412658440630779
0.561000000000000387,-4.592943020885839722
0.562000000000000277,-4.544786084172011797
0.563000000000000389,-4.496945007768392344
0.564000000000000279,-4.449422830051385169
0.565000000000000391,-4.402222468950664158
0.566000000000000281,-4.355346722660502046
0.567000000000000393,-4.308798270413283227
0.568000000000000282,-4.262579673312592021
0.569000000000000394,-4.216693375222768658
0.570000000000000284,-4.171141703712629933
0.571000000000000396,-4.125926871050327627
0.572000000000000286,-4.081050975247102919
0.573000000000000398,-4.036516001147055555
0.574000000000000288,-3.992323821560828101
0.575000000000000400,-3.948476198440494134
0.576000000000000290,-3.904974784093547591
0.577000000000000401,-3.861821122433505060
0.578000000000000291,-3.819016650265081303
0.579000000000000403,-3.776562698601614532
0.580000000000000293,-3.734460494012803444
0.581000000000000405,-3.692711160000480497
0.582000000000000295,-3.651315718400733878
0.583000000000000407,-3.610275090810115550
0.584000000000000297,-3.569590100034347735
0.585000000000000409,-3.529261471557467722
0.586000000000000298,-3.489289835029887321
0.587000000000000410,-3.449675725773363233
0.588000000000000300,-3.410419586301545625
0.589000000000000412,-3.371521767854155804
0.590000000000000302,-3.332982531943567750
0.591000000000000414,-3.294802051912011365
0.592000000000000304,-3.256980414498171772
0.593000000000000416,-3.219517621411541963
0.594000000000000306,-3.182413590913441670
0.595000000000000417,-3.145668159403132158
0.596000000000000307,-3.109281083007968238
0.597000000000000419,-3.073252039176224137
0.598000000000000309,-3.037580628271540739
0.599000000000000421,-3.002266375167744084
0.600000000000000311,-2.967308730843090991
0.601000000000000423,-2.932707073972714351
0.602000000000000313,-2.898460712518523774
0.603000000000000425,-2.864568885315254221
0.604000000000000314,-2.831030763652161664
0.605000000000000426,-2.797845452849026859
0.606000000000000316,-2.765011993826063996
0.607000000000000428,-2.732529364666519633
0.608000000000000318,-2.700396482171568024
0.609000000000000430,-2.668612203406401928
0.610000000000000320,-2.637175327237164080
0.611000000000000432,-2.606084595857713015
0.612000000000000322,-2.575338696305909281
0.613000000000000433,-2.544936261968526292
0.614000000000000323,-2.514875874074443463
0.615000000000000435,-2.485156063175403496
0.616000000000000325,-2.455775310613955931
0.617000000000000437,-2.426732049977975869
0.618000000000000327,-2.398024668541423488
0.619000000000000439,-2.369651508690775898
0.620000000000000329,-2.341610869336860024
0.621000000000000441,-2.313901007311605973
0.622000000000000330,-2.286520138749431830
0.623000000000000442,-2.259466440452837954
0.624000000000000332,-2.232738051242043387
0.625000000000000444,-2.206333073288215818
0.626000000000000334,-2.180249573430173893
0.627000000000000446,-2.154485584474198578
0.628000000000000336,-2.129039106476826149
0.629000000000000448,-2.103908108010333233
0.630000000000000338,-2.079090527410844658
0.631000000000000449,-2.054584274008728784
0.632000000000000339,-2.030387229341319877
0.633000000000000451,-2.006497248347676177
0.634000000000000341,-1.982912160545383884
0.635000000000000453,-1.959629771189200564
0.636000000000000343,-1.936647862411550403
0.637000000000000455,-1.913964194344718761
0.638000000000000345,-1.891576506224788901
0.639000000000000457,-1.869482517477134564
0.640000000000000346,-1.847679928783640291
0.641000000000000458,-1.826166423131416305
0.642000000000000348,-1.804939666843213164
0.643000000000000460,-1.783997310589352736
0.644000000000000350,-1.763336990381393132
0.645000000000000462,-1.742956328547348832
0.646000000000000352,-1.722852934688727355
0.647000000000000464,-1.703024406619205733
0.648000000000000353,-1.683468331285261188
0.649000000000000465,-1.664182285668542871
0.650000000000000355,-1.645163837670366558
0.651000000000000467,-1.626410546978122040
0.652000000000000357,-1.607919965913956251
0.653000000000000469,-1.589689640265611548
0.654000000000000359,-1.571717110099715375
0.655000000000000471,-1.553999910557471331
0.656000000000000361,-1.536535572633036306
0.657000000000000473,-1.519321623934550836
0.658000000000000362,-1.502355589428112426
0.659000000000000474,-1.485634992164697854
