# CNT15-COOH-3_HIPSCA-JS
# h[nm],U(h)[kJ/mol]
0.200000000000000011,80.464054475020517998
0.201000000000000012,78.522381542708743041
0.202000000000000013,76.812563774387953686
0.203000000000000014,75.218331947253162184
0.204000000000000015,73.669925768206752537
0.205000000000000016,72.129061161768419197
0.206000000000000016,70.578037676823811353
0.207000000000000017,69.011979917037166388
0.208000000000000018,67.433427825432005420
0.209000000000000019,65.848667058324821255
0.210000000000000020,64.265330866779521557
0.211000000000000021,62.690915734605503928
0.212000000000000022,61.131940164609602562
0.213000000000000023,59.593544111385540418
0.214000000000000024,58.079379435797498843
0.215000000000000024,56.591682506087977345
0.216000000000000025,55.131451212338937751
0.217000000000000026,53.698672232097543144
0.218000000000000027,52.292562026088020843
0.219000000000000028,50.911798069795857202
0.220000000000000029,49.554726289571433995
0.221000000000000030,48.219537404984357920
0.222000000000000031,46.904409541608004020
0.223000000000000032,45.607617587996102770
0.224000000000000032,44.327611731453600896
0.225000000000000033,43.063068732449906406
0.226000000000000034,41.812920027842785942
0.227000000000000035,40.576360871703705868
0.228000000000000036,39.352844567395479203
0.229000000000000037,38.142065518120702450
0.230000000000000038,36.943934400302438803
0.231000000000000039,35.758548298436544144
0.232000000000000040,34.586158168735643414
0.233000000000000040,33.427135546891221907
0.234000000000000041,32.281939998321426799
0.235000000000000042,31.151088436266899606
0.236000000000000043,30.035127108072003921
0.237000000000000044,28.934606773530571644
0.238000000000000045,27.850061369530301647
0.239000000000000046,26.781990269159763329
0.240000000000000047,25.730844096809079247
0.241000000000000048,24.697013949055808268
0.242000000000000048,23.680823789614155572
0.243000000000000049,22.682525730795298102
0.244000000000000050,21.702297879504762079
0.245000000000000051,20.740244408850124103
0.246000000000000052,19.796397513436453153
0.247000000000000053,18.870720914267735679
0.248000000000000054,17.963114595166040033
0.249000000000000055,17.073420474468861130
0.250000000000000056,16.201428741543995926
0.251000000000000056,15.346884615784333050
0.252000000000000057,14.509495314925995757
0.253000000000000058,13.688937048753956560
0.254000000000000059,12.884861882730200833
0.255000000000000060,12.096904343212210975
0.256000000000000061,11.324687661299586594
0.257000000000000062,10.567829575672330833
0.258000000000000063,9.825947635895047938
0.259000000000000064,9.098663966482195775
0.260000000000000064,8.385609468545975886
0.261000000000000065,7.686427450136164907
0.262000000000000066,7.000776688522234004
0.263000000000000067,6.328333937794615949
0.264000000000000068,5.668795903417079174
0.265000000000000069,5.021880711908108808
0.266000000000000070,4.387328908834050800
0.267000000000000071,3.764904021924839306
0.268000000000000071,3.154392728543181867
0.269000000000000072,2.555604668105356581
0.270000000000000073,1.968371940518909069
0.271000000000000074,1.392548331409458884
0.272000000000000075,0.828008303984360206
0.273000000000000076,0.274645795945483662
0.274000000000000077,-0.267627141978666105
0.275000000000000078,-0.798881831462575964
0.276000000000000079,-1.319174543933056887
0.277000000000000079,-1.828548140326427429
0.278000000000000080,-2.327033746357882737
0.279000000000000081,-2.814652439060074673
0.280000000000000082,-3.291416922986576399
0.281000000000000083,-3.757333177066320751
0.282000000000000084,-4.212402055603518214
0.283000000000000085,-4.656620829321084010
0.284000000000000086,-5.089984654625519411
0.285000000000000087,-5.512487961411150827
0.286000000000000087,-5.924125751715252797
0.287000000000000088,-6.324894803374215613
0.288000000000000089,-6.714794774512883535
0.289000000000000090,-7.093829206224806505
0.290000000000000091,-7.462006422170619047
0.291000000000000092,-7.819340325042100304
0.292000000000000093,-8.165851090912649823
0.293000000000000094,-8.501565763429894673
0.294000000000000095,-8.826518750609096742
0.295000000000000095,-9.140752227665853269
0.296000000000000096,-9.444316449890195031
0.297000000000000097,-9.737269980022045246
0.298000000000000098,-10.019679834947231356
0.299000000000000099,-10.291621556803599802
0.300000000000000100,-10.553179213775688794
0.301000000000000101,-10.804445335973595022
0.302000000000000102,-11.045520791842729835
0.303000000000000103,-11.276514610547000217
0.304000000000000103,-11.497543755711530977
0.305000000000000104,-11.708732855813359208
0.306000000000000105,-11.910213896372610520
0.307000000000000106,-12.102125878929962610
0.308000000000000107,-12.284614451603914631
0.309000000000000108,-12.457831515807793465
0.310000000000000109,-12.621934813477192705
0.311000000000000110,-12.777087498915673081
0.312000000000000111,-12.923457699117147257
0.313000000000000111,-13.061218066166151885
0.314000000000000112,-13.190545325059513715
0.315000000000000113,-13.311619820034010786
0.316000000000000114,-13.424625062228846772
0.317000000000000115,-13.529747281259293601
0.318000000000000116,-13.627174983032180222
0.319000000000000117,-13.717098515894662114
0.320000000000000118,-13.799709646977026622
0.321000000000000119,-13.875201150369369074
0.322000000000000119,-13.943766408560140491
0.323000000000000120,-14.005599028363880265
0.324000000000000121,-14.060892472375943640
0.325000000000000122,-14.109839706812778104
0.326000000000000123,-14.152632866429510017
0.327000000000000124,-14.189462937050034697
0.328000000000000125,-14.220519456100742417
0.329000000000000126,-14.245990231404800141
0.330000000000000127,-14.266061078371487625
0.331000000000000127,-14.280915575602943335
0.332000000000000128,-14.290734838838830001
0.333000000000000129,-14.295697313067453393
0.334000000000000130,-14.295978582549347280
0.335000000000000131,-14.291751198426302594
0.336000000000000132,-14.283184523523612341
0.337000000000000133,-14.270444593896954188
0.338000000000000134,-14.253693996626546792
0.339000000000000135,-14.233091763319162482
0.340000000000000135,-14.208793278744167310
0.341000000000000136,-14.180950204000618342
0.342000000000000137,-14.149710413590218749
0.343000000000000138,-14.115217945752974060
0.344000000000000139,-14.077612965410537527
0.345000000000000140,-14.037031739054119939
0.346000000000000141,-13.993606620910094662
0.347000000000000142,-13.947466049716595649
0.348000000000000143,-13.898734555447997963
0.349000000000000143,-13.847532775330421373
0.350000000000000144,-13.793977478500874412
0.351000000000000145,-13.738181598674149342
0.352000000000000146,-13.680254274195494446
0.353000000000000147,-13.620300894872475084
0.354000000000000148,-13.558423154996793514
0.355000000000000149,-13.494719111985256532
0.356000000000000150,-13.429283250088582591
0.357000000000000151,-13.362206548637564296
0.358000000000000151,-13.293576554316956617
0.359000000000000152,-13.223477456979457756
0.360000000000000153,-13.151990168534245740
0.361000000000000154,-13.079192404466947863
0.362000000000000155,-13.005158767570247136
0.363000000000000156,-12.929960833486992655
0.364000000000000157,-12.853667237689739622
0.365000000000000158,-12.776343763543129839
0.366000000000000159,-12.698053431116861134
0.367000000000000159,-12.618856586438770506
0.368000000000000160,-12.538810990898310749
0.369000000000000161,-12.457971910531210114
0.370000000000000162,-12.376392204935992680
0.371000000000000163,-12.294122415592383391
0.372000000000000164,-12.211210853370120688
0.373000000000000165,-12.127703685034978420
0.374000000000000166,-12.043645018575872996
0.375000000000000167,-11.959076987193675734
0.376000000000000167,-11.874039831808312684
0.377000000000000168,-11.788571981955872303
0.378000000000000169,-11.702710134961929356
0.379000000000000170,-11.616489333291193375
0.380000000000000171,-11.529943039986440212
0.381000000000000172,-11.443103212122393231
0.382000000000000173,-11.356000372211331850
0.383000000000000174,-11.268663677508929055
0.384000000000000175,-11.181120987178434945
0.385000000000000175,-11.093398927281439725
0.386000000000000176,-11.005522953572320688
0.387000000000000177,-10.917517412081764405
0.388000000000000178,-10.829405597482931967
0.389000000000000179,-10.741209809240604756
0.390000000000000180,-10.652951405550643571
0.391000000000000181,-10.564650855083158376
0.392000000000000182,-10.476327786548358389
0.393000000000000183,-10.388001036109159259
0.394000000000000183,-10.299688692669425549
0.395000000000000184,-10.211408141070766220
0.396000000000000185,-10.123176103234673207
0.397000000000000186,-10.035008677290157664
0.398000000000000187,-9.946921374730006704
0.399000000000000188,-9.858929155641433795
0.400000000000000189,-9.771046462059111093
0.401000000000000190,-9.683287249490593496
0.402000000000000191,-9.595665016665872571
0.403000000000000191,-9.508192833563878565
0.404000000000000192,-9.420883367770215955
0.405000000000000193,-9.333748909220956236
0.406000000000000194,-9.246801393388150103
0.407000000000000195,-9.160052422962969843
0.408000000000000196,-9.073513288092696527
0.409000000000000197,-8.987194985227663580
0.410000000000000198,-8.901108234634339311
0.411000000000000199,-8.815263496630068474
0.412000000000000199,-8.729670986594914694
0.413000000000000200,-8.644340688815210783
0.414000000000000201,-8.559282369212844799
0.415000000000000202,-8.474505587013384300
0.416000000000000203,-8.390019705405467931
0.417000000000000204,-8.305833901242563044
0.418000000000000205,-8.221957173837521893
0.419000000000000206,-8.138398352898908783
0.420000000000000207,-8.055166105656992315
0.421000000000000207,-7.972268943226326954
0.422000000000000208,-7.889715226249910174
0.423000000000000209,-7.807513169869459091
0.424000000000000210,-7.725670848064261520
0.425000000000000211,-7.644196197400103365
0.426000000000000212,-7.563097020228310541
0.427000000000000213,-7.482380987373463022
0.428000000000000214,-7.402055640347109389
0.429000000000000214,-7.322128393123229273
0.430000000000000215,-7.242606533509932554
0.431000000000000216,-7.163497224150512821
0.432000000000000217,-7.084807503185432509
0.433000000000000218,-7.006544284605621620
0.434000000000000219,-6.928714358326064193
0.435000000000000220,-6.851324390007349052
0.436000000000000221,-6.774380920651454474
0.437000000000000222,-6.697890365996869377
0.438000000000000222,-6.621859015736863974
0.439000000000000223,-6.546293032583470506
0.440000000000000224,-6.471198451198508117
0.441000000000000225,-6.396581177011840147
0.442000000000000226,-6.322446984946028081
0.443000000000000227,-6.248801518065095095
0.444000000000000228,-6.175650286164492186
0.445000000000000229,-6.102998664317881961
0.446000000000000230,-6.030851891395637487
0.447000000000000230,-5.959215068568805229
0.448000000000000231,-5.888093157811461253
0.449000000000000232,-5.817490980413261958
0.450000000000000233,-5.747413215513436313
0.451000000000000234,-5.677864398666244483
0.452000000000000235,-5.608848920447461417
0.453000000000000236,-5.540371025110308878
0.454000000000000237,-5.472434809298936109
0.455000000000000238,-5.405044220826312973
0.456000000000000238,-5.338203057523243089
0.457000000000000239,-5.271914966164088057
0.458000000000000240,-5.206183441474566465
0.459000000000000241,-5.141011825225954901
0.460000000000000242,-5.076403305420006618
0.461000000000000243,-5.012360915567745323
0.462000000000000244,-4.948887534065384841
0.463000000000000245,-4.885985883669553331
0.464000000000000246,-4.823658531074120681
0.465000000000000246,-4.761907886590032390
0.466000000000000247,-4.700736203929414714
0.467000000000000248,-4.640145580094678479
0.468000000000000249,-4.580137955373191794
0.469000000000000250,-4.520715113437484334
0.470000000000000251,-4.461878681550879300
0.471000000000000252,-4.403630130877948190
0.472000000000000253,-4.345970776899184429
0.473000000000000254,-4.288901779928649738
0.474000000000000254,-4.232424145733537202
0.475000000000000255,-4.176538726254025669
0.476000000000000256,-4.121246220421818762
0.477000000000000257,-4.066547175075545084
0.478000000000000258,-4.012441985970889746
0.479000000000000259,-3.958930898883395777
0.480000000000000260,-3.906014010801563074
0.481000000000000261,-3.853691271207797087
0.482000000000000262,-3.801962483444746077
0.483000000000000262,-3.750827306164308261
0.484000000000000263,-3.700285254856610528
0.485000000000000264,-3.650335703456183190
0.486000000000000265,-3.600977886022472152
0.487000000000000266,-3.552210898491725999
0.488000000000000267,-3.504033700497362069
0.489000000000000268,-3.456445117255838362
0.490000000000000269,-3.409443841514916862
0.491000000000000270,-3.363028435561447704
0.492000000000000270,-3.317197333285466954
0.493000000000000271,-3.271948842297720095
0.494000000000000272,-3.227281146097477738
0.495000000000000273,-3.183192306287629059
0.496000000000000274,-3.139680264834129542
0.497000000000000275,-3.096742846366685953
0.498000000000000276,-3.054377760517833273
0.499000000000000277,-3.012582604297425526
0.500000000000000222,-2.971354864499628601
0.501000000000000334,-2.930691920139625761
0.502000000000000224,-2.890591044917199426
0.503000000000000336,-2.851049409704358606
0.504000000000000226,-2.812064085054474027
0.505000000000000338,-2.773632043730015706
0.506000000000000227,-2.735750163246587263
0.507000000000000339,-2.698415228430396162
0.508000000000000229,-2.661623933986952739
0.509000000000000341,-2.625372887078317952
0.510000000000000231,-2.589658609906825060
0.511000000000000343,-2.554477542302642235
0.512000000000000233,-2.519826044313242086
0.513000000000000345,-2.485700398792344501
0.514000000000000234,-2.452096813986535118
0.515000000000000346,-2.419011426117128050
0.516000000000000236,-2.386440301955706111
0.517000000000000348,-2.354379441391107441
0.518000000000000238,-2.322824779986263799
0.519000000000000350,-2.291772191522923219
0.520000000000000240,-2.261217490532718699
0.521000000000000352,-2.231156434812842981
0.522000000000000242,-2.201584727924807527
0.523000000000000353,-2.172498021674758029
0.524000000000000243,-2.143891918573941346
0.525000000000000355,-2.115761974277897473
0.526000000000000245,-2.088103700003167251
0.527000000000000357,-2.060912564920110768
0.528000000000000247,-2.034183998520862069
0.529000000000000359,-2.007913392961077736
0.530000000000000249,-1.982096105374626216
0.531000000000000361,-1.956727460160024634
0.532000000000000250,-1.931802751237879701
0.533000000000000362,-1.907317244278241786
0.534000000000000252,-1.883266178897207599
0.535000000000000364,-1.859644770821911264
0.536000000000000254,-1.836448214023235881
0.537000000000000366,-1.813671682815468200
0.538000000000000256,-1.791310333922484732
0.539000000000000368,-1.769359308509641959
0.540000000000000258,-1.747813734181120848
0.541000000000000369,-1.726668726941999576
0.542000000000000259,-1.705919393124862848
0.543000000000000371,-1.685560831280376259
0.544000000000000261,-1.665588134031630974
0.545000000000000373,-1.645996389891868361
0.546000000000000263,-1.626780685045416064
0.547000000000000375,-1.607936105091500867
0.548000000000000265,-1.589457736750954142
0.549000000000000377,-1.571340669535439272
0.550000000000000266,-1.553579997379311184
0.551000000000000378,-1.536170820233892842
0.552000000000000268,-1.519108245624220865
0.553000000000000380,-1.502387390168201886
0.554000000000000270,-1.486003381058268902
0.555000000000000382,-1.469951357505509426
0.556000000000000272,-1.454226472146479043
0.557000000000000384,-1.438823892412636862
0.558000000000000274,-1.423738801862767245
0.559000000000000385,-1.408966401478306096
0.560000000000000275,-1.394501910921991383
0.561000000000000387,-1.380340569759884062
0.562000000000000277,-1.366477638647059845
0.563000000000000389,-1.352908400477232265
0.564000000000000279,-1.339628161496561276
0.565000000000000391,-1.326632252381950705
0.566000000000000281,-1.313916029284121212
0.567000000000000393,-1.301474874835811146
0.568000000000000282,-1.289304199125469896
0.569000000000000394,-1.277399440636713512
0.570000000000000284,-1.265756067154015341
0.571000000000000396,-1.254369576634948302
0.572000000000000286,-1.243235498049432675
0.573000000000000398,-1.232349392186304016
0.574000000000000288,-1.221706852427721257
0.575000000000000400,-1.211303505491807986
0.576000000000000290,-1.201135012143913272
0.577000000000000401,-1.191197067877022286
0.578000000000000291,-1.181485403561716607
0.579000000000000403,-1.171995786066140743
0.580000000000000293,-1.162724018846485574
0.581000000000000405,-1.153665942508412368
0.582000000000000295,-1.144817435339928080
0.583000000000000407,-1.136174413816182227
0.584000000000000297,-1.127732833076656060
0.585000000000000409,-1.119488687375271851
0.586000000000000298,-1.111438010503874363
0.587000000000000410,-1.103576876189603873
0.588000000000000300,-1.095901398466648802
0.589000000000000412,-1.088407732022868668
0.590000000000000302,-1.081092072521789849
0.591000000000000414,-1.073950656900508172
0.592000000000000304,-1.066979763643921331
0.593000000000000416,-1.060175713035854006
0.594000000000000306,-1.053534867387562857
0.595000000000000417,-1.047053631244099225
0.596000000000000307,-1.040728451569020052
0.597000000000000419,-1.034555817907971020
0.598000000000000309,-1.028532262531635322
0.599000000000000421,-1.022654360558459263
0.600000000000000311,-1.016918730057765785
0.601000000000000423,-1.011322032133625592
0.602000000000000313,-1.005860970990050562
0.603000000000000425,-1.000532293977895781
0.604000000000000314,-0.995332791624067403
0.605000000000000426,-0.990259297643358516
0.606000000000000316,-0.985308688933517751
0.607000000000000428,-0.980477885553879269
0.608000000000000318,-0.975763850688141865
0.609000000000000430,-0.971163590591629267
0.610000000000000320,-0.966674154523556650
0.611000000000000432,-0.962292634664711599
0.612000000000000322,-0.958016166020985160
0.613000000000000433,-0.953841926313193533
0.614000000000000323,-0.949767135853616162
0.615000000000000435,-0.945789057409660572
0.616000000000000325,-0.941904996055064836
0.617000000000000437,-0.938112299009067896
0.618000000000000327,-0.934408355463928642
0.619000000000000439,-0.930790596401187331
0.620000000000000329,-0.927256494397086684
0.621000000000000441,-0.923803563417511020
0.622000000000000330,-0.920429358602831926
0.623000000000000442,-0.917131476043037019
0.624000000000000332,-0.913907552543488100
0.625000000000000444,-0.910755265381712698
0.626000000000000334,-0.907672332055520448
0.627000000000000446,-0.904656510022854632
0.628000000000000336,-0.901705596433674428
0.629000000000000448,-0.898817427854226914
0.630000000000000338,-0.895989879984030013
0.631000000000000449,-0.893220867365895566
0.632000000000000339,-0.890508343089297050
0.633000000000000451,-0.887850298487403045
0.634000000000000341,-0.885244762828072629
0.635000000000000453,-0.882689802999139794
0.636000000000000343,-0.880183523188199812
0.637000000000000455,-0.877724064557310002
0.638000000000000345,-0.875309604912752781
0.639000000000000457,-0.872938358370221712
0.640000000000000346,-0.870608575015668906
0.641000000000000458,-0.868318540562073138
0.642000000000000348,-0.866066576002391897
0.643000000000000460,-0.863851037258937637
0.644000000000000350,-0.861670314829438788
0.645000000000000462,-0.859522833430004574
0.646000000000000352,-0.857407051635240003
0.647000000000000464,-0.855321461515726411
0.648000000000000353,-0.853264588273109026
0.649000000000000465,-0.851234989872973413
0.650000000000000355,-0.849231256675762602
0.651000000000000467,-0.847252011065894317
0.652000000000000357,-0.845295907079328002
0.653000000000000469,-0.843361630029719422
0.654000000000000359,-0.841447896133414863
0.655000000000000471,-0.839553452133397826
0.656000000000000361,-0.837677074922435816
0.657000000000000473,-0.835817571165545781
0.658000000000000362,-0.833973776921989818
0.659000000000000474,-0.832144557266919604
0.660000000000000364,-0.830328805912882606
0.661000000000000476,-0.828525444831291757
