# CNT15-COOH-3_PRO
# h[nm],U(h)[kJ/mol]
0.200000000000000011,69.769456636018219342
0.201000000000000012,69.314037044828893386
0.202000000000000013,68.057016048467289693
0.203000000000000014,66.453851965936493684
0.204000000000000015,64.757610860473704406
0.205000000000000016,63.094246100137503674
0.206000000000000016,61.513508224450333728
0.207000000000000017,60.022564921920221082
0.208000000000000018,58.607520216500539334
0.209000000000000019,57.246604252991552642
0.210000000000000020,55.917747849464888077
0.211000000000000021,54.602472486417262587
0.212000000000000022,53.287449891340394004
0.213000000000000023,51.964664665204225003
0.214000000000000024,50.630809342810536577
0.215000000000000024,49.286324056177861053
0.216000000000000025,47.934339939054865454
0.217000000000000026,46.579679460316164352
0.218000000000000027,45.227995135232262669
0.219000000000000028,43.885080911377293944
0.220000000000000029,42.556360807314810302
0.221000000000000030,41.246541820618084273
0.222000000000000031,39.959408858417802435
0.223000000000000032,38.697735685467542055
0.224000000000000032,37.463285635080140423
0.225000000000000033,36.256877681822679449
0.226000000000000034,35.078496461545128682
0.227000000000000035,33.927428291778241487
0.228000000000000036,32.802408770516890968
0.229000000000000037,31.701770853691879637
0.230000000000000038,30.623585284992394406
0.231000000000000039,29.565787807820573363
0.232000000000000040,28.526289711376421110
0.233000000000000040,27.503069967262508300
0.234000000000000041,26.494248534991008626
0.235000000000000042,25.498141399828163856
0.236000000000000043,24.513298603692682320
0.237000000000000044,23.538526988095281212
0.238000000000000045,22.572899633140309561
0.239000000000000046,21.615754089761576751
0.240000000000000047,20.666681499855407367
0.241000000000000048,19.725508611761870981
0.242000000000000048,18.792274552451434744
0.243000000000000049,17.867204033884384273
0.244000000000000050,16.950678466147511614
0.245000000000000051,16.043206237209336251
0.246000000000000052,15.145393208366991544
0.247000000000000053,14.257914272866120342
0.248000000000000054,13.381486637740655610
0.249000000000000055,12.516845318819525446
0.250000000000000056,11.664721187837470140
0.251000000000000056,10.825821779320259353
0.252000000000000057,10.000814953209083313
0.253000000000000058,9.190315416259171144
0.254000000000000059,8.394874029880234900
0.255000000000000060,7.614969772801929437
0.256000000000000061,6.851004182105009832
0.257000000000000062,6.103298064058892969
0.258000000000000063,5.372090245152344679
0.259000000000000064,4.657538122058492824
0.260000000000000064,3.959719765492824450
0.261000000000000065,3.278637335576128464
0.262000000000000066,2.614221574102784995
0.263000000000000067,1.966337150883121776
0.264000000000000068,1.334788656051077993
0.265000000000000069,0.719327047019760357
0.266000000000000070,0.119656376871178069
0.267000000000000071,-0.464559350259048986
0.268000000000000071,-1.033689332320224974
0.269000000000000072,-1.588129247889967122
0.270000000000000073,-2.128294758989545787
0.271000000000000074,-2.654615319906363347
0.272000000000000075,-3.167528357703143449
0.273000000000000076,-3.667473875245351955
0.274000000000000077,-4.154889514023855313
0.275000000000000078,-4.630206101829552168
0.276000000000000079,-5.093843699458206586
0.277000000000000079,-5.546208151069222936
0.278000000000000080,-5.987688134545824603
0.279000000000000081,-6.418652701152152140
0.280000000000000082,-6.839449287879867612
0.281000000000000083,-7.250402181046307071
0.282000000000000084,-7.651811405860651227
0.283000000000000085,-8.043952013727055927
0.284000000000000086,-8.427073736916000257
0.285000000000000087,-8.801400978816964482
0.286000000000000087,-9.167133107205243547
0.287000000000000088,-9.524445017728737639
0.288000000000000089,-9.873487935070460964
0.289000000000000090,-10.214390419897904749
0.290000000000000091,-10.547259550701109987
0.291000000000000092,-10.872182250889709465
0.292000000000000093,-11.189226733005067871
0.293000000000000094,-11.498444033558584465
0.294000000000000095,-11.799869613785197942
0.295000000000000095,-12.093525003462257672
0.296000000000000096,-12.379419466851736331
0.297000000000000097,-12.657551671749464717
0.298000000000000098,-12.927911344540499172
0.299000000000000099,-13.190480896044300962
0.300000000000000100,-13.445237004766724453
0.301000000000000101,-13.692152145944570307
0.302000000000000102,-13.931196056458404087
0.303000000000000103,-14.162337127293275429
0.304000000000000103,-14.385543716735346820
0.305000000000000104,-14.600785378902543243
0.306000000000000105,-14.808034003515036403
0.307000000000000106,-15.007264864015089856
0.308000000000000107,-15.198457572246542924
0.309000000000000108,-15.381596938901939353
0.310000000000000109,-15.556673739843713378
0.311000000000000110,-15.723685389205574126
0.312000000000000111,-15.882636520888643972
0.313000000000000111,-16.033539480683749900
0.314000000000000112,-16.176414731784994672
0.315000000000000113,-16.311291176913066181
0.316000000000000114,-16.438206400645139382
0.317000000000000115,-16.557206835857730454
0.318000000000000116,-16.668347858432966291
0.319000000000000117,-16.771693814565047376
0.320000000000000118,-16.867317985134313574
0.321000000000000119,-16.955302491699555389
0.322000000000000119,-17.035738148696868421
0.323000000000000120,-17.108724266431821093
0.324000000000000121,-17.174368409415532000
0.325000000000000122,-17.232786114527019805
0.326000000000000123,-17.284100573390013267
0.327000000000000124,-17.328442283233979282
0.328000000000000125,-17.365948670371835760
0.329000000000000126,-17.396763690272013747
0.330000000000000127,-17.421037408034869998
0.331000000000000127,-17.438925562904550759
0.332000000000000128,-17.450589120260097786
0.333000000000000129,-17.456193814336796066
0.334000000000000130,-17.455909684730904985
0.335000000000000131,-17.449910609542495621
0.336000000000000132,-17.438373837810338784
0.337000000000000133,-17.421479523694657132
0.338000000000000134,-17.399410264666936854
0.339000000000000135,-17.372350645772549171
0.340000000000000135,-17.340486791843783720
0.341000000000000136,-17.304005929357060722
0.342000000000000137,-17.263095959450630801
0.343000000000000138,-17.217945043448221298
0.344000000000000139,-17.168741202069931262
0.345000000000000140,-17.115671929355048775
0.346000000000000141,-17.058923822172424423
0.347000000000000142,-16.998682226052711286
0.348000000000000143,-16.935130897943629691
0.349000000000000143,-16.868451686363972186
0.350000000000000144,-16.798824229314767820
0.351000000000000145,-16.726425670196526596
0.352000000000000146,-16.651430391879923576
0.353000000000000147,-16.574009768983309243
0.354000000000000148,-16.494331938323835374
0.355000000000000149,-16.412561587429941312
0.356000000000000150,-16.328859760930509282
0.357000000000000151,-16.243383684571007564
0.358000000000000151,-16.156286606547517692
0.359000000000000152,-16.067717655797455478
0.360000000000000153,-15.977821716838738197
0.361000000000000154,-15.886739320708382905
0.362000000000000155,-15.794606551515595783
0.363000000000000156,-15.701554968094143305
0.364000000000000157,-15.607711540212573453
0.365000000000000158,-15.513198598779970538
0.366000000000000159,-15.418133799467256040
0.367000000000000159,-15.322630099151032468
0.368000000000000160,-15.226795744577369618
0.369000000000000161,-15.130734272636264137
0.370000000000000162,-15.034544521634540359
0.371000000000000163,-14.938320652954576673
0.372000000000000164,-14.842152182487961198
0.373000000000000165,-14.746124021238376400
0.374000000000000166,-14.650316524493977255
0.375000000000000167,-14.554805548978521301
0.376000000000000167,-14.459662517400676762
0.377000000000000168,-14.364954489832538087
0.378000000000000169,-14.270744241361786209
0.379000000000000170,-14.177090345476036859
0.380000000000000171,-14.084047262653276888
0.381000000000000172,-13.991665433648506678
0.382000000000000173,-13.899991376983427571
0.383000000000000174,-13.809067790163808809
0.384000000000000175,-13.718933654166704628
0.385000000000000175,-13.629624340758287104
0.386000000000000176,-13.541171722221559293
0.387000000000000177,-13.453604283091658900
0.388000000000000178,-13.366947233515741544
0.389000000000000179,-13.281222623872590560
0.390000000000000180,-13.196449460306265422
0.391000000000000181,-13.112643820846333398
0.392000000000000182,-13.029818971805696037
0.393000000000000183,-12.947985484164979297
0.394000000000000183,-12.867151349670233884
0.395000000000000184,-12.787322096388141546
0.396000000000000185,-12.708500903479832189
0.397000000000000186,-12.630688714971036291
0.398000000000000187,-12.553884352312522310
0.399000000000000188,-12.478084625540269315
0.400000000000000189,-12.403284442860181613
0.401000000000000190,-12.329476918496659721
0.402000000000000191,-12.256653478658749989
0.403000000000000191,-12.184803965490875299
0.404000000000000192,-12.113916738888619307
0.405000000000000193,-12.043978776072325587
0.406000000000000194,-11.974975768823449940
0.407000000000000195,-11.906892218300130892
0.408000000000000196,-11.839711527359190413
0.409000000000000197,-11.773416090322468719
0.410000000000000198,-11.707987380135183031
0.411000000000000199,-11.643406032873308220
0.412000000000000199,-11.579651929566058044
0.413000000000000200,-11.516704275307763083
0.414000000000000201,-11.454541675641454646
0.415000000000000202,-11.393142210203759390
0.416000000000000203,-11.332483503627907240
0.417000000000000204,-11.272542793707827968
0.418000000000000205,-11.213296996832742281
0.419000000000000206,-11.154722770707095947
0.420000000000000207,-11.096796574375897393
0.421000000000000207,-11.039494725580629719
0.422000000000000208,-10.982793455474991973
0.423000000000000209,-10.926668960734247094
0.424000000000000210,-10.871097453095378782
0.425000000000000211,-10.816055206368830000
0.426000000000000212,-10.761518600965734649
0.427000000000000213,-10.707464165987159888
0.428000000000000214,-10.653868618924656531
0.429000000000000214,-10.600708903023313923
0.430000000000000215,-10.547962222360698803
0.431000000000000216,-10.495606074696768317
0.432000000000000217,-10.443618282151041043
0.433000000000000218,-10.391977019764894408
0.434000000000000219,-10.340660842007649123
0.435000000000000220,-10.289648707286037421
0.436000000000000221,-10.238920000517198972
0.437000000000000222,-10.188454553825820881
0.438000000000000222,-10.138232665426492929
0.439000000000000223,-10.088235116752205300
0.440000000000000224,-10.038443187890113251
0.441000000000000225,-9.988838671385433798
0.442000000000000226,-9.939403884474268480
0.443000000000000227,-9.890121679805318422
0.444000000000000228,-9.840975454710639170
0.445000000000000229,-9.791949159084262888
0.446000000000000230,-9.743027301927343231
0.447000000000000230,-9.694194956617577574
0.448000000000000231,-9.645437764959709170
0.449000000000000232,-9.596741940073076904
0.450000000000000233,-9.548094268171354315
0.451000000000000234,-9.499482109288267750
0.452000000000000235,-9.450893397002420926
0.453000000000000236,-9.402316637212766892
0.454000000000000237,-9.353740906015683976
0.455000000000000238,-9.305155846732787950
0.456000000000000238,-9.256551666137998069
0.457000000000000239,-9.207919129930669300
0.458000000000000240,-9.159249557500695360
0.459000000000000241,-9.110534816029909777
0.460000000000000242,-9.061767313973181359
0.461000000000000243,-9.012939993960918272
0.462000000000000244,-8.964046325163824491
0.463000000000000245,-8.915080295158977819
0.464000000000000246,-8.866036401335545492
0.465000000000000246,-8.816909641876721437
0.466000000000000247,-8.767695506353417656
0.467000000000000248,-8.718389965963885047
0.468000000000000249,-8.668989463452312805
0.469000000000000250,-8.619490902737975802
0.470000000000000251,-8.569891638285536573
0.471000000000000252,-8.520189464245587985
0.472000000000000253,-8.470382603393778354
0.473000000000000254,-8.420469695895098639
0.474000000000000254,-8.370449787919309159
0.475000000000000255,-8.320322320131930738
0.476000000000000256,-8.270087116084434697
0.477000000000000257,-8.219744370525921440
0.478000000000000258,-8.169294637657635860
0.479000000000000259,-8.118738819350678426
0.480000000000000260,-8.068078153346112558
0.481000000000000261,-8.017314201455761236
0.482000000000000262,-7.966448837781035408
0.483000000000000262,-7.915484236966212173
0.484000000000000263,-7.864422862501477596
0.485000000000000264,-7.813267455090498359
0.486000000000000265,-7.762021021096138895
0.487000000000000266,-7.710686821077173292
0.488000000000000267,-7.659268358428138690
0.489000000000000268,-7.607769368133614485
0.490000000000000269,-7.556193805647358097
0.491000000000000270,-7.504545835906273332
0.492000000000000270,-7.452829822488098444
0.493000000000000271,-7.401050316921394590
0.494000000000000272,-7.349212048155534305
0.495000000000000273,-7.297319912197727021
0.496000000000000274,-7.245378961923781169
0.497000000000000275,-7.193394397068324508
0.498000000000000276,-7.141371554400019583
0.499000000000000277,-7.089315898086530510
0.500000000000000222,-7.037233010253514109
0.501000000000000334,-6.985128581741572695
0.502000000000000224,-6.933008403064434333
0.503000000000000336,-6.880878355571195648
0.504000000000000226,-6.828744402815331682
0.505000000000000338,-6.776612582132150564
0.506000000000000227,-6.724488996426787324
0.507000000000000339,-6.672379806173621475
0.508000000000000229,-6.620291221628390232
0.509000000000000341,-6.568229495253267380
0.510000000000000231,-6.516200914355603224
0.511000000000000343,-6.464211793939800721
0.512000000000000233,-6.412268469772497426
0.513000000000000345,-6.360377291660066490
0.514000000000000234,-6.308544616938023708
0.515000000000000346,-6.256776804170767647
0.516000000000000236,-6.205080207060886366
0.517000000000000348,-6.153461168566045636
0.518000000000000238,-6.101926015222155719
0.519000000000000350,-6.050481051670579369
0.520000000000000240,-5.999132555387590493
0.521000000000000352,-5.947886771613683621
0.522000000000000242,-5.896749908480477309
0.523000000000000353,-5.845728132332588700
0.524000000000000243,-5.794827563241971902
0.525000000000000355,-5.744054270711833610
0.526000000000000245,-5.693414269567440122
0.527000000000000357,-5.642913516030595211
0.528000000000000247,-5.592557903975104772
0.529000000000000359,-5.542353261359731498
0.530000000000000249,-5.492305346835748558
0.531000000000000361,-5.442419846525611504
0.532000000000000250,-5.392702370969653991
0.533000000000000362,-5.343158452237206646
0.534000000000000252,-5.293793541198954067
0.535000000000000364,-5.244613004956944380
0.536000000000000254,-5.195622124428938449
0.537000000000000366,-5.146826092083354176
0.538000000000000256,-5.098230009821706155
0.539000000000000368,-5.049838887004533206
0.540000000000000258,-5.001657638617830415
0.541000000000000369,-4.953691083575906262
0.542000000000000259,-4.905943943157681453
0.543000000000000371,-4.858420839572487715
0.544000000000000261,-4.811126294652139812
0.545000000000000373,-4.764064728665648119
0.546000000000000263,-4.717240459253263296
0.547000000000000375,-4.670657700476089857
0.548000000000000265,-4.624320561978371380
0.549000000000000377,-4.578233048258455007
0.550000000000000266,-4.532399058045603724
0.551000000000000378,-4.486822383778938494
0.552000000000000268,-4.441506711185505551
0.553000000000000380,-4.396455618953979183
0.554000000000000270,-4.351672578501024624
0.555000000000000382,-4.307160953826885574
0.556000000000000272,-4.262924001457379042
0.557000000000000384,-4.218964870468846939
0.558000000000000274,-4.175286602593445195
0.559000000000000385,-4.131892132401346451
0.560000000000000275,-4.088784287557343688
0.561000000000000387,-4.045965789148583625
0.562000000000000277,-4.003439252080873700
0.563000000000000389,-3.961207185540612130
0.564000000000000279,-3.919271993519686248
0.565000000000000391,-3.877635975400600898
0.566000000000000281,-3.836301326599281136
0.567000000000000393,-3.795270139262842513
0.568000000000000282,-3.754544403020029897
0.569000000000000394,-3.714126005781543505
0.570000000000000284,-3.674016734588189337
0.571000000000000396,-3.634218276504162848
0.572000000000000286,-3.594732219553479435
0.573000000000000398,-3.555560053696963596
0.574000000000000288,-3.516703171847924470
0.575000000000000400,-3.478162870924138783
0.576000000000000290,-3.439940352934195200
0.577000000000000401,-3.402036726096047570
0.578000000000000291,-3.364453005985936329
0.579000000000000403,-3.327190116715582402
0.580000000000000293,-3.290248892135969605
0.581000000000000405,-3.253630077065635895
0.582000000000000295,-3.217334328542038158
0.583000000000000407,-3.181362217093877121
0.584000000000000297,-3.145714228033076321
0.585000000000000409,-3.110390762764486006
0.586000000000000298,-3.075392140112010342
0.587000000000000410,-3.040718597659354483
0.588000000000000300,-3.006370293104196456
0.589000000000000412,-2.972347305624074121
0.590000000000000302,-2.938649637252843227
0.591000000000000414,-2.905277214266204222
0.592000000000000304,-2.872229888575107193
0.593000000000000416,-2.839507439125654287
0.594000000000000306,-2.807109573304487071
0.595000000000000417,-2.775035928348284386
0.596000000000000307,-2.743286072756405680
0.597000000000000419,-2.711859507705491890
0.598000000000000309,-2.680755668465084174
0.599000000000000421,-2.649973925813123632
0.600000000000000311,-2.619513587450533532
0.601000000000000423,-2.589373899413767166
0.602000000000000313,-2.559554047484659201
0.603000000000000425,-2.530053158596442753
0.604000000000000314,-2.500870302235467246
0.605000000000000426,-2.472004491837436646
0.606000000000000316,-2.443454686177810586
0.607000000000000428,-2.415219790755303464
0.608000000000000318,-2.387298659168107129
0.609000000000000430,-2.359690094481897038
0.610000000000000320,-2.332392850589272371
0.611000000000000432,-2.305405633559781897
0.612000000000000322,-2.278727102980215857
0.613000000000000433,-2.252355873284403565
0.614000000000000323,-2.226290515072212539
0.615000000000000435,-2.200529556417099464
0.616000000000000325,-2.175071484161894997
0.617000000000000437,-2.149914745202290867
0.618000000000000327,-2.125057747757716164
0.619000000000000439,-2.100498862629118335
0.620000000000000329,-2.076236424443424156
0.621000000000000441,-2.052268732884217961
0.622000000000000330,-2.028594053908440831
0.623000000000000442,-2.005210620948701283
0.624000000000000332,-1.982116636101068252
0.625000000000000444,-1.959310271297955097
0.626000000000000334,-1.936789669465996955
0.627000000000000446,-1.914552945668589912
0.628000000000000336,-1.892598188233012735
0.629000000000000448,-1.870923459861841609
0.630000000000000338,-1.849526798728645449
0.631000000000000449,-1.828406219557636714
0.632000000000000339,-1.807559714687344110
0.633000000000000451,-1.786985255118030080
0.634000000000000341,-1.766680791542903917
0.635000000000000453,-1.746644255362916009
0.636000000000000343,-1.726873559685180526
0.637000000000000455,-1.707366600304877080
0.638000000000000345,-1.688121256670704895
0.639000000000000457,-1.669135392833691611
0.640000000000000346,-1.650406858379547925
0.641000000000000458,-1.631933489344368216
0.642000000000000348,-1.613713109113835698
0.643000000000000460,-1.595743529305818864
0.644000000000000350,-1.578022550636523302
0.645000000000000462,-1.560547963770073654
0.646000000000000352,-1.543317550151745321
0.647000000000000464,-1.526329082824712691
0.648000000000000353,-1.509580327230591879
0.649000000000000465,-1.493069041993590140
0.650000000000000355,-1.476792979688619001
0.651000000000000467,-1.460749887593197460
0.652000000000000357,-1.444937508423448369
0.653000000000000469,-1.429353581054111144
0.654000000000000359,-1.413995841222844607
0.655000000000000471,-1.398862022218750445
0.656000000000000361,-1.383949855555425046
0.657000000000000473,-1.369257071628467992
0.658000000000000362,-1.354781400357748300
0.659000000000000474,-1.340520571814422857
