# CNT15-COOH-3_CS-387-AC
# h[nm],U(h)[kJ/mol]
0.200000000000000011,104.747737388693508365
0.201000000000000012,103.936896931985074843
0.202000000000000013,102.417741883025769312
0.203000000000000014,100.620684482704774609
0.204000000000000015,98.776786247633282301
0.205000000000000016,96.994297510722972788
0.206000000000000016,95.309740497267497972
0.207000000000000017,93.721110408455800211
0.208000000000000018,92.208702414293910010
0.209000000000000019,90.747532923627133528
0.210000000000000020,89.314183443231257797
0.211000000000000021,87.890056856677432506
0.212000000000000022,86.462424110783658193
0.213000000000000023,85.024196912689745886
0.214000000000000024,83.573045631032158553
0.215000000000000024,82.110258219311504035
0.216000000000000025,80.639580789656079673
0.217000000000000026,79.166174806433332378
0.218000000000000027,77.695755813530411160
0.219000000000000028,76.233933822197812447
0.220000000000000029,74.785748355111607566
0.221000000000000030,73.355376105514494611
0.222000000000000031,71.945982205738047810
0.223000000000000032,70.559684332664986073
0.224000000000000032,69.197600284626986422
0.225000000000000033,67.859952845739826444
0.226000000000000034,66.546209765868795216
0.227000000000000035,65.255240911361326539
0.228000000000000036,63.985478700511819738
0.229000000000000037,62.735071608478939709
0.230000000000000038,61.502023700481437629
0.231000000000000039,60.284315794947737288
0.232000000000000040,59.080005982389685926
0.233000000000000040,57.887308871697520374
0.234000000000000041,56.704654158819927545
0.235000000000000042,55.530725974873710982
0.236000000000000043,54.364485033240598000
0.237000000000000044,53.205175916283607762
0.238000000000000045,52.052321974526286397
0.239000000000000046,50.905710300520560452
0.240000000000000047,49.765369125393739580
0.241000000000000048,48.631539800828846865
0.242000000000000048,47.504645299455987129
0.243000000000000049,46.385256913289317993
0.244000000000000050,45.274060569108591778
0.245000000000000051,44.171823923615960439
0.246000000000000052,43.079365158460483087
0.247000000000000053,41.997524171643853208
0.248000000000000054,40.927136661001306095
0.249000000000000055,39.869011419209620328
0.250000000000000056,38.823911008578406268
0.251000000000000056,37.792535857191460025
0.252000000000000057,36.775511714524860452
0.253000000000000058,35.773380322733160597
0.254000000000000059,34.786593097324427504
0.255000000000000060,33.815507565745171803
0.256000000000000061,32.860386282234507860
0.257000000000000062,31.921397919994539905
0.258000000000000063,30.998620235173085291
0.259000000000000064,30.092044599424024653
0.260000000000000064,29.201581807125101875
0.261000000000000065,28.327068878104181948
0.262000000000000066,27.468276595544192986
0.263000000000000067,26.624917540390718784
0.264000000000000068,25.796654407026572642
0.265000000000000069,24.983108409330178290
0.266000000000000070,24.183867610776825785
0.267000000000000071,23.398495036385547508
0.268000000000000071,22.626536447602369151
0.269000000000000072,21.867527683287676155
0.270000000000000073,21.121001490586412075
0.271000000000000074,20.386493788428701635
0.272000000000000075,19.663549323627073306
0.273000000000000076,18.951726694956914088
0.274000000000000077,18.250602734224823820
0.275000000000000078,17.559776245180071186
0.276000000000000079,16.878871111272879091
0.277000000000000079,16.207538791792945432
0.278000000000000080,15.545460232940410350
0.279000000000000081,14.892347225996314108
0.280000000000000082,14.247943249096948648
0.281000000000000083,13.612023832294557479
0.282000000000000084,12.984396487731931558
0.283000000000000085,12.364900247990348703
0.284000000000000086,11.753404856103339071
0.285000000000000087,11.149809650479175716
0.286000000000000087,10.554042187140723286
0.287000000000000088,9.966056640374430842
0.288000000000000089,9.385832021167599848
0.289000000000000090,8.813370250786254800
0.290000000000000091,8.248694124580080000
0.291000000000000092,7.691845198658571192
0.292000000000000093,7.142881629525447806
0.293000000000000094,6.601875994134933201
0.294000000000000095,6.068913115189167762
0.295000000000000095,5.544087913867118189
0.296000000000000096,5.027503309596359493
0.297000000000000097,4.519268183973204067
0.298000000000000098,4.019495423528312905
0.299000000000000099,3.528300053738937070
0.300000000000000100,3.045797474520490766
0.301000000000000101,2.572101805396200369
0.302000000000000102,2.107324346654290359
0.303000000000000103,1.651572161056085175
0.304000000000000103,1.204946779063024165
0.305000000000000104,0.767543029099637897
0.306000000000000105,0.339447993064423414
0.307000000000000106,-0.079259913863862691
0.308000000000000107,-0.488511741105821407
0.309000000000000108,-0.888248681126044937
0.310000000000000109,-1.278422632097290901
0.311000000000000110,-1.658996649095026754
0.312000000000000111,-2.029945288683314253
0.313000000000000111,-2.391254852197856717
0.314000000000000112,-2.742923533385272172
0.315000000000000113,-3.084961476323110130
0.316000000000000114,-3.417390749732047261
0.317000000000000115,-3.740245243906779482
0.318000000000000116,-4.053570496543345669
0.319000000000000117,-4.357423453733747287
0.320000000000000118,-4.651872172341437128
0.321000000000000119,-4.936995469869538411
0.322000000000000119,-5.212882527792617182
0.323000000000000120,-5.479632454149070853
0.324000000000000121,-5.737353810989928249
0.325000000000000122,-5.986164112054369824
0.326000000000000123,-6.226189295798906898
0.327000000000000124,-6.457563178648706881
0.328000000000000125,-6.680426893070280592
0.329000000000000126,-6.894928314787381218
0.330000000000000127,-7.101221483180634841
0.331000000000000127,-7.299466018627326136
0.332000000000000128,-7.489826540254695075
0.333000000000000129,-7.672472087299345489
0.334000000000000130,-7.847575546988653450
0.335000000000000131,-8.015313091590254402
0.336000000000000132,-8.175863627011606738
0.337000000000000133,-8.329408255077755285
0.338000000000000134,-8.476129751369899878
0.339000000000000135,-8.616212060271658757
0.340000000000000135,-8.749839808646672878
0.341000000000000136,-8.877197839356915310
0.342000000000000137,-8.998470765630269597
0.343000000000000138,-9.113842547095440949
0.344000000000000139,-9.223496088124894854
0.345000000000000140,-9.327612858959549058
0.346000000000000141,-9.426372539935021777
0.347000000000000142,-9.519952688985831912
0.348000000000000143,-9.608528432472699166
0.349000000000000143,-9.692272179257290787
0.350000000000000144,-9.771353357839018372
0.351000000000000145,-9.845938176269010356
0.352000000000000146,-9.916189404466917878
0.353000000000000147,-9.982266178486291608
0.354000000000000148,-10.044323826203386929
0.355000000000000149,-10.102513713842311560
0.356000000000000150,-10.156983112695233018
0.357000000000000151,-10.207875085350485378
0.358000000000000151,-10.255328390702391772
0.359000000000000152,-10.299477406984498984
0.360000000000000153,-10.340452072042641163
0.361000000000000154,-10.378377840043993885
0.362000000000000155,-10.413375653804497034
0.363000000000000156,-10.445561931907644038
0.364000000000000157,-10.475048569783112384
0.365000000000000158,-10.501942953913761869
0.366000000000000159,-10.526347988342649842
0.367000000000000159,-10.548362132659470092
0.368000000000000160,-10.568079450655620377
0.369000000000000161,-10.585589668850605705
0.370000000000000162,-10.600978244107951198
0.371000000000000163,-10.614326439576766248
0.372000000000000164,-10.625711408214897347
0.373000000000000165,-10.635206283171012132
0.374000000000000166,-10.642880274326151024
0.375000000000000167,-10.648798770318810725
0.376000000000000167,-10.653023445403423608
0.377000000000000168,-10.655612370517349774
0.378000000000000169,-10.656620127958202460
0.379000000000000170,-10.656097929100212696
0.380000000000000171,-10.654093734605361021
0.381000000000000172,-10.650652376612288919
0.382000000000000173,-10.645815682413202197
0.383000000000000174,-10.639622599156249194
0.384000000000000175,-10.632109319137478920
0.385000000000000175,-10.623309405273200667
0.386000000000000176,-10.613253916369753682
0.387000000000000177,-10.601971531833024542
0.388000000000000178,-10.589488675485679181
0.389000000000000179,-10.575829638183869008
0.390000000000000180,-10.561016698949618586
0.391000000000000181,-10.545070244357761524
0.392000000000000182,-10.528008885938898942
0.393000000000000183,-10.509849575381284836
0.394000000000000183,-10.490607717335489468
0.395000000000000184,-10.470297279645572885
0.396000000000000185,-10.448930900849703107
0.397000000000000186,-10.426519994811489056
0.398000000000000187,-10.403074852360798985
0.399000000000000188,-10.378604739839548898
0.400000000000000189,-10.353117994463636009
0.401000000000000190,-10.326622116427374820
0.402000000000000191,-10.299123857691000694
0.403000000000000191,-10.270629307404934849
0.404000000000000192,-10.241143973937521849
0.405000000000000193,-10.210672863484465012
0.406000000000000194,-10.179220555249326452
0.407000000000000195,-10.146791273195121974
0.408000000000000196,-10.113388954376100415
0.409000000000000197,-10.079017313868295247
0.410000000000000198,-10.043679906325465367
0.411000000000000199,-10.007380184194545336
0.412000000000000199,-9.970121552632031481
0.413000000000000200,-9.931907421168869377
0.414000000000000201,-9.892741252177446043
0.415000000000000202,-9.852626606199301307
0.416000000000000203,-9.811567184197233615
0.417000000000000204,-9.769566866799470617
0.418000000000000205,-9.726629750607440172
0.419000000000000206,-9.682760181642045438
0.420000000000000207,-9.637962786005996207
0.421000000000000207,-9.592242497842624616
0.422000000000000208,-9.545604584673094806
0.423000000000000209,-9.498054670196307114
0.424000000000000210,-9.449598754636605591
0.425000000000000211,-9.400243232725713938
0.426000000000000212,-9.349994909406120769
0.427000000000000213,-9.298861013343280746
0.428000000000000214,-9.246849208334646519
0.429000000000000214,-9.193967602703056130
0.430000000000000215,-9.140224756761993419
0.431000000000000216,-9.085629688439750495
0.432000000000000217,-9.030191877148615376
0.433000000000000218,-8.973921265984593276
0.434000000000000219,-8.916828262342008315
0.435000000000000220,-8.858923737026264789
0.436000000000000221,-8.800219021946571019
0.437000000000000222,-8.740725906469126727
0.438000000000000222,-8.680456632509795156
0.439000000000000223,-8.619423888443414228
0.440000000000000224,-8.557640801905455064
0.441000000000000225,-8.495120931559636546
0.442000000000000226,-8.431878257903619556
0.443000000000000227,-8.367927173182513556
0.444000000000000228,-8.303282470478444921
0.445000000000000229,-8.237959332042027683
0.446000000000000230,-8.171973316929728171
0.447000000000000230,-8.105340348009177021
0.448000000000000231,-8.038076698392053743
0.449000000000000232,-7.970198977352334957
0.450000000000000233,-7.901724115785734526
0.451000000000000234,-7.832669351263557012
0.452000000000000235,-7.763052212732776347
0.453000000000000236,-7.692890504911410687
0.454000000000000237,-7.622202292426834447
0.455000000000000238,-7.551005883742038627
0.456000000000000238,-7.479319814913324649
0.457000000000000239,-7.407162833220574782
0.458000000000000240,-7.334553880709583140
0.459000000000000241,-7.261512077683588195
0.460000000000000242,-7.188056706179838606
0.461000000000000243,-7.114207193464513246
0.462000000000000244,-7.039983095578146610
0.463000000000000245,-6.965404080961218547
0.464000000000000246,-6.890489914188639986
0.465000000000000246,-6.815260439839454065
0.466000000000000247,-6.739735566526843691
0.467000000000000248,-6.663935251111771763
0.468000000000000249,-6.587879483122137003
0.469000000000000250,-6.511588269397643458
0.470000000000000251,-6.435081618979292095
0.471000000000000252,-6.358379528260819313
0.472000000000000253,-6.281501966418283622
0.473000000000000254,-6.204468861132297341
0.474000000000000254,-6.127300084616576825
0.475000000000000255,-6.050015439964793629
0.476000000000000256,-5.972634647826938092
0.477000000000000257,-5.895177333424981292
0.478000000000000258,-5.817663013916609671
0.479000000000000259,-5.740111086114865202
0.480000000000000260,-5.662540814570362180
0.481000000000000261,-5.584971320021815622
0.482000000000000262,-5.507421568219852404
0.483000000000000262,-5.429910359128041542
0.484000000000000263,-5.352456316504188294
0.485000000000000264,-5.275077877864447373
0.486000000000000265,-5.197793284831674576
0.487000000000000266,-5.120620573868970737
0.488000000000000267,-5.043577567398623174
0.489000000000000268,-4.966681865306028953
0.490000000000000269,-4.889950836827448022
0.491000000000000270,-4.813401612820145559
0.492000000000000270,-4.737051078412550353
0.493000000000000271,-4.660915866031984933
0.494000000000000272,-4.585012348806698945
0.495000000000000273,-4.509356634338597125
0.496000000000000274,-4.433964558842850678
0.497000000000000275,-4.358851681649807297
0.498000000000000276,-4.284033280064597271
0.499000000000000277,-4.209524344579370414
0.500000000000000222,-4.135339574432676635
0.501000000000000334,-4.061493373510517202
0.502000000000000224,-3.987999846583077268
0.503000000000000336,-3.914872795870912192
0.504000000000000226,-3.842125717934520512
0.505000000000000338,-3.769771800880339363
0.506000000000000227,-3.697823921877005482
0.507000000000000339,-3.626294644974451753
0.508000000000000229,-3.555196219219362241
0.509000000000000341,-3.484540577059424216
0.510000000000000231,-3.414339333029714485
0.511000000000000343,-3.344603782713326812
0.512000000000000233,-3.275344901969480471
0.513000000000000345,-3.206573346421202952
0.514000000000000234,-3.138299451195705636
0.515000000000000346,-3.070533230909336719
0.516000000000000236,-3.003284379890324818
0.517000000000000348,-2.936562272631264570
0.518000000000000238,-2.870375964464364493
0.519000000000000350,-2.804734192451566521
0.520000000000000240,-2.739645376482545913
0.521000000000000352,-2.675117620572933230
0.522000000000000242,-2.611158714355624522
0.523000000000000353,-2.547776134757727462
0.524000000000000243,-2.484977047856181009
0.525000000000000355,-2.422768310904690026
0.526000000000000245,-2.361156474525166971
0.527000000000000357,-2.300147785056401162
0.528000000000000247,-2.239748187053470563
0.529000000000000359,-2.179963325930718732
0.530000000000000249,-2.120798550741954891
0.531000000000000361,-2.062258917091011945
0.532000000000000250,-2.004349190166469175
0.533000000000000362,-1.947073847893879162
0.534000000000000252,-1.890437084199555029
0.535000000000000364,-1.834442812379494026
0.536000000000000254,-1.779094668567757775
0.537000000000000366,-1.724396015297990248
0.538000000000000256,-1.670349945152832971
0.539000000000000368,-1.616959284495045113
0.540000000000000258,-1.564226597275352626
0.541000000000000369,-1.512154188911100539
0.542000000000000259,-1.460744110230999482
0.543000000000000371,-1.409998161480340073
0.544000000000000261,-1.359917896382040414
0.545000000000000373,-1.310504626248440996
0.546000000000000263,-1.261759424139289987
0.547000000000000375,-1.213683129061001731
0.548000000000000265,-1.166276350203204526
0.549000000000000377,-1.119539471207644077
0.550000000000000266,-1.073472654465741360
0.551000000000000378,-1.028075845440333591
0.552000000000000268,-0.983348777007864605
0.553000000000000380,-0.939290973817030306
0.554000000000000270,-0.895901756660327897
0.555000000000000382,-0.853180246854664204
0.556000000000000272,-0.811125370627892139
0.557000000000000384,-0.769735863507533757
0.558000000000000274,-0.729010274708854711
0.559000000000000385,-0.688946971518789142
0.560000000000000275,-0.649544143673077778
0.561000000000000387,-0.610799807723434340
0.562000000000000277,-0.572711811392168424
0.563000000000000389,-0.535277837911484533
0.564000000000000279,-0.498495410344999723
0.565000000000000391,-0.462361895888926622
0.566000000000000281,-0.426874510150683784
0.567000000000000393,-0.392030321402588533
0.568000000000000282,-0.357826254808649602
0.569000000000000394,-0.324259096622178444
0.570000000000000284,-0.291325498352571155
0.571000000000000396,-0.259021980899117488
0.572000000000000286,-0.227344938650368367
0.573000000000000398,-0.196290643547096383
0.574000000000000288,-0.165855249107544817
0.575000000000000400,-0.136034794413295967
0.576000000000000290,-0.106825208054430992
0.577000000000000401,-0.078222312032608099
0.578000000000000291,-0.050221825620882551
0.579000000000000403,-0.022819369178995630
0.580000000000000293,0.003989532076820556
0.581000000000000405,0.030209444350716753
0.582000000000000295,0.055845021591514790
0.583000000000000407,0.080901001865509095
0.584000000000000297,0.105382203778409650
0.585000000000000409,0.129293522947286688
0.586000000000000298,0.152639928523124496
0.587000000000000410,0.175426459764669057
0.588000000000000300,0.197658222664048255
0.589000000000000412,0.219340386624782779
0.590000000000000302,0.240478181192505719
0.591000000000000414,0.261076892838844443
0.592000000000000304,0.281141861798832882
0.593000000000000416,0.300678478962102924
0.594000000000000306,0.319692182818061443
0.595000000000000417,0.338188456455344177
0.596000000000000307,0.356172824615606509
0.597000000000000419,0.373650850801794443
0.598000000000000309,0.390628134440925867
0.599000000000000421,0.407110308101488794
0.600000000000000311,0.423103034765295871
0.601000000000000423,0.438612005153908413
0.602000000000000313,0.453642935109354273
0.603000000000000425,0.468201563029255918
0.604000000000000314,0.482293647355896582
0.605000000000000426,0.495924964119377143
0.606000000000000316,0.509101304534353982
0.607000000000000428,0.521828472650316399
0.608000000000000318,0.534112283054981263
0.609000000000000430,0.545958558630636026
0.610000000000000320,0.557373128362966819
0.611000000000000432,0.568361825202154392
0.612000000000000322,0.578930483975762411
0.613000000000000433,0.589084939353090031
0.614000000000000323,0.598831023860538991
0.615000000000000435,0.608174565947577128
0.616000000000000325,0.617121388102851887
0.617000000000000437,0.625677305019979424
0.618000000000000327,0.633848121812508714
0.619000000000000439,0.641639632277616001
0.620000000000000329,0.649057617207954296
0.621000000000000441,0.656107842751153081
0.622000000000000330,0.662796058816465194
0.623000000000000442,0.669127997527956708
0.624000000000000332,0.675109371723727536
0.625000000000000444,0.680745873500545384
0.626000000000000334,0.686043172803373236
0.627000000000000446,0.691006916059141663
0.628000000000000336,0.695642724854228733
0.629000000000000448,0.699956194655001251
0.630000000000000338,0.703952893570837124
0.631000000000000449,0.707638361159001250
0.632000000000000339,0.711018107270789401
0.633000000000000451,0.714097610938261962
0.634000000000000341,0.716882319301006321
0.635000000000000453,0.719377646572236906
0.636000000000000343,0.721588973043688853
0.637000000000000455,0.723521644128564900
0.638000000000000345,0.725180969441985068
0.639000000000000457,0.726572221918289962
0.640000000000000346,0.727700636964523806
0.641000000000000458,0.728571411649511669
0.642000000000000348,0.729189703927869748
0.643000000000000460,0.729560631898312995
0.644000000000000350,0.729689273095655899
0.645000000000000462,0.729580663815828201
0.646000000000000352,0.729239798473333201
0.647000000000000464,0.728671628990483322
0.648000000000000353,0.727881064217794860
0.649000000000000465,0.726872969384939727
0.650000000000000355,0.725652165581616493
0.651000000000000467,0.724223429267746299
0.652000000000000357,0.722591491812361042
0.653000000000000469,0.720761039060596298
0.654000000000000359,0.718736710928184364
0.655000000000000471,0.716523101022851328
0.656000000000000361,0.714124756292012330
0.657000000000000473,0.711546176696198907
0.658000000000000362,0.708791814907618778
0.659000000000000474,0.705866076033293210
0.660000000000000364,0.702773317362167194
0.661000000000000476,0.699517848135656650
0.662000000000000366,0.696103929341081562
0.663000000000000478,0.692535773527367282
0.664000000000000368,0.688817544642568835
