# CNT15-COOH-3_CS-949-AC
# h[nm],U(h)[kJ/mol]
0.200000000000000011,60.790360606904599194
0.201000000000000012,59.799323122661370178
0.202000000000000013,58.601730379947980509
0.203000000000000014,57.328764276182688775
0.204000000000000015,56.046586060961530507
0.205000000000000016,54.783311120173479480
0.206000000000000016,53.546356050170267338
0.207000000000000017,52.333201005896661684
0.208000000000000018,51.137736882776493985
0.209000000000000019,49.953725891033137430
0.210000000000000020,48.776437200610168077
0.211000000000000021,47.603182243432527798
0.212000000000000022,46.433233364517235486
0.213000000000000023,45.267439456013889298
0.214000000000000024,44.107733927997330170
0.215000000000000024,42.956649608647310856
0.216000000000000025,41.816901316705262559
0.217000000000000026,40.691062068008257313
0.218000000000000027,39.581337408255549803
0.219000000000000028,38.489430014889784104
0.220000000000000029,37.416480460978348788
0.221000000000000030,36.363067731115464198
0.222000000000000031,35.329253212491465774
0.223000000000000032,34.314653411414916206
0.224000000000000032,33.318528864952213553
0.225000000000000033,32.339879171180513140
0.226000000000000034,31.377536464649288916
0.227000000000000035,30.430251850909332489
0.228000000000000036,29.496771201993887246
0.229000000000000037,28.575898274131294130
0.230000000000000038,27.666544344550469958
0.231000000000000039,26.767764501148160861
0.232000000000000040,25.878781392892175717
0.233000000000000040,24.998997700310372494
0.234000000000000041,24.127998854568115661
0.235000000000000042,23.265547658353359139
0.236000000000000043,22.411572476101191853
0.237000000000000044,21.566150594522675021
0.238000000000000045,20.729488231812617016
0.239000000000000046,19.901898515671156531
0.240000000000000047,19.083778572622499325
0.241000000000000048,18.275586686640131973
0.242000000000000048,17.477820303209185226
0.243000000000000049,16.690995482436186137
0.244000000000000050,15.915628246230344445
0.245000000000000051,15.152218122727941108
0.246000000000000052,14.401234067445020770
0.247000000000000053,13.663102835474177255
0.248000000000000054,12.938199791970344421
0.249000000000000055,12.226842078210964360
0.250000000000000056,11.529283996311439964
0.251000000000000056,10.845714435645188445
0.252000000000000057,10.176256136464221669
0.253000000000000058,9.520966569428541248
0.254000000000000059,8.879840202053321363
0.255000000000000060,8.252811922890646912
0.256000000000000061,7.639761400108556089
0.257000000000000062,7.040518161687190357
0.258000000000000063,6.454867198537321826
0.259000000000000064,5.882554908427622742
0.260000000000000064,5.323295216795984608
0.261000000000000065,4.776775729568965900
0.262000000000000066,4.242663792399363309
0.263000000000000067,3.720612349756271531
0.264000000000000068,3.210265515665210678
0.265000000000000069,2.711263785296020856
0.266000000000000070,2.223248832813233378
0.267000000000000071,1.745867855783574729
0.268000000000000071,1.278777439889088985
0.269000000000000072,0.821646929677195659
0.270000000000000073,0.374161301589971851
0.271000000000000074,-0.063976455416247663
0.272000000000000075,-0.493043438668637091
0.273000000000000076,-0.913295390631424508
0.274000000000000077,-1.324965693310140136
0.275000000000000078,-1.728264769685541991
0.276000000000000079,-2.123379860665792762
0.277000000000000079,-2.510475143977440649
0.278000000000000080,-2.889692160163053636
0.279000000000000081,-3.261150510318382434
0.280000000000000082,-3.624948790282886080
0.281000000000000083,-3.981165726604987576
0.282000000000000084,-4.329861480648562022
0.283000000000000085,-4.671079088610945895
0.284000000000000086,-5.004846006912332612
0.285000000000000087,-5.331175734323240434
0.286000000000000087,-5.650069484264237829
0.287000000000000088,-5.961517882885333464
0.288000000000000089,-6.265502670766048610
0.289000000000000090,-6.561998388331629073
0.290000000000000091,-6.850974027320198445
0.291000000000000092,-7.132394632833728210
0.292000000000000093,-7.406222842635694192
0.293000000000000094,-7.672420352402950172
0.294000000000000095,-7.930949297582240654
0.295000000000000095,-8.181773544332177295
0.296000000000000096,-8.424859883739650002
0.297000000000000097,-8.660179125081658214
0.298000000000000098,-8.887707085354843883
0.299000000000000099,-9.107425473615942124
0.300000000000000100,-9.319322669866499709
0.301000000000000101,-9.523394399278750200
0.302000000000000102,-9.719644303497579685
0.303000000000000103,-9.908084411574186845
0.304000000000000103,-10.088735513791990073
0.305000000000000104,-10.261627442244053654
0.306000000000000105,-10.426799262518219535
0.307000000000000106,-10.584299381248776228
0.308000000000000107,-10.734185574609185210
0.309000000000000108,-10.876524943055370542
0.310000000000000109,-11.011393797791646065
0.311000000000000110,-11.138877484526302553
0.312000000000000111,-11.259070150121093690
0.313000000000000111,-11.372074457721181417
0.314000000000000112,-11.478001255888841570
0.315000000000000113,-11.576969207159347519
0.316000000000000114,-11.669104381297682238
0.317000000000000115,-11.754539818364253989
0.318000000000000116,-11.833415066502659840
0.319000000000000117,-11.905875699146287516
0.320000000000000118,-11.972072816107814930
0.321000000000000119,-12.032162532770470875
0.322000000000000119,-12.086305461344890588
0.323000000000000120,-12.134666187894742606
0.324000000000000121,-12.177412748570132450
0.325000000000000122,-12.214716108222734903
0.326000000000000123,-12.246749644312995287
0.327000000000000124,-12.273688638759477243
0.328000000000000125,-12.295709780125456234
0.329000000000000126,-12.312990678288706192
0.330000000000000127,-12.325709393499792554
0.331000000000000127,-12.334043981501693565
0.332000000000000128,-12.338172056160860990
0.333000000000000129,-12.338270370847441271
0.334000000000000130,-12.334514419600324686
0.335000000000000131,-12.327078058922371184
0.336000000000000132,-12.316133150871431567
0.337000000000000133,-12.301849227945016452
0.338000000000000134,-12.284393180100035892
0.339000000000000135,-12.263928964103795849
0.340000000000000135,-12.240617335278749067
0.341000000000000136,-12.214615601580714355
0.342000000000000137,-12.186077399838151081
0.343000000000000138,-12.155152493878615516
0.344000000000000139,-12.121986594177053931
0.345000000000000140,-12.086721198578860736
0.346000000000000141,-12.049493453578126179
0.347000000000000142,-12.010436035567881419
0.348000000000000143,-11.969677051424174152
0.349000000000000143,-11.927339957738308129
0.350000000000000144,-11.883543497972096858
0.351000000000000145,-11.838401656778140492
0.352000000000000146,-11.792023630701105930
0.353000000000000147,-11.744513814455926237
0.354000000000000148,-11.695971801964594405
0.355000000000000149,-11.646492401324019639
0.356000000000000150,-11.596165662873163527
0.357000000000000151,-11.545076919527899051
0.358000000000000151,-11.493306838555955807
0.359000000000000152,-11.440931483972136107
0.360000000000000153,-11.388022388745143942
0.361000000000000154,-11.334646636020874411
0.362000000000000155,-11.280866948583978981
0.363000000000000156,-11.226741785797921480
0.364000000000000157,-11.172325447284531919
0.365000000000000158,-11.117668182626770701
0.366000000000000159,-11.062816306401847655
0.367000000000000159,-11.007812317877293751
0.368000000000000160,-10.952695024728445361
0.369000000000000161,-10.897499670162670071
0.370000000000000162,-10.842258062862928369
0.371000000000000163,-10.786998709191371049
0.372000000000000164,-10.731746947121198588
0.373000000000000165,-10.676525081393613448
0.374000000000000166,-10.621352519424368310
0.375000000000000167,-10.566245907512412217
0.376000000000000167,-10.511219266930851290
0.377000000000000168,-10.456284129507420033
0.378000000000000169,-10.401449672328512364
0.379000000000000170,-10.346722851227138307
0.380000000000000171,-10.292108532740439131
0.381000000000000172,-10.237609624247635765
0.382000000000000173,-10.183227202023175550
0.383000000000000174,-10.128960636963576292
0.384000000000000175,-10.074807717768713644
0.385000000000000175,-10.020764771380425984
0.386000000000000176,-9.966826780502126226
0.387000000000000177,-9.912987498043007051
0.388000000000000178,-9.859239558350113342
0.389000000000000179,-9.805574585109253505
0.390000000000000180,-9.751983295813753116
0.391000000000000181,-9.698455602716155255
0.392000000000000182,-9.644980710194040796
0.393000000000000183,-9.591547208475629915
0.394000000000000183,-9.538143163685049331
0.395000000000000184,-9.484756204180186501
0.396000000000000185,-9.431373603168337283
0.397000000000000186,-9.377982357596394536
0.398000000000000187,-9.324569263323136070
0.399000000000000188,-9.271120986590961621
0.400000000000000189,-9.217624131823807687
0.401000000000000190,-9.164065305786422755
0.402000000000000191,-9.110431178148083120
0.403000000000000191,-9.056708538500821248
0.404000000000000192,-9.002884349888999438
0.405000000000000193,-8.948945798912792071
0.406000000000000194,-8.894880342473518553
0.407000000000000195,-8.840675751233634472
0.408000000000000196,-8.786320149868259932
0.409000000000000197,-8.731802054188920081
0.410000000000000198,-8.677110405223533718
0.411000000000000199,-8.622234600339263366
0.412000000000000199,-8.567164521497296903
0.413000000000000200,-8.511890560730677180
0.414000000000000201,-8.456403642937692311
0.415000000000000202,-8.400695246084575629
0.416000000000000203,-8.344757418912291058
0.417000000000000204,-8.288582796242462081
0.418000000000000205,-8.232164611977992763
0.419000000000000206,-8.175496709893838698
0.420000000000000207,-8.118573552312906116
0.421000000000000207,-8.061390226762036093
0.422000000000000208,-8.003942450701652334
0.423000000000000209,-7.946226574422349032
0.424000000000000210,-7.888239582200178290
0.425000000000000211,-7.829979091801210878
0.426000000000000212,-7.771443352424720175
0.427000000000000213,-7.712631241172434038
0.428000000000000214,-7.653542258129955478
0.429000000000000214,-7.594176520144396925
0.430000000000000215,-7.534534753380555117
0.431000000000000216,-7.474618284735963236
0.432000000000000217,-7.414429032192963120
0.433000000000000218,-7.353969494184052103
0.434000000000000219,-7.293242738044435569
0.435000000000000220,-7.232252387623637091
0.436000000000000221,-7.171002610125656318
0.437000000000000222,-7.109498102244993234
0.438000000000000222,-7.047744075663604058
0.439000000000000223,-6.985746241971464876
0.440000000000000224,-6.923510797071206646
0.441000000000000225,-6.861044405124924417
0.442000000000000226,-6.798354182099158649
0.443000000000000227,-6.735447678961445028
0.444000000000000228,-6.672332864579959555
0.445000000000000229,-6.609018108375278366
0.446000000000000230,-6.545512162771132125
0.447000000000000230,-6.481824145489014199
0.448000000000000231,-6.417963521729147303
0.449000000000000232,-6.353940086278269561
0.450000000000000233,-6.289763945582803828
0.451000000000000234,-6.225445499823674567
0.452000000000000235,-6.160995425027318007
0.453000000000000236,-6.096424655245235691
0.454000000000000237,-6.031744364832880123
0.455000000000000238,-5.966965950856454093
0.456000000000000238,-5.902101015654737992
0.457000000000000239,-5.837161349581047709
0.458000000000000240,-5.772158913949057890
0.459000000000000241,-5.707105824204122158
0.460000000000000242,-5.642014333340702237
0.461000000000000243,-5.576896815584465372
0.462000000000000244,-5.511765750356516946
0.463000000000000245,-5.446633706535462416
0.464000000000000246,-5.381513327031991700
0.465000000000000246,-5.316417313689012936
0.466000000000000247,-5.251358412519266494
0.467000000000000248,-5.186349399291085405
0.468000000000000249,-5.121403065471818117
0.469000000000000250,-5.056532204537214525
0.470000000000000251,-4.991749598654153353
0.471000000000000252,-4.927068005742816226
0.472000000000000253,-4.862500146923808053
0.473000000000000254,-4.798058694354303100
0.474000000000000254,-4.733756259456884941
0.475000000000000255,-4.669605381543515676
0.476000000000000256,-4.605618516836509357
0.477000000000000257,-4.541808027887556776
0.478000000000000258,-4.478186173394997915
0.479000000000000259,-4.414765098419122680
0.480000000000000260,-4.351556824994368355
0.481000000000000261,-4.288573243136800883
0.482000000000000262,-4.225826102244760740
0.483000000000000262,-4.163327002889900541
0.484000000000000263,-4.101087388995351191
0.485000000000000264,-4.039118540397424795
0.486000000000000265,-3.977431565786643919
0.487000000000000266,-3.916037396023613670
0.488000000000000267,-3.854946777824812987
0.489000000000000268,-3.794170267813112396
0.490000000000000269,-3.733718226927356998
0.491000000000000270,-3.673600815185312563
0.492000000000000270,-3.613827986793673119
0.493000000000000271,-3.554409485598951424
0.494000000000000272,-3.495354840872579416
0.495000000000000273,-3.436673363423427219
0.496000000000000274,-3.378374142030919902
0.497000000000000275,-3.320466040191529800
0.498000000000000276,-3.262957693171478546
0.499000000000000277,-3.205857505358342685
0.500000000000000222,-3.149173647904019990
0.501000000000000334,-3.092914056651652643
0.502000000000000224,-3.037086430338912457
0.503000000000000336,-2.981698229069873030
0.504000000000000226,-2.926756673048096502
0.505000000000000338,-2.872268741562876926
0.506000000000000227,-2.818241172221381596
0.507000000000000339,-2.764680460418559971
0.508000000000000229,-2.711592859037563752
0.509000000000000341,-2.658984378372653445
0.510000000000000231,-2.606860786267413577
0.511000000000000343,-2.555227608460239885
0.512000000000000233,-2.504090129130055686
0.513000000000000345,-2.453453391634413450
0.514000000000000234,-2.403322199433036044
0.515000000000000346,-2.353701117189029635
0.516000000000000236,-2.304594472041053610
0.517000000000000348,-2.256006355038912226
0.518000000000000238,-2.207940622735912406
0.519000000000000350,-2.160400898930746383
0.520000000000000240,-2.113390576552383049
0.521000000000000352,-2.066912819681064217
0.522000000000000242,-2.020970565698969601
0.523000000000000353,-1.975566527563945574
0.524000000000000243,-1.930703196200132421
0.525000000000000355,-1.886382842999078990
0.526000000000000245,-1.842607522425472322
0.527000000000000357,-1.799379074721262128
0.528000000000000247,-1.756699128702653656
0.529000000000000359,-1.714569104643950181
0.530000000000000249,-1.672990217242975586
0.531000000000000361,-1.631963478662383338
0.532000000000000250,-1.591489701641814802
0.533000000000000362,-1.551569502675459011
0.534000000000000252,-1.512203305250277463
0.535000000000000364,-1.473391343139740961
0.536000000000000254,-1.435133663748571653
0.537000000000000366,-1.397430131503580419
0.538000000000000256,-1.360280431286457370
0.539000000000000368,-1.323684071903792336
0.540000000000000258,-1.287640389590473777
0.541000000000000369,-1.252148551542002108
0.542000000000000259,-1.217207559472139211
0.543000000000000371,-1.182816253191716793
0.544000000000000261,-1.148973314205173235
0.545000000000000373,-1.115677269321055931
0.546000000000000263,-1.082926494273206419
0.547000000000000375,-1.050719217349077583
0.548000000000000265,-1.019053523022291907
0.549000000000000377,-0.987927355586009748
0.550000000000000266,-0.957338522784436430
0.551000000000000378,-0.927284699439415383
0.552000000000000268,-0.897763431069509954
0.553000000000000380,-0.868772137498819097
0.554000000000000270,-0.840308116453178600
0.555000000000000382,-0.812368547141135267
0.556000000000000272,-0.784950493817632156
0.557000000000000384,-0.758050909327952382
0.558000000000000274,-0.731666638630091626
0.559000000000000385,-0.705794422293300916
0.560000000000000275,-0.680430899971149250
0.561000000000000387,-0.655572613847097085
0.562000000000000277,-0.631216012051012298
0.563000000000000389,-0.607357452044915647
0.564000000000000279,-0.583993203976499786
0.565000000000000391,-0.561119453998907725
0.566000000000000281,-0.538732307555457313
0.567000000000000393,-0.516827792627986060
0.568000000000000282,-0.495401862947697669
0.569000000000000394,-0.474450401167244351
0.570000000000000284,-0.453969221993166527
0.571000000000000396,-0.433954075277547424
0.572000000000000286,-0.414400649068145221
0.573000000000000398,-0.395304572615972460
0.574000000000000288,-0.376661419339732906
0.575000000000000400,-0.358466709746303125
0.576000000000000290,-0.340715914306637113
0.577000000000000401,-0.323404456286516429
0.578000000000000291,-0.306527714531638462
0.579000000000000403,-0.290081026206513160
0.580000000000000293,-0.274059689486839009
0.581000000000000405,-0.258458966204908491
0.582000000000000295,-0.243274084447813538
0.583000000000000407,-0.228500241108109570
0.584000000000000297,-0.214132604386790437
0.585000000000000409,-0.200166316248354098
0.586000000000000298,-0.186596494827873216
0.587000000000000410,-0.173418236789942559
0.588000000000000300,-0.160626619639511525
0.589000000000000412,-0.148216703984526882
0.590000000000000302,-0.136183535750488277
0.591000000000000414,-0.124522148346948677
0.592000000000000304,-0.113227564786048535
0.593000000000000416,-0.102294799753231302
0.594000000000000306,-0.091718861630329648
0.595000000000000417,-0.081494754471168079
0.596000000000000307,-0.071617479929925759
0.597000000000000419,-0.062082039142523734
0.598000000000000309,-0.052883434561307854
0.599000000000000421,-0.044016671743273332
0.600000000000000311,-0.035476761092251848
0.601000000000000423,-0.027258719555300605
0.602000000000000313,-0.019357572273761177
0.603000000000000425,-0.011768354189240887
0.604000000000000314,-0.004486111605093745
0.605000000000000426,0.002494096296367077
0.606000000000000316,0.009177195980321651
0.607000000000000428,0.015568098129248153
0.608000000000000318,0.021671696255494987
0.609000000000000430,0.027492865356234474
0.610000000000000320,0.033036460610244942
0.611000000000000432,0.038307316116048630
0.612000000000000322,0.043310243670880190
0.613000000000000433,0.048050031589965590
0.614000000000000323,0.052531443565568561
0.615000000000000435,0.056759217565276000
0.616000000000000325,0.060738064768966836
0.617000000000000437,0.064472668543906569
0.618000000000000327,0.067967683457404157
0.619000000000000439,0.071227734326479580
0.620000000000000329,0.074257415303942226
0.621000000000000441,0.077061289000326091
0.622000000000000330,0.079643885641091081
0.623000000000000442,0.082009702258512646
0.624000000000000332,0.084163201917676095
0.625000000000000444,0.086108812975966911
0.626000000000000334,0.087850928375512852
0.627000000000000446,0.089393904967929982
0.628000000000000336,0.090742062870840676
0.629000000000000448,0.091899684855529712
0.630000000000000338,0.092871015765170831
0.631000000000000449,0.093660261963027264
0.632000000000000339,0.094271590810048239
0.633000000000000451,0.094709130171260300
0.634000000000000341,0.094976967950390220
0.635000000000000453,0.095079151652101374
0.636000000000000343,0.095019687971338349
0.637000000000000455,0.094802542409094095
0.638000000000000345,0.094431638914141719
0.639000000000000457,0.093910859550079231
0.640000000000000346,0.093244044187171152
0.641000000000000458,0.092434990218386831
0.642000000000000348,0.091487452299127775
0.643000000000000460,0.090405142110038611
0.644000000000000350,0.089191728142398688
0.645000000000000462,0.087850835505517408
0.646000000000000352,0.086386045755631108
0.647000000000000464,0.084800896745735710
0.648000000000000353,0.083098882495855175
0.649000000000000465,0.081283453083202992
0.650000000000000355,0.079358014551746472
0.651000000000000467,0.077325928840641170
0.652000000000000357,0.075190513731048875
0.653000000000000469,0.072955042810832330
0.654000000000000359,0.070622745456638103
0.655000000000000471,0.068196806832897722
0.656000000000000361,0.065680367907242590
0.657000000000000473,0.063076525481878823
0.658000000000000362,0.060388332240456977
0.659000000000000474,0.057618796809979798
0.660000000000000364,0.054770883837278073
0.661000000000000476,0.051847514079629162
0.662000000000000366,0.048851564509089965
