# CNT15-COOH-3_CS-3530-AC
# h[nm],U(h)[kJ/mol]
0.149999999999999994,105.269832491071454683
0.150999999999999995,102.420426879938759157
0.151999999999999996,101.028706288088159226
0.152999999999999997,99.940462347892875528
0.153999999999999998,98.733941142071685704
0.154999999999999999,97.331338360957786904
0.156000000000000000,95.789170355595643969
0.157000000000000001,94.193884955632668721
0.158000000000000002,92.616818143386439033
0.159000000000000002,91.100600960081322910
0.160000000000000003,89.660613328914834597
0.161000000000000004,88.292275678287580831
0.162000000000000005,86.979359826072965234
0.163000000000000006,85.701090533131647931
0.164000000000000007,84.437264814771125998
0.165000000000000008,83.171374896685193789
0.166000000000000009,81.892065490318955767
0.167000000000000010,80.593366436780655704
0.168000000000000010,79.274129069300016681
0.169000000000000011,77.937025724350462497
0.170000000000000012,76.587385041009198972
0.171000000000000013,75.232051515564464239
0.172000000000000014,73.878385844653152503
0.173000000000000015,72.533466173089152562
0.174000000000000016,71.203509265892321878
0.175000000000000017,69.893502949690599735
0.176000000000000018,68.607024371184820666
0.177000000000000018,67.346210101384471614
0.178000000000000019,66.111841528312254468
0.179000000000000020,64.903510365391156256
0.180000000000000021,63.719832906966338726
0.181000000000000022,62.558686720751737198
0.182000000000000023,61.417448946752912775
0.183000000000000024,60.293220712845958076
0.184000000000000025,59.183027030707421545
0.185000000000000026,58.083985713474646673
0.186000000000000026,56.993442283887915778
0.187000000000000027,55.909070522148873295
0.188000000000000028,54.828940289345055703
0.189000000000000029,53.751555636458533627
0.190000000000000030,52.675867065140735690
0.191000000000000031,51.601262241446001156
0.192000000000000032,50.527539569857161439
0.193000000000000033,49.454868895727805977
0.194000000000000034,48.383743292301410577
0.195000000000000034,47.314925464648297293
0.196000000000000035,46.249391816616878259
0.197000000000000036,45.188276716989022930
0.198000000000000037,44.132818996711350223
0.199000000000000038,43.084312231400346604
0.200000000000000039,42.044059926479469880
0.201000000000000040,41.013336334914811232
0.202000000000000041,39.993353303775030838
0.203000000000000042,38.985233266587421497
0.204000000000000042,37.989988272046709028
0.205000000000000043,37.008504762678420263
0.206000000000000044,36.041533685055149761
0.207000000000000045,35.089685420967128948
0.208000000000000046,34.153428971144933257
0.209000000000000047,33.233094794326163424
0.210000000000000048,32.328880699477181793
0.211000000000000049,31.440860203010657870
0.212000000000000050,30.568992791512840768
0.213000000000000050,29.713135569942700442
0.214000000000000051,28.873055822123649961
0.215000000000000052,28.048444061763213142
0.216000000000000053,27.238927205826531264
0.217000000000000054,26.444081555925361471
0.218000000000000055,25.663445325933935237
0.219000000000000056,24.896530504140962137
0.220000000000000057,24.142833885030668739
0.221000000000000058,23.401847148676502286
0.222000000000000058,22.673065904356931810
0.223000000000000059,21.955997649199549215
0.224000000000000060,21.250168622396252260
0.225000000000000061,20.555129560907481334
0.226000000000000062,19.870460383773426827
0.227000000000000063,19.195773849426380764
0.228000000000000064,18.530718244052131638
0.229000000000000065,17.874979169404529245
0.230000000000000066,17.228280505881997442
0.231000000000000066,16.590384631469738963
0.232000000000000067,15.961091979680418262
0.233000000000000068,15.340240020212627670
0.234000000000000069,14.727701745002615752
0.235000000000000070,14.123383739956713256
0.236000000000000071,13.527223919185408008
0.237000000000000072,12.939188994251932030
0.238000000000000073,12.359271746015235038
0.239000000000000073,11.787488161277600796
0.240000000000000074,11.223874490802286275
0.241000000000000075,10.668484279493773315
0.242000000000000076,10.121385413747269411
0.243000000000000077,9.582657225276722812
0.244000000000000078,9.052387685203983736
0.245000000000000079,8.530670716898764994
0.246000000000000080,8.017603651052377600
0.247000000000000081,7.513284841781223022
0.248000000000000081,7.017811458218176313
0.249000000000000082,6.531277462074197793
0.250000000000000111,6.053771778046462160
0.251000000000000112,5.585376660714411301
0.252000000000000113,5.126166258692844480
0.253000000000000114,4.676205374295510531
0.254000000000000115,4.235548414783272264
0.255000000000000115,3.804238529416513082
0.256000000000000116,3.382306924978338181
0.257000000000000117,2.969772351164353452
0.258000000000000118,2.566640746225139935
0.259000000000000119,2.172905032474809151
0.260000000000000120,1.788545050722579743
0.261000000000000121,1.413527622322465094
0.262000000000000122,1.047806727345809152
0.263000000000000123,0.691323787344557239
0.264000000000000123,0.344008041267759690
0.265000000000000124,0.005777003303605888
0.266000000000000125,-0.323463008274505803
0.267000000000000126,-0.643816281791750988
0.268000000000000127,-0.955397072466235064
0.269000000000000128,-1.258328921887776231
0.270000000000000129,-1.552743945708378037
0.271000000000000130,-1.838782097995670384
0.272000000000000131,-2.116590420104253578
0.273000000000000131,-2.386322281313666416
0.274000000000000132,-2.648136617871422960
0.275000000000000133,-2.902197176473467977
0.276000000000000134,-3.148671767617316597
0.277000000000000135,-3.387731533679474438
0.278000000000000136,-3.619550236004630328
0.279000000000000137,-3.844303564750207958
0.280000000000000138,-4.062168474710534660
0.281000000000000139,-4.273322549852306196
0.282000000000000139,-4.477943398827371801
0.283000000000000140,-4.676208083292798356
0.284000000000000141,-4.868292580461062613
0.285000000000000142,-5.054371280926226007
0.286000000000000143,-5.234616522464466293
0.287000000000000144,-5.409198160188973148
0.288000000000000145,-5.578283173150525798
0.289000000000000146,-5.742035307212881357
0.290000000000000147,-5.900614753798717693
0.291000000000000147,-6.054177863893046130
0.292000000000000148,-6.202876896508195514
0.293000000000000149,-6.346859800654210737
0.294000000000000150,-6.486270029721478814
0.295000000000000151,-6.621246387065771621
0.296000000000000152,-6.751922901489068707
0.297000000000000153,-6.878428731230888715
0.298000000000000154,-7.000888095023272584
0.299000000000000155,-7.119420228716331955
0.300000000000000155,-7.234139365949441292
0.301000000000000156,-7.345154741324267711
0.302000000000000157,-7.452570614528840842
0.303000000000000158,-7.556486313865207194
0.304000000000000159,-7.656996297646403882
0.305000000000000160,-7.754190231949712242
0.306000000000000161,-7.848153083242112693
0.307000000000000162,-7.938965224429142431
0.308000000000000163,-8.026702552919056544
0.309000000000000163,-8.111436619339929877
0.310000000000000164,-8.193234765596900004
0.311000000000000165,-8.272160271009330046
0.312000000000000166,-8.348272505323352632
0.313000000000000167,-8.421627087452410620
0.314000000000000168,-8.492276048857217319
0.315000000000000169,-8.560268000536348509
0.316000000000000170,-8.625648302658897038
0.317000000000000171,-8.688459235930725555
0.318000000000000171,-8.748740173845837020
0.319000000000000172,-8.806527755033959792
0.320000000000000173,-8.861856054973404895
0.321000000000000174,-8.914756756395851411
0.322000000000000175,-8.965259317765454483
0.323000000000000176,-9.013391139268984276
0.324000000000000177,-9.059177725806264903
0.325000000000000178,-9.102642846520879516
0.326000000000000179,-9.143808690460122790
0.327000000000000179,-9.182696017999543159
0.328000000000000180,-9.219324307712341238
0.329000000000000181,-9.253711898406443481
0.330000000000000182,-9.285876126092023952
0.331000000000000183,-9.315833455681017838
0.332000000000000184,-9.343599607255510975
0.333000000000000185,-9.369189676776235487
0.334000000000000186,-9.392618251133773910
0.335000000000000187,-9.413899517474799694
0.336000000000000187,-9.433047366763281261
0.337000000000000188,-9.450075491561783281
0.338000000000000189,-9.464997478042038281
0.339000000000000190,-9.477826892255245994
0.340000000000000191,-9.488577360712508124
0.341000000000000192,-9.497262645344040521
0.342000000000000193,-9.503896712921926948
0.343000000000000194,-9.508493799046268791
0.344000000000000195,-9.511068466807339306
0.345000000000000195,-9.511635660248737523
0.346000000000000196,-9.510210752766210973
0.347000000000000197,-9.506809590586380310
0.348000000000000198,-9.501448531476992088
0.349000000000000199,-9.494144478847204027
0.350000000000000200,-9.484914911401691739
0.351000000000000201,-9.473777908516890278
0.352000000000000202,-9.460752171511183306
0.353000000000000203,-9.445857040983408837
0.354000000000000203,-9.429112510395816216
0.355000000000000204,-9.410539236078445668
0.356000000000000205,-9.390158543832344051
0.357000000000000206,-9.367992432308611228
0.358000000000000207,-9.344063573338898365
0.359000000000000208,-9.318395309392041526
0.360000000000000209,-9.291011648328890260
0.361000000000000210,-9.261937255625209531
0.362000000000000210,-9.231197444229504612
0.363000000000000211,-9.198818162219358996
0.364000000000000212,-9.164825978416359931
0.365000000000000213,-9.129248066115666305
0.366000000000000214,-9.092112185082372733
0.367000000000000215,-9.053446661962237130
0.368000000000000216,-9.013280369250159296
0.369000000000000217,-8.971642702954824244
0.370000000000000218,-8.928563559093479540
0.371000000000000218,-8.884073309145652075
0.372000000000000219,-8.838202774589923649
0.373000000000000220,-8.790983200642852324
0.374000000000000221,-8.742446229314072781
0.375000000000000222,-8.692623871886581810
0.376000000000000223,-8.641548480926461551
0.377000000000000224,-8.589252721921003086
0.378000000000000225,-8.535769544639499884
0.379000000000000226,-8.481132154306020965
0.380000000000000226,-8.425373982668810768
0.381000000000000227,-8.368528659045896489
0.382000000000000228,-8.310629981422334112
0.383000000000000229,-8.251711887669625156
0.384000000000000230,-8.191808426953420152
0.385000000000000231,-8.130953731391567629
0.386000000000000232,-8.069181988019996865
0.387000000000000233,-8.006527411120121229
0.388000000000000234,-7.943024214957169704
0.389000000000000234,-7.878706586975425807
0.390000000000000235,-7.813608661492125407
0.391000000000000236,-7.747764493928618101
0.392000000000000237,-7.681208035613623863
0.393000000000000238,-7.613973109190309785
0.394000000000000239,-7.546093384655476299
0.395000000000000240,-7.477602356056334720
0.396000000000000241,-7.408533318867258188
0.397000000000000242,-7.338919348065999770
0.398000000000000242,-7.268793276926527547
0.399000000000000243,-7.198187676542644908
0.400000000000000244,-7.127134836094429993
0.401000000000000245,-7.055666743867209156
0.402000000000000246,-6.983815069030401723
0.403000000000000247,-6.911611144181691202
0.404000000000000248,-6.839085948659983316
0.405000000000000249,-6.766270092628746902
0.406000000000000250,-6.693193801929588460
0.407000000000000250,-6.619886903704356840
0.408000000000000251,-6.546378812782475798
0.409000000000000252,-6.472698518828872594
0.410000000000000253,-6.398874574246429248
0.411000000000000254,-6.324935082825805743
0.412000000000000255,-6.250907689134188594
0.413000000000000256,-6.176819568633634461
0.414000000000000257,-6.102697418518489236
0.415000000000000258,-6.028567449260771482
0.416000000000000258,-5.954455376851305992
0.417000000000000259,-5.880386415723868332
0.418000000000000260,-5.806385272348824067
0.419000000000000261,-5.732476139482200139
0.420000000000000262,-5.658682691055585856
0.421000000000000263,-5.585028077691793769
0.422000000000000264,-5.511534922830772842
0.423000000000000265,-5.438225319449896844
0.424000000000000266,-5.365120827362654055
0.425000000000000266,-5.292242471079076083
0.426000000000000267,-5.219610738211566847
0.427000000000000268,-5.147245578409195943
0.428000000000000269,-5.075166402803641397
0.429000000000000270,-5.003392083949907310
0.430000000000000271,-4.931940956244652341
0.431000000000000272,-4.860830816805301602
0.432000000000000273,-4.790078926792872949
0.433000000000000274,-4.719702013161686693
0.434000000000000274,-4.649716270819019392
0.435000000000000275,-4.580137365178138964
0.436000000000000276,-4.510980435088095319
0.437000000000000277,-4.442260096123789914
0.438000000000000278,-4.373990444220228646
0.439000000000000279,-4.306185059634892731
0.440000000000000280,-4.238857011222375348
0.441000000000000281,-4.172018861005800439
0.442000000000000282,-4.105682669029718568
0.443000000000000282,-4.039859998479333747
0.444000000000000283,-3.974561921051441793
0.445000000000000284,-3.909799022562520321
0.446000000000000285,-3.845581408779705335
0.447000000000000286,-3.781918711461035976
0.448000000000000287,-3.718820094591070102
0.449000000000000288,-3.656294260798943263
0.450000000000000289,-3.594349457945706039
0.451000000000000290,-3.532993485868478167
0.452000000000000290,-3.472233703269157701
0.453000000000000291,-3.412077034735685910
0.454000000000000292,-3.352529977884368684
0.455000000000000293,-3.293598610611908839
0.456000000000000294,-3.235288598446319774
0.457000000000000295,-3.177605201986104522
0.458000000000000296,-3.120553284417434625
0.459000000000000297,-3.064137319099485612
0.460000000000000298,-3.008361397208273225
0.461000000000000298,-2.953229235429857713
0.462000000000000299,-2.898744183693886978
0.463000000000000300,-2.844909232938953370
0.464000000000000301,-2.791727022901492994
0.465000000000000302,-2.739199849920294749
0.466000000000000303,-2.687329674748890618
0.467000000000000304,-2.636118130368604096
0.468000000000000305,-2.585566529795195301
0.469000000000000306,-2.535675873872308195
0.470000000000000306,-2.486446859045442714
0.471000000000000307,-2.437879885110093348
0.472000000000000308,-2.389975062928390681
0.473000000000000309,-2.342732222108514506
0.474000000000000310,-2.296150918641655547
0.475000000000000311,-2.250230442491360172
0.476000000000000312,-2.204969825130673744
0.477000000000000313,-2.160367847022240717
0.478000000000000314,-2.116423045037336692
0.479000000000000314,-2.073133719809649111
0.480000000000000315,-2.030497943019966556
0.481000000000000316,-1.988513564608275885
0.482000000000000317,-1.947178219909797336
0.483000000000000318,-1.906489336711868487
0.484000000000000319,-1.866444142228675052
0.485000000000000320,-1.827039669991153303
0.486000000000000321,-1.788272766649432466
0.487000000000000322,-1.750140098685529555
0.488000000000000322,-1.712638159034033380
0.489000000000000323,-1.675763273608920745
0.490000000000000324,-1.639511607734525089
0.491000000000000325,-1.603879172479126369
0.492000000000000326,-1.568861830889556552
0.493000000000000327,-1.534455304125581510
0.494000000000000328,-1.500655177492800307
0.495000000000000329,-1.467456906373027614
0.496000000000000330,-1.434855822051259278
0.497000000000000330,-1.402847137438443692
0.498000000000000331,-1.371425952689373284
0.499000000000000332,-1.340587260715247586
0.500000000000000333,-1.310325952590423393
0.501000000000000334,-1.280636822853067569
0.502000000000000335,-1.251514574699565729
0.503000000000000336,-1.222953825072577994
0.504000000000000337,-1.194949109642721385
0.505000000000000338,-1.167494887684045635
0.506000000000000338,-1.140585546843470466
0.507000000000000339,-1.114215407804445279
0.508000000000000340,-1.088378728845222465
0.509000000000000341,-1.063069710292211090
0.510000000000000342,-1.038282498868855264
0.511000000000000343,-1.014011191940678236
0.512000000000000344,-0.990249841657114716
0.513000000000000345,-0.966992458990856618
0.514000000000000346,-0.944233017675483621
0.515000000000000346,-0.921965458042183328
0.516000000000000347,-0.900183690756443555
0.517000000000000348,-0.878881600455701295
0.518000000000000349,-0.858053049288799441
0.519000000000000350,-0.837691880358386043
0.520000000000000351,-0.817791921067239080
0.521000000000000352,-0.798346986369636857
0.522000000000000353,-0.779350881928893569
0.523000000000000353,-0.760797407182182139
0.524000000000000354,-0.742680358313916100
0.525000000000000355,-0.724993531138803049
0.526000000000000356,-0.707730723895858338
0.527000000000000357,-0.690885739954676503
0.528000000000000358,-0.674452390435109628
0.529000000000000359,-0.658424496741832788
0.530000000000000360,-0.642795893014929343
0.531000000000000361,-0.627560428497963008
0.532000000000000361,-0.612711969824768721
0.533000000000000362,-0.598244403226410926
0.534000000000000363,-0.584151636659575701
0.535000000000000364,-0.570427601857822597
0.536000000000000365,-0.557066256307044094
0.537000000000000366,-0.544061585146517146
0.538000000000000367,-0.531407602996892603
0.539000000000000368,-0.519098355716574589
0.540000000000000369,-0.507127922087763916
0.541000000000000369,-0.495490415433647968
0.542000000000000370,-0.484179985168045390
0.543000000000000371,-0.473190818278880765
0.544000000000000372,-0.462517140746909472
0.545000000000000373,-0.452153218900998244
0.546000000000000374,-0.442093360711326322
0.547000000000000375,-0.432331917021882561
0.548000000000000376,-0.422863282723591749
0.549000000000000377,-0.413681897869375703
0.550000000000000377,-0.404782248732485583
0.551000000000000378,-0.396158868809444564
0.552000000000000379,-0.387806339768843544
0.553000000000000380,-0.379719292347346471
0.554000000000000381,-0.371892407194111430
0.555000000000000382,-0.364320415664963593
0.556000000000000383,-0.356998100567499921
0.557000000000000384,-0.349920296858428459
0.558000000000000385,-0.343081892294308133
0.559000000000000385,-0.336477828036947035
0.560000000000000386,-0.330103099214608509
0.561000000000000387,-0.323952755440238549
0.562000000000000388,-0.318021901287855957
0.563000000000000389,-0.312305696728269466
0.564000000000000390,-0.306799357525230576
0.565000000000000391,-0.301498155593161399
0.566000000000000392,-0.296397419317534216
0.567000000000000393,-0.291492533839012302
0.568000000000000393,-0.286778941302377799
0.569000000000000394,-0.282252141071337836
0.570000000000000395,-0.277907689910208366
0.571000000000000396,-0.273741202133496841
0.572000000000000397,-0.269748349724414138
0.573000000000000398,-0.265924862423220609
0.574000000000000399,-0.262266527786470305
0.575000000000000400,-0.258769191217994410
0.576000000000000401,-0.255428755972630206
0.577000000000000401,-0.252241183133582347
0.578000000000000402,-0.249202491564297635
0.579000000000000403,-0.246308757835724729
0.580000000000000404,-0.243556116129867162
0.581000000000000405,-0.240940758120417542
0.582000000000000406,-0.238458932831318970
0.583000000000000407,-0.236106946474079704
0.584000000000000408,-0.233881162264600651
0.585000000000000409,-0.231778000220315444
0.586000000000000409,-0.229793936938403387
0.587000000000000410,-0.227925505355799307
0.588000000000000411,-0.226169294491739503
0.589000000000000412,-0.224521949173568103
0.590000000000000413,-0.222980169746457346
0.591000000000000414,-0.221540711767766657
0.592000000000000415,-0.220200385686682237
0.593000000000000416,-0.218956056509776287
0.594000000000000417,-0.217804643453129720
0.595000000000000417,-0.216743119581656624
0.596000000000000418,-0.215768511436171012
0.597000000000000419,-0.214877898648864807
0.598000000000000420,-0.214068413547699649
0.599000000000000421,-0.213337240750312407
0.600000000000000422,-0.212681616747967567
0.601000000000000423,-0.212098829480084072
0.602000000000000424,-0.211586217899854878
0.603000000000000425,-0.211141171531471189
0.604000000000000425,-0.210761130019428311
0.605000000000000426,-0.210443582670384710
0.606000000000000427,-0.210186067988095804
0.607000000000000428,-0.209986173201735765
0.608000000000000429,-0.209841533788266338
0.609000000000000430,-0.209749832989009011
0.610000000000000431,-0.209708801321092680
0.611000000000000432,-0.209716216084005369
0.612000000000000433,-0.209769900861680736
0.613000000000000433,-0.209867725020579599
