# CNT15-COOH-3_CS-6330-AC
# h[nm],U(h)[kJ/mol]
0.149999999999999994,129.063791541021686271
0.150999999999999995,126.780265947664403825
0.151999999999999996,124.936740980944435364
0.152999999999999997,123.220564909266414588
0.153999999999999998,121.499932594256705443
0.154999999999999999,119.736741949603654689
0.156000000000000000,117.935829664572381148
0.157000000000000001,116.117024788710381245
0.158000000000000002,114.301081649146723862
0.159000000000000002,112.503708118061538812
0.160000000000000003,110.734032508215960888
0.161000000000000004,108.995266629450910045
0.162000000000000005,107.286246495786912192
0.163000000000000006,105.603122648636031045
0.164000000000000007,103.940838676579730304
0.165000000000000008,102.294255248142448522
0.166000000000000009,100.658899976168285662
0.167000000000000010,99.031386065090231341
0.168000000000000010,97.409568595703177607
0.169000000000000011,95.792511997347588704
0.170000000000000012,94.180335702766271311
0.171000000000000013,92.573993370432646088
0.172000000000000014,90.975028079917819923
0.173000000000000015,89.385333607822929025
0.174000000000000016,87.806941283333060255
0.175000000000000017,86.241843372615790031
0.176000000000000018,84.691857446989033065
0.177000000000000018,83.158531549449847375
0.178000000000000019,81.643086897470041663
0.179000000000000020,80.146393034369282304
0.180000000000000021,78.668969470249834330
0.181000000000000022,77.211007674649579258
0.182000000000000023,75.772407577789834932
0.183000000000000024,74.352823330130064505
0.184000000000000025,72.951713825780444722
0.185000000000000026,71.568394314280482149
0.186000000000000026,70.202086236853887158
0.187000000000000027,68.851963180733847025
0.188000000000000028,67.517191520224187684
0.189000000000000029,66.196964891445944090
0.190000000000000030,64.890532124927403856
0.191000000000000031,63.597218639052982780
0.192000000000000032,62.316441585162920092
0.193000000000000033,61.047719241746996488
0.194000000000000034,59.790675291950982739
0.195000000000000034,58.545038697048823906
0.196000000000000035,57.310639909766599942
0.197000000000000036,56.087404165681974177
0.198000000000000037,54.875342557566611390
0.199000000000000038,53.674541544482835320
0.200000000000000039,52.485151481442599675
0.201000000000000040,51.307374682042208747
0.202000000000000041,50.141453450153484539
0.203000000000000042,48.987658440940670346
0.204000000000000042,47.846277638764860285
0.205000000000000043,46.717606171782747992
0.206000000000000044,45.601937121460210278
0.207000000000000045,44.499553430521999076
0.208000000000000046,43.410720965350101608
0.209000000000000047,42.335682748521854535
0.210000000000000048,41.274654343799788592
0.211000000000000049,40.227820349038282188
0.212000000000000050,39.195331931626995470
0.213000000000000050,38.177305325657485469
0.214000000000000051,37.173821199340537191
0.215000000000000052,36.184924794687844951
0.216000000000000053,35.210626738479732012
0.217000000000000054,34.250904423482182892
0.218000000000000055,33.305703861202900384
0.219000000000000056,32.374941911690356733
0.220000000000000057,31.458508801526971155
0.221000000000000058,30.556270847863498119
0.222000000000000058,29.668073313728541507
0.223000000000000059,28.793743327646957653
0.224000000000000060,27.933092808556260422
0.225000000000000061,27.085921344925388610
0.226000000000000062,26.252018984689726722
0.227000000000000063,25.431168899994052168
0.228000000000000064,24.623149897685944865
0.229000000000000065,23.827738752953329993
0.230000000000000066,23.044712349412829866
0.231000000000000066,22.273849614296892696
0.232000000000000067,21.514933242154548054
0.233000000000000068,20.767751204672741494
0.234000000000000069,20.032098047859971501
0.235000000000000070,19.307775980932994742
0.236000000000000071,18.594595763841915925
0.237000000000000072,17.892377402489824334
0.238000000000000073,17.200950662390773971
0.239000000000000073,16.520155412801599937
0.240000000000000074,15.849841814294293840
0.241000000000000075,15.189870363353003668
0.242000000000000076,14.540111807913238096
0.243000000000000077,13.900446947851827773
0.244000000000000078,13.270766334317830371
0.245000000000000079,12.650969881498488334
0.246000000000000080,12.040966403973207832
0.247000000000000081,11.440673092245413400
0.248000000000000081,10.850014938387682051
0.249000000000000082,10.268924123008122962
0.250000000000000111,9.697339373967276188
0.251000000000000112,9.135205306463578978
0.252000000000000113,8.582471753274077741
0.253000000000000114,8.039093093104922261
0.254000000000000115,7.505027584176585442
0.255000000000000115,6.980236709359568081
0.256000000000000116,6.464684538389299462
0.257000000000000117,5.958337111933969865
0.258000000000000118,5.461161851570457415
0.259000000000000119,4.973126999044287011
0.260000000000000120,4.494201087553131302
0.261000000000000121,4.024352447202564242
0.262000000000000122,3.563548746236173681
0.263000000000000123,3.111756569143003581
0.264000000000000123,2.668941032290380821
0.265000000000000124,2.235065437321363646
0.266000000000000125,1.810090962189933261
0.267000000000000126,1.393976389383713599
0.268000000000000127,0.986677870599864448
0.269000000000000128,0.588148726895247109
0.270000000000000129,0.198339283122217852
0.271000000000000130,-0.182803264714495484
0.272000000000000131,-0.555334950688146423
0.273000000000000131,-0.919315110391804580
0.274000000000000132,-1.274806424304210095
0.275000000000000133,-1.621874934857109096
0.276000000000000134,-1.960590039024074471
0.277000000000000135,-2.291024458272965525
0.278000000000000136,-2.613254187730117639
0.279000000000000137,-2.927358426393352975
0.280000000000000138,-3.233419490206311142
0.281000000000000139,-3.531522709771024005
0.282000000000000139,-3.821756314428470969
0.283000000000000140,-4.104211304382127778
0.284000000000000141,-4.378981312476707188
0.285000000000000142,-4.646162457176215455
0.286000000000000143,-4.905853188212281779
0.287000000000000144,-5.158154126296919273
0.288000000000000145,-5.403167898215396114
0.289000000000000146,-5.640998968533029512
0.290000000000000147,-5.871753469069192377
0.291000000000000147,-6.095539027209157190
0.292000000000000148,-6.312464594043930788
0.293000000000000149,-6.522640273247347409
0.294000000000000150,-6.726177151521712361
0.295000000000000151,-6.923187131366262292
0.296000000000000152,-7.113782766848546935
0.297000000000000153,-7.298077102987013731
0.298000000000000154,-7.476183519284319345
0.299000000000000155,-7.648215577884838190
0.300000000000000155,-7.814286876767289058
0.301000000000000156,-7.974510908323694025
0.302000000000000157,-8.129000923620091967
0.303000000000000158,-8.277869802581216518
0.304000000000000159,-8.421229930292314592
0.305000000000000160,-8.559193079564783702
0.306000000000000161,-8.691870299869860261
0.307000000000000162,-8.819371812704831726
0.308000000000000163,-8.941806913419778624
0.309000000000000163,-9.059283879499675507
0.310000000000000164,-9.171909885266238405
0.311000000000000165,-9.279790922936239639
0.312000000000000166,-9.383031729948577038
0.313000000000000167,-9.481735722449840864
0.314000000000000168,-9.576004934808761249
0.315000000000000169,-9.665939965012384505
0.316000000000000170,-9.751639925782118468
0.317000000000000171,-9.833202401234345302
0.318000000000000171,-9.910723408899702491
0.319000000000000172,-9.984297366905982685
0.320000000000000173,-10.054017066121961221
0.321000000000000174,-10.119973647053800647
0.322000000000000175,-10.182256581281457386
0.323000000000000176,-10.240953657219371564
0.324000000000000177,-10.296150969984093848
0.325000000000000178,-10.347932915150860111
0.326000000000000179,-10.396382186181853058
0.327000000000000179,-10.441579775309891787
0.328000000000000180,-10.483604977663873115
0.329000000000000181,-10.522535398425349129
0.330000000000000182,-10.558446962808829994
0.331000000000000183,-10.591413928663495625
0.332000000000000184,-10.621508901498042832
0.333000000000000185,-10.648802851736061115
0.334000000000000186,-10.673365134014989764
0.335000000000000187,-10.695263508347448322
0.336000000000000187,-10.714564162970308558
0.337000000000000188,-10.731331738712809099
0.338000000000000189,-10.745629354722296966
0.339000000000000190,-10.757518635392401052
0.340000000000000191,-10.767059738345389874
0.341000000000000192,-10.774311383327514591
0.342000000000000193,-10.779330881882746240
0.343000000000000194,-10.782174167677471388
0.344000000000000195,-10.782895827355002183
0.345000000000000195,-10.781549131806272612
0.346000000000000196,-10.778186067748846355
0.347000000000000197,-10.772857369513562986
0.348000000000000198,-10.765612550944192449
0.349000000000000199,-10.756499937321709837
0.350000000000000200,-10.745566697231105024
0.351000000000000201,-10.732858874294255003
0.352000000000000202,-10.718421418698257597
0.353000000000000203,-10.702298218454227907
0.354000000000000203,-10.684532130326777732
0.355000000000000204,-10.665165010379483945
0.356000000000000205,-10.644237744086789021
0.357000000000000206,-10.621790275967473605
0.358000000000000207,-10.597861638699068720
0.359000000000000208,-10.572489981677327009
0.360000000000000209,-10.545712598988792763
0.361000000000000210,-10.517565956768294200
0.362000000000000210,-10.488085719917163985
0.363000000000000211,-10.457306778161308713
0.364000000000000212,-10.425263271431674639
0.365000000000000213,-10.391988614552694514
0.366000000000000214,-10.357515521227419697
0.367000000000000215,-10.321876027310477042
0.368000000000000216,-10.285101513363066772
0.369000000000000217,-10.247222726486056033
0.370000000000000218,-10.208269801430011725
0.371000000000000218,-10.168272280982652234
0.372000000000000219,-10.127259135636457188
0.373000000000000220,-10.085258782540805100
0.374000000000000221,-10.042299103744651845
0.375000000000000222,-9.998407463737228440
0.376000000000000223,-9.953610726295796240
0.377000000000000224,-9.907935270650526149
0.378000000000000225,-9.861407006977719547
0.379000000000000226,-9.814051391233746813
0.380000000000000226,-9.765893439342899995
0.381000000000000227,-9.716957740752945938
0.382000000000000228,-9.667268471373366978
0.383000000000000229,-9.616849405911327864
0.384000000000000230,-9.565723929621206878
0.385000000000000231,-9.513915049484138464
0.386000000000000232,-9.461445404833904504
0.387000000000000233,-9.408337277446307212
0.388000000000000234,-9.354612601108955872
0.389000000000000234,-9.300292970688934346
0.390000000000000235,-9.245399650715590667
0.391000000000000236,-9.189953583495965361
0.392000000000000237,-9.133975396780225964
0.393000000000000238,-9.077485410994572845
0.394000000000000239,-9.020503646058767089
0.395000000000000240,-8.963049827805564362
0.396000000000000241,-8.905143394018967484
0.397000000000000242,-8.846803500108032736
0.398000000000000242,-8.788049024432877943
0.399000000000000243,-8.728898573299106900
0.400000000000000244,-8.669370485636600066
0.401000000000000245,-8.609482837378518383
0.402000000000000246,-8.549253445555724085
0.403000000000000247,-8.488699872121721057
0.404000000000000248,-8.427839427522757276
0.405000000000000249,-8.366689174027465370
0.406000000000000250,-8.305265928829783206
0.407000000000000250,-8.243586266938875085
0.408000000000000251,-8.181666523869020935
0.409000000000000252,-8.119522798142323694
0.410000000000000253,-8.057170953616449083
0.411000000000000254,-7.994626621649392639
0.412000000000000255,-7.931905203112674663
0.413000000000000256,-7.869021870264177210
0.414000000000000257,-7.805991568491117860
0.415000000000000258,-7.742829017933621216
0.416000000000000258,-7.679548714998562176
0.417000000000000259,-7.616164933773255541
0.418000000000000260,-7.552691727348005202
0.419000000000000261,-7.489142929056129105
0.420000000000000262,-7.425532153639794686
0.421000000000000263,-7.361872798349540226
0.422000000000000264,-7.298178043984942853
0.423000000000000265,-7.234460855883567021
0.424000000000000266,-7.170733984865144350
0.425000000000000266,-7.107009968137127487
0.426000000000000267,-7.043301130167963997
0.427000000000000268,-6.979619583533671623
0.428000000000000269,-6.915977229743181631
0.429000000000000270,-6.852385760047607910
0.430000000000000271,-6.788856656238098530
0.431000000000000272,-6.725401191436892745
0.432000000000000273,-6.662030430885690357
0.433000000000000274,-6.598755232735302734
0.434000000000000274,-6.535586248840163037
0.435000000000000275,-6.472533925561142709
0.436000000000000276,-6.409608504579781929
0.437000000000000277,-6.346820023726716720
0.438000000000000278,-6.284178317827102234
0.439000000000000279,-6.221693019565341487
0.440000000000000280,-6.159373560371316003
0.441000000000000281,-6.097229171330136310
0.442000000000000282,-6.035268884117236610
0.443000000000000282,-5.973501531960291544
0.444000000000000283,-5.911935750629501385
0.445000000000000284,-5.850579979457414481
0.446000000000000285,-5.789442462389274624
0.447000000000000286,-5.728531249065065722
0.448000000000000287,-5.667854195933651695
0.449000000000000288,-5.607418967399981469
0.450000000000000289,-5.547233037005574019
0.451000000000000290,-5.487303688642766630
0.452000000000000290,-5.427638017802982162
0.453000000000000291,-5.368242932858992233
0.454000000000000292,-5.309125156381372612
0.455000000000000293,-5.250291226488859486
0.456000000000000294,-5.191747498232584412
0.457000000000000295,-5.133500145013841554
0.458000000000000296,-5.075555160034957325
0.459000000000000297,-5.017918357782993333
0.460000000000000298,-4.960595375545556074
0.461000000000000298,-4.903591674958339475
0.462000000000000299,-4.846912543583630217
0.463000000000000300,-4.790563096519074193
0.464000000000000301,-4.734548278036032620
0.465000000000000302,-4.678872863246718694
0.466000000000000303,-4.623541459799147546
0.467000000000000304,-4.568558509599173867
0.468000000000000305,-4.513928290558631318
0.469000000000000306,-4.459654918368575416
0.470000000000000306,-4.405742348296790567
0.471000000000000307,-4.352194377008359538
0.472000000000000308,-4.299014644408474695
0.473000000000000309,-4.246206635506290183
0.474000000000000310,-4.193773682298863825
0.475000000000000311,-4.141718965673992336
0.476000000000000312,-4.090045517331088121
0.477000000000000313,-4.038756221718699635
0.478000000000000314,-3.987853817987817795
0.479000000000000314,-3.937340901959833328
0.480000000000000315,-3.887219928107916722
0.481000000000000316,-3.837493211550922378
0.482000000000000317,-3.788162930058548206
0.483000000000000318,-3.739231126066790978
0.484000000000000319,-3.690699708702521065
0.485000000000000320,-3.642570455816213748
0.486000000000000321,-3.594845016021654516
0.487000000000000322,-3.547524910741693738
0.488000000000000322,-3.500611536258840140
0.489000000000000323,-3.454106165769923020
0.490000000000000324,-3.408009951443554453
0.491000000000000325,-3.362323926479579228
0.492000000000000326,-3.317049007169416086
0.493000000000000327,-3.272185994956442023
0.494000000000000328,-3.227735578495390278
0.495000000000000329,-3.183698335709886695
0.496000000000000330,-3.140074735847194543
0.497000000000000330,-3.096865141529336007
0.498000000000000331,-3.054069810799624918
0.499000000000000332,-3.011688899163933897
0.500000000000000333,-2.969722461625726062
0.501000000000000334,-2.928170454714106086
0.502000000000000335,-2.887032738504141438
0.503000000000000336,-2.846309078628698419
0.504000000000000337,-2.805999148281012712
0.505000000000000338,-2.766102530207336763
0.506000000000000338,-2.726618718688978760
0.507000000000000339,-2.687547121513019555
0.508000000000000340,-2.648887061931114228
0.509000000000000341,-2.610637780605798763
0.510000000000000342,-2.572798437543585948
0.511000000000000343,-2.535368114014410423
0.512000000000000344,-2.498345814456773617
0.513000000000000345,-2.461730468368123148
0.514000000000000346,-2.425520932179966227
0.515000000000000346,-2.389715991117155713
0.516000000000000347,-2.354314361040966475
0.517000000000000348,-2.319314690275541491
0.518000000000000349,-2.284715561417144603
0.519000000000000350,-2.250515493126026279
0.520000000000000351,-2.216712941900336631
0.521000000000000352,-2.183306303831868966
0.522000000000000353,-2.150293916343227529
0.523000000000000353,-2.117674059906064610
0.524000000000000354,-2.085444959740228477
0.525000000000000355,-2.053604787493379824
0.526000000000000356,-2.022151662900901314
0.527000000000000357,-1.991083655425916366
0.528000000000000358,-1.960398785878990413
0.529000000000000359,-1.930095028017593251
0.530000000000000360,-1.900170310124859485
0.531000000000000361,-1.870622516567674865
0.532000000000000361,-1.841449489333792711
0.533000000000000362,-1.812649029547961588
0.534000000000000363,-1.784218898966827727
0.535000000000000364,-1.756156821452582673
0.536000000000000365,-1.728460484425219379
0.537000000000000366,-1.701127540293344564
0.538000000000000367,-1.674155607863422102
0.539000000000000368,-1.647542273727524487
0.540000000000000369,-1.621285093629351248
0.541000000000000369,-1.595381593808716136
0.542000000000000370,-1.569829272324298808
0.543000000000000371,-1.544625600354760042
0.544000000000000372,-1.519768023478213825
0.545000000000000373,-1.495253962930072289
0.546000000000000374,-1.471080816839260397
0.547000000000000375,-1.447245961442896078
0.548000000000000376,-1.423746752279482664
0.549000000000000377,-1.400580525360637152
0.550000000000000377,-1.377744598321436253
0.551000000000000378,-1.355236271549502103
0.552000000000000379,-1.333052829292872055
0.553000000000000380,-1.311191540746775575
0.554000000000000381,-1.289649661119383950
0.555000000000000382,-1.268424432676738878
0.556000000000000383,-1.247513085766840168
0.557000000000000384,-1.226912839823180335
0.558000000000000385,-1.206620904347711409
0.559000000000000385,-1.186634479873510006
0.560000000000000386,-1.166950758907189911
0.561000000000000387,-1.147566926851296243
0.562000000000000388,-1.128480162906767337
0.563000000000000389,-1.109687640955697052
0.564000000000000390,-1.091186530424513190
0.565000000000000391,-1.072973997127774304
0.566000000000000392,-1.055047204092748769
0.567000000000000393,-1.037403312364991947
0.568000000000000393,-1.020039481795049552
0.569000000000000394,-1.002952871806529256
0.570000000000000395,-0.986140642145723612
0.571000000000000396,-0.969599953612946486
0.572000000000000397,-0.953327968775859569
0.573000000000000398,-0.937321852664882327
0.574000000000000399,-0.921578773451022348
0.575000000000000400,-0.906095903106201694
0.576000000000000401,-0.890870418046377566
0.577000000000000401,-0.875899499757679889
0.578000000000000402,-0.861180335405689057
0.579000000000000403,-0.846710118428137704
0.580000000000000404,-0.832486049111288318
0.581000000000000405,-0.818505335150094604
0.582000000000000406,-0.804765192192475665
0.583000000000000407,-0.791262844367853768
0.584000000000000408,-0.777995524800214167
0.585000000000000409,-0.764960476105884579
0.586000000000000409,-0.752154950876277040
0.587000000000000410,-0.739576212145803380
0.588000000000000411,-0.727221533845179735
0.589000000000000412,-0.715088201240379195
0.590000000000000413,-0.703173511357393033
0.591000000000000414,-0.691474773393077058
0.592000000000000415,-0.679989309112305484
0.593000000000000416,-0.668714453231597394
0.594000000000000417,-0.657647553789493577
0.595000000000000417,-0.646785972503924667
0.596000000000000418,-0.636127085116664714
0.597000000000000419,-0.625668281725280662
0.598000000000000420,-0.615406967102607561
0.599000000000000421,-0.605340561004107713
0.600000000000000422,-0.595466498463243288
0.601000000000000423,-0.585782230075123755
0.602000000000000424,-0.576285222268621000
0.603000000000000425,-0.566972957567174030
0.604000000000000425,-0.557842934838485904
0.605000000000000426,-0.548892669533316613
0.606000000000000427,-0.540119693913645449
0.607000000000000428,-0.531521557270237310
0.608000000000000429,-0.523095826130101638
0.609000000000000430,-0.514840084453695779
0.610000000000000431,-0.506751933822421785
0.611000000000000432,-0.498828993616354410
