# CNT15-COOH-3_CS-10471-AC
# h[nm],U(h)[kJ/mol]
0.149999999999999994,114.760251090017760589
0.150999999999999995,112.683091685806445525
0.151999999999999996,110.819181860403134010
0.152999999999999997,109.023894324225040009
0.153999999999999998,107.235661154295854658
0.154999999999999999,105.436675616887811202
0.156000000000000000,103.629513434071810707
0.157000000000000001,101.823983757750582413
0.158000000000000002,100.030356825324787451
0.159000000000000002,98.256406829694100225
0.160000000000000003,96.506605640086561948
0.161000000000000004,94.782417241285543241
0.162000000000000005,93.083056147159567217
0.163000000000000006,91.406345436315064035
0.164000000000000007,89.749484755486847121
0.165000000000000008,88.109646687168833523
0.166000000000000009,86.484383315409914417
0.167000000000000010,84.871859101642513679
0.168000000000000010,83.270941991915123026
0.169000000000000011,81.681189292716453565
0.170000000000000012,80.102763124424214425
0.171000000000000013,78.536305338221495731
0.172000000000000014,76.982795637040652537
0.173000000000000015,75.443410447449579692
0.174000000000000016,73.919394489614347776
0.175000000000000017,72.411952285201351742
0.176000000000000018,70.922163113380847221
0.177000000000000018,69.450920132812768770
0.178000000000000019,67.998892426041905424
0.179000000000000020,66.566507456921627295
0.180000000000000021,65.153950721295998960
0.181000000000000022,63.761179084486947488
0.182000000000000023,62.387944320120467978
0.183000000000000024,61.033823595938812900
0.184000000000000025,59.698254014706229498
0.185000000000000026,58.380568750832253500
0.186000000000000026,57.080032780041335627
0.187000000000000027,55.795876647510930013
0.188000000000000028,54.527327137267022295
0.189000000000000029,53.273634078619544141
0.190000000000000030,52.034092846899319795
0.191000000000000031,50.808062383399992257
0.192000000000000032,49.594978774348213335
0.193000000000000033,48.394364594335833374
0.194000000000000034,47.205834340807754756
0.195000000000000034,46.029096368504092140
0.196000000000000035,44.863951782080008002
0.197000000000000036,43.710290767238390686
0.198000000000000037,42.568086841051098190
0.199000000000000038,41.437389485665093503
0.200000000000000039,40.318315600683625632
0.201000000000000040,39.211040171962913803
0.202000000000000041,38.115786511570306061
0.203000000000000042,37.032816377838798871
0.204000000000000042,35.962420237929578093
0.205000000000000043,34.904907889723475023
0.206000000000000044,33.860599616428267211
0.207000000000000045,32.829818006894285531
0.208000000000000046,31.812880537855438234
0.209000000000000047,30.810092981495035502
0.210000000000000048,29.821743673019494025
0.211000000000000049,28.848098648295366075
0.212000000000000050,27.889397640934731726
0.213000000000000050,26.945850911291614693
0.214000000000000051,26.017636866374452609
0.215000000000000052,25.104900419380800969
0.216000000000000053,24.207752030084538575
0.217000000000000054,23.326267362313576115
0.218000000000000055,22.460487491913703195
0.219000000000000056,21.610419597582133378
0.220000000000000057,20.776038067463609593
0.221000000000000058,19.957285956163008933
0.222000000000000058,19.154076729572430793
0.223000000000000059,18.366296238422549436
0.224000000000000060,17.593804865534320214
0.225000000000000061,16.836439796197467444
0.226000000000000062,16.094017365781862594
0.227000000000000063,15.366335443468944533
0.228000000000000064,14.653175815766298129
0.229000000000000065,13.954306538149580774
0.230000000000000066,13.269484227695892642
0.231000000000000066,12.598456273873271272
0.232000000000000067,11.940962948695746704
0.233000000000000068,11.296739401210755815
0.234000000000000069,10.665517524740014466
0.235000000000000070,10.047027688435354875
0.236000000000000071,9.441000327536919201
0.237000000000000072,8.847167389233474566
0.238000000000000073,8.265263633235774066
0.239000000000000073,7.695027788093814713
0.240000000000000074,7.136203565931344528
0.241000000000000075,6.588540539657268269
0.242000000000000076,6.051794887858227945
0.243000000000000077,5.525730013500415261
0.244000000000000078,5.010117043291776540
0.245000000000000079,4.504735215096330236
0.246000000000000080,4.009372161171375737
0.247000000000000081,3.523824095231416376
0.248000000000000081,3.047895911451201201
0.249000000000000082,2.581401203517999399
0.250000000000000111,2.124162211747029794
0.251000000000000112,1.676009706098889440
0.252000000000000113,1.236782812695027989
0.253000000000000114,0.806328791133603451
0.254000000000000115,0.384502769568005776
0.255000000000000115,-0.028832555859443020
0.256000000000000116,-0.433807251031735841
0.257000000000000117,-0.830544497533540538
0.258000000000000118,-1.219160964623421162
0.259000000000000119,-1.599767194559489569
0.260000000000000120,-1.972467996757484299
0.261000000000000121,-2.337362846674746475
0.262000000000000122,-2.694546285719278345
0.263000000000000123,-3.044108318874459318
0.264000000000000123,-3.386134807107247902
0.265000000000000124,-3.720707851986566173
0.266000000000000125,-4.047906170279565785
0.267000000000000126,-4.367805456613938375
0.268000000000000127,-4.680478732595593883
0.269000000000000128,-4.985996681050091084
0.270000000000000129,-5.284427964315480786
0.271000000000000130,-5.575839525752792625
0.272000000000000131,-5.860296873857917532
0.273000000000000131,-6.137864348557387828
0.274000000000000132,-6.408605369449257516
0.275000000000000133,-6.672582665911406252
0.276000000000000134,-6.929858489142786127
0.277000000000000135,-7.180494806329217106
0.278000000000000136,-7.424553477236928600
0.279000000000000137,-7.662096413632684566
0.280000000000000138,-7.893185722011613059
0.281000000000000139,-8.117883830183760807
0.282000000000000139,-8.336253598327612480
0.283000000000000140,-8.548358415166012136
0.284000000000000141,-8.754262279956368076
0.285000000000000142,-8.954029871014977715
0.286000000000000143,-9.147726601514838407
0.287000000000000144,-9.335418663307921250
0.288000000000000145,-9.517173059529232759
0.289000000000000146,-9.693057626738408317
0.290000000000000147,-9.863141047349952117
0.291000000000000147,-10.027492853092223157
0.292000000000000148,-10.186183420221729179
0.293000000000000149,-10.339283957201102382
0.294000000000000150,-10.486866485529226622
0.295000000000000151,-10.629003814388697791
0.296000000000000152,-10.765769509751283550
0.297000000000000153,-10.897237858555445911
0.298000000000000154,-11.023483828542492091
0.299000000000000155,-11.144583024309502761
0.300000000000000155,-11.260611640107995868
0.301000000000000156,-11.371646409887917528
0.302000000000000157,-11.477764555057287765
0.303000000000000158,-11.579043730398154821
0.304000000000000159,-11.675561968550805858
0.305000000000000160,-11.767397623449227240
0.306000000000000161,-11.854629313063103524
0.307000000000000162,-11.937335861774240442
0.308000000000000163,-12.015596242688687312
0.309000000000000163,-12.089489520160363156
0.310000000000000164,-12.159094792777295879
0.311000000000000165,-12.224491137037801991
0.312000000000000166,-12.285757551921447472
0.313000000000000167,-12.342972904537941048
0.314000000000000168,-12.396215877016619089
0.315000000000000169,-12.445564914779776444
0.316000000000000170,-12.491098176324891611
0.317000000000000171,-12.532893484623269131
0.318000000000000171,-12.571028280226608231
0.319000000000000172,-12.605579576158024935
0.320000000000000173,-12.636623914649550926
0.321000000000000174,-12.664237325775294707
0.322000000000000175,-12.688495288017255902
0.323000000000000176,-12.709472690789537452
0.324000000000000177,-12.727243798936374475
0.325000000000000178,-12.741882219209873739
0.326000000000000179,-12.753460868725076338
0.327000000000000179,-12.762051945381596596
0.328000000000000180,-12.767726900234446674
0.329000000000000181,-12.770556411790227713
0.330000000000000182,-12.770610362198844712
0.331000000000000183,-12.767957815306422376
0.332000000000000184,-12.762666996530114716
0.333000000000000185,-12.754805274511930691
0.334000000000000186,-12.744439144505324890
0.335000000000000187,-12.731634213445172321
0.336000000000000187,-12.716455186649916698
0.337000000000000188,-12.698965856101811056
0.338000000000000189,-12.679229090250624168
0.339000000000000190,-12.657306825284182494
0.340000000000000191,-12.633260057808470833
0.341000000000000192,-12.607148838879666641
0.342000000000000193,-12.579032269329779581
0.343000000000000194,-12.548968496328017252
0.344000000000000195,-12.517014711119490045
0.345000000000000195,-12.483227147884234043
0.346000000000000196,-12.447661083659090409
0.347000000000000197,-12.410370839266516185
0.348000000000000198,-12.371409781194929067
0.349000000000000199,-12.330830324376265139
0.350000000000000200,-12.288683935807714676
0.351000000000000201,-12.245021138965707763
0.352000000000000202,-12.199891518961566206
0.353000000000000203,-12.153343728389762290
0.354000000000000203,-12.105425493821140748
0.355000000000000204,-12.056183622894772967
0.356000000000000205,-12.005664011964015003
0.357000000000000206,-11.953911654253749575
0.358000000000000207,-11.900970648487176007
0.359000000000000208,-11.846884207942547818
0.360000000000000209,-11.791694669901598758
0.361000000000000210,-11.735443505452932911
0.362000000000000210,-11.678171329615572915
0.363000000000000211,-11.619917911749071848
0.364000000000000212,-11.560722186218537644
0.365000000000000213,-11.500622263284082436
0.366000000000000214,-11.439655440186088597
0.367000000000000215,-11.377858212398846760
0.368000000000000216,-11.315266285026902793
0.369000000000000217,-11.251914584319539614
0.370000000000000218,-11.187837269280526797
0.371000000000000218,-11.123067743351279901
0.372000000000000219,-11.057638666147189710
0.373000000000000220,-10.991581965227972262
0.374000000000000221,-10.924928847884135763
0.375000000000000222,-10.857709812922752945
0.376000000000000223,-10.789954662437187594
0.377000000000000224,-10.721692513546043912
0.378000000000000225,-10.652951810088019613
0.379000000000000226,-10.583760334260180258
0.380000000000000226,-10.514145218188271969
0.381000000000000227,-10.444132955418295339
0.382000000000000228,-10.373749412319920538
0.383000000000000229,-10.303019839392746348
0.384000000000000230,-10.231968882467306514
0.385000000000000231,-10.160620593793714406
0.386000000000000232,-10.088998443011194084
0.387000000000000233,-10.017125327992690842
0.388000000000000234,-9.945023585559237489
0.389000000000000234,-9.872715002059560874
0.390000000000000235,-9.800220823810661841
0.391000000000000236,-9.727561767396050385
0.392000000000000237,-9.654758029818378162
0.393000000000000238,-9.581829298504171533
0.394000000000000239,-9.508794761158288367
0.395000000000000240,-9.435673115466643779
0.396000000000000241,-9.362482578645783704
0.397000000000000242,-9.289240896838327544
0.398000000000000242,-9.215965354353844674
0.399000000000000243,-9.142672782754717176
0.400000000000000244,-9.069379569786992334
0.401000000000000245,-8.996101668156706310
0.402000000000000246,-8.922854604151877922
0.403000000000000247,-8.849653486111147771
0.404000000000000248,-8.776513012739906472
0.405000000000000249,-8.703447481275112807
0.406000000000000250,-8.630470795500009729
0.407000000000000250,-8.557596473610319165
0.408000000000000251,-8.484837655933393563
0.409000000000000252,-8.412207112502176898
0.410000000000000253,-8.339717250485707112
0.411000000000000254,-8.267380121478142385
0.412000000000000255,-8.195207428648348724
0.413000000000000256,-8.123210533752132534
0.414000000000000257,-8.051400464009221380
0.415000000000000258,-7.979787918847347505
0.416000000000000258,-7.908383276515539073
0.417000000000000259,-7.837196600569032334
0.418000000000000260,-7.766237646228089098
0.419000000000000261,-7.695515866613041212
0.420000000000000262,-7.625040418857986779
0.421000000000000263,-7.554820170105463362
0.422000000000000264,-7.484863703384492695
0.423000000000000265,-7.415179323374289311
0.424000000000000266,-7.345775062056181248
0.425000000000000266,-7.276658684255863818
0.426000000000000267,-7.207837693078467112
0.427000000000000268,-7.139319335238687003
0.428000000000000269,-7.071110606288286249
0.429000000000000270,-7.003218255743239418
0.430000000000000271,-6.935648792112663052
0.431000000000000272,-6.868408487831871412
0.432000000000000273,-6.801503384101565075
0.433000000000000274,-6.734939295635427925
0.434000000000000274,-6.668721815318056301
0.435000000000000275,-6.602856318775411459
0.436000000000000276,-6.537347968859759995
0.437000000000000277,-6.472201720050965612
0.438000000000000278,-6.407422322776225698
0.439000000000000279,-6.343014327650021045
0.440000000000000280,-6.278982089636112818
0.441000000000000281,-6.215329772133427078
0.442000000000000282,-6.152061350987576560
0.443000000000000282,-6.089180618429643310
0.444000000000000283,-6.026691186944001188
0.445000000000000284,-5.964596493066714800
0.446000000000000285,-5.902899801116042511
0.447000000000000286,-5.841604206856767512
0.448000000000000287,-5.780712641099570170
0.449000000000000288,-5.720227873237151428
0.450000000000000289,-5.660152514718301830
0.451000000000000290,-5.600489022461405675
0.452000000000000290,-5.541239702208668128
0.453000000000000291,-5.482406711822303436
0.454000000000000292,-5.423992064524030710
0.455000000000000293,-5.365997632078930657
0.456000000000000294,-5.308425147925005305
0.457000000000000295,-5.251276210249436360
0.458000000000000296,-5.194552285012697723
0.459000000000000297,-5.138254708921601299
0.460000000000000298,-5.082384692352240663
0.461000000000000298,-5.026943322223909938
0.462000000000000299,-4.971931564824907390
0.463000000000000300,-4.917350268591142992
0.464000000000000301,-4.863200166838529626
0.465000000000000302,-4.809481880449976821
0.466000000000000303,-4.756195920517812148
0.467000000000000304,-4.703342690942505122
0.468000000000000305,-4.650922490988486757
0.469000000000000306,-4.598935517797744232
0.470000000000000306,-4.547381868862104604
0.471000000000000307,-4.496261544454704939
0.472000000000000308,-4.445574450021582358
0.473000000000000309,-4.395320398533854700
0.474000000000000310,-4.345499112801308073
0.475000000000000311,-4.296110227747869992
0.476000000000000312,-4.247153292649804790
0.477000000000000313,-4.198627773336950142
0.478000000000000314,-4.150533054357798513
0.479000000000000314,-4.102868441108906694
0.480000000000000315,-4.055633161929129038
0.481000000000000316,-4.008826370159315644
0.482000000000000317,-3.962447146167869416
0.483000000000000318,-3.916494499342773050
0.484000000000000319,-3.870967370050460321
0.485000000000000320,-3.825864631562141405
0.486000000000000321,-3.781185091947910415
0.487000000000000322,-3.736927495939183608
0.488000000000000322,-3.693090526759795544
0.489000000000000323,-3.649672807926351847
0.490000000000000324,-3.606672905018079689
0.491000000000000325,-3.564089327416689379
0.492000000000000326,-3.521920530016579676
0.493000000000000327,-3.480164914905859774
0.494000000000000328,-3.438820833018463752
0.495000000000000329,-3.397886585757824207
0.496000000000000330,-3.357360426592393310
0.497000000000000330,-3.317240562623444244
0.498000000000000331,-3.277525156125391081
0.499000000000000332,-3.238212326059131563
0.500000000000000333,-3.199300149558601980
0.501000000000000334,-3.160786663390929174
0.502000000000000335,-3.122669865390535815
0.503000000000000336,-3.084947715867495610
0.504000000000000337,-3.047618138990421777
0.505000000000000338,-3.010679024144258253
0.506000000000000338,-2.974128227263242774
0.507000000000000339,-2.937963572139349111
0.508000000000000340,-2.902182851706482936
0.509000000000000341,-2.866783829300821651
0.510000000000000342,-2.831764239897444302
0.511000000000000343,-2.797121791323654794
0.512000000000000344,-2.762854165449213362
0.513000000000000345,-2.728959019353792925
0.514000000000000346,-2.695433986471948096
0.515000000000000346,-2.662276677715807782
0.516000000000000347,-2.629484682575813803
0.517000000000000348,-2.597055570199822583
0.518000000000000349,-2.564986890450679180
0.519000000000000350,-2.533276174942713954
0.520000000000000351,-2.501920938057286214
0.521000000000000352,-2.470918677937717689
0.522000000000000353,-2.440266877463825868
0.523000000000000353,-2.409963005206301467
0.524000000000000354,-2.380004516361275524
0.525000000000000355,-2.350388853665196898
0.526000000000000356,-2.321113448290355485
0.527000000000000357,-2.292175720721319809
0.528000000000000358,-2.263573081612405336
0.529000000000000359,-2.235302932626609174
0.530000000000000360,-2.207362667256064004
0.531000000000000361,-2.179749671624406027
0.532000000000000361,-2.152461325271177728
0.533000000000000362,-2.125495001918602078
0.534000000000000363,-2.098848070220892481
0.535000000000000364,-2.072517894496361812
0.536000000000000365,-2.046501835442578798
0.537000000000000366,-2.020797250834779568
0.538000000000000367,-1.995401496207752645
0.539000000000000368,-1.970311925521506691
0.540000000000000369,-1.945525891810811814
0.541000000000000369,-1.921040747818990813
0.542000000000000370,-1.896853846616074479
0.543000000000000371,-1.872962542201580094
0.544000000000000372,-1.849364190092168458
0.545000000000000373,-1.826056147894361104
0.546000000000000374,-1.803035775862519730
0.547000000000000375,-1.780300437442357886
0.548000000000000376,-1.757847499800186952
0.549000000000000377,-1.735674334338084268
0.550000000000000377,-1.713778317195194578
0.551000000000000378,-1.692156829735439461
0.552000000000000379,-1.670807259021762192
0.553000000000000380,-1.649726998277186496
0.554000000000000381,-1.628913447332825726
0.555000000000000382,-1.608364013063147357
0.556000000000000383,-1.588076109808571834
0.557000000000000384,-1.568047159785739719
0.558000000000000385,-1.548274593485522654
0.559000000000000385,-1.528755850059097865
0.560000000000000386,-1.509488377692174810
0.561000000000000387,-1.490469633967657526
0.562000000000000388,-1.471697086216879891
0.563000000000000389,-1.453168211859642067
0.564000000000000390,-1.434880498733212661
0.565000000000000391,-1.416831445410513313
0.566000000000000392,-1.399018561507646252
0.567000000000000393,-1.381439367980985988
0.568000000000000393,-1.364091397413975670
0.569000000000000394,-1.346972194293851510
0.570000000000000395,-1.330079315278457130
0.571000000000000396,-1.313410329453320147
0.572000000000000397,-1.296962818579207255
0.573000000000000398,-1.280734377330265072
0.574000000000000399,-1.264722613523014294
0.575000000000000400,-1.248925148336264446
0.576000000000000401,-1.233339616522203031
0.577000000000000401,-1.217963666608815387
0.578000000000000402,-1.202794961093749393
0.579000000000000403,-1.187831176629839947
0.580000000000000404,-1.173070004202466210
0.581000000000000405,-1.158509149298853957
0.582000000000000406,-1.144146332069527761
0.583000000000000407,-1.129979287482046235
0.584000000000000408,-1.116005765467194211
0.585000000000000409,-1.102223531057766603
0.586000000000000409,-1.088630364520115634
0.587000000000000410,-1.075224061478606830
0.588000000000000411,-1.062002433033121918
0.589000000000000412,-1.048963305869781149
0.590000000000000413,-1.036104522364993397
0.591000000000000414,-1.023423940683010791
0.592000000000000415,-1.010919434867128874
0.593000000000000416,-0.998588894924639758
0.594000000000000417,-0.986430226905697594
0.595000000000000417,-0.974441352976281316
0.596000000000000418,-0.962620211485255339
0.597000000000000419,-0.950964757025841601
0.598000000000000420,-0.939472960491462894
0.599000000000000421,-0.928142809126211388
0.600000000000000422,-0.916972306569995843
0.601000000000000423,-0.905959472898537177
0.602000000000000424,-0.895102344658299409
0.603000000000000425,-0.884398974896514867
0.604000000000000425,-0.873847433186392464
0.605000000000000426,-0.863445805647636511
0.606000000000000427,-0.853192194962440142
0.607000000000000428,-0.843084720386930164
0.608000000000000429,-0.833121517758410923
0.609000000000000430,-0.823300739498218581
0.610000000000000431,-0.813620554610606006
