# CNT15-COOH-3_CS-20788-AC
# h[nm],U(h)[kJ/mol]
0.149999999999999994,160.846484887986832746
0.150999999999999995,158.445164325288459395
0.151999999999999996,156.452639272043427354
0.152999999999999997,154.599931956745962225
0.153999999999999998,152.761568537894447672
0.154999999999999999,150.891998512669658794
0.156000000000000000,148.986291376747971071
0.157000000000000001,147.056902873616934357
0.158000000000000002,145.120807514427667684
0.159000000000000002,143.193100310863286495
0.160000000000000003,141.284457455920488655
0.161000000000000004,139.400749909484943601
0.162000000000000005,137.543729350310172777
0.163000000000000006,135.712130743715164272
0.164000000000000007,133.902817845013629494
0.165000000000000008,132.111779999726365986
0.166000000000000009,130.334901692147468566
0.167000000000000010,128.568492797978819908
0.168000000000000010,126.809603299543510957
0.169000000000000011,125.056162440148540327
0.170000000000000012,123.306986572313718398
0.171000000000000013,121.561697439301156010
0.172000000000000014,119.820586692828982223
0.173000000000000015,118.084455222957103615
0.174000000000000016,116.354448637006186118
0.175000000000000017,114.631903678054555940
0.176000000000000018,112.918214850844989883
0.177000000000000018,111.214726119576269525
0.178000000000000019,109.522649214481162971
0.179000000000000020,107.843007713694305494
0.180000000000000021,106.176604502070432545
0.181000000000000022,104.524009290960549379
0.182000000000000023,102.885562462922052873
0.183000000000000024,101.261391450386696533
0.184000000000000025,99.651436055393745050
0.185000000000000026,98.055479477592427884
0.186000000000000026,96.473182268524269034
0.187000000000000027,94.904116917957452415
0.188000000000000028,93.347801263927138393
0.189000000000000029,91.803729375603012386
0.190000000000000030,90.271398970407346951
0.191000000000000031,88.750334784768526220
0.192000000000000032,87.240107617988343236
0.193000000000000033,85.740349011450774697
0.194000000000000034,84.250761714101315647
0.195000000000000034,82.771126224803566629
0.196000000000000035,81.301303798826879188
0.197000000000000036,79.841236365696758526
0.198000000000000037,78.390943835273645846
0.199000000000000038,76.950519274202719089
0.200000000000000039,75.520122421286117742
0.201000000000000040,74.099971982733180198
0.202000000000000041,72.690337110856631853
0.203000000000000042,71.291528426162543042
0.204000000000000042,69.903888895844943363
0.205000000000000043,68.527784833802044773
0.206000000000000044,67.163597240244484965
0.207000000000000045,65.811713654150565844
0.208000000000000046,64.472520650195974667
0.209000000000000047,63.146397073996368476
0.210000000000000048,61.833708075916149483
0.211000000000000049,60.534799974471084738
0.212000000000000050,59.249995955461983499
0.213000000000000050,57.979592592280923213
0.214000000000000051,56.723857156080313757
0.215000000000000052,55.483025671387281363
0.216000000000000053,54.257301662932761133
0.217000000000000054,53.046855532578334191
0.218000000000000055,51.851824500893869185
0.219000000000000056,50.672313045802226839
0.220000000000000057,49.508393770406641465
0.221000000000000058,48.360108633341795326
0.222000000000000058,47.227470477418741268
0.223000000000000059,46.110464795717810205
0.224000000000000060,45.009051678363903193
0.225000000000000061,43.923167887792921249
0.226000000000000062,42.852729015200047513
0.227000000000000063,41.797631675895715375
0.228000000000000064,40.757755706354870995
0.229000000000000065,39.732966330720380199
0.230000000000000066,38.723116269332741979
0.231000000000000066,37.728047766433391530
0.232000000000000067,36.747594518485847459
0.233000000000000068,35.781583488536753634
0.234000000000000069,34.829836595681442191
0.235000000000000070,33.892172271989394972
0.236000000000000071,32.968406882187082374
0.237000000000000072,32.058356003986403948
0.238000000000000073,31.161835569204225038
0.239000000000000073,30.278662867752274224
0.240000000000000074,29.408657418204295908
0.241000000000000075,28.551641709994335372
0.242000000000000076,27.707441823382605861
0.243000000000000077,26.875887934169764293
0.244000000000000078,26.056814710768470889
0.245000000000000079,25.250061611676098750
0.246000000000000080,24.455473091657278673
0.247000000000000081,23.672898725058381331
0.248000000000000081,22.902193254662854827
0.249000000000000082,22.143216574372111438
0.250000000000000111,21.395833653779963157
0.251000000000000112,20.659914412417858642
0.252000000000000113,19.935333551093783910
0.253000000000000114,19.221970347350531227
0.254000000000000115,18.519708421631882800
0.255000000000000115,17.828435480287602388
0.256000000000000116,17.148043041073428583
0.257000000000000117,16.478426146321265122
0.258000000000000118,15.819483068475147292
0.259000000000000119,15.171115012213888917
0.260000000000000120,14.533225816918498907
0.261000000000000121,13.905721662796036497
0.262000000000000122,13.288510783541990889
0.263000000000000123,12.681503188017455130
0.264000000000000123,12.084610393032473752
0.265000000000000124,11.497745168968517504
0.266000000000000125,10.920821299639005275
0.267000000000000126,10.353753357479412500
0.268000000000000127,9.796456494875974030
0.269000000000000128,9.248846252186734063
0.270000000000000129,8.710838382777357225
0.271000000000000130,8.182348695187082299
0.272000000000000131,7.663292912357876574
0.273000000000000131,7.153586547698333575
0.274000000000000132,6.653144797614904071
0.275000000000000133,6.161882450023126623
0.276000000000000134,5.679713808250384410
0.277000000000000135,5.206552629659134013
0.278000000000000136,4.742312078250827234
0.279000000000000137,4.286904690458424483
0.280000000000000138,3.840242353296450695
0.281000000000000139,3.402236294009161721
0.282000000000000139,2.972797080342081788
0.283000000000000140,2.551834630554723038
0.284000000000000141,2.139258232294825923
0.285000000000000142,1.734976569463697160
0.286000000000000143,1.338897756218417667
0.287000000000000144,0.950929377278848853
0.288000000000000145,0.570978533733019211
0.289000000000000146,0.198951893566467974
0.290000000000000147,-0.165244253826606818
0.291000000000000147,-0.521703939854739951
0.292000000000000148,-0.870521456330370036
0.293000000000000149,-1.211791293087013610
0.294000000000000150,-1.545608074198950188
0.295000000000000151,-1.872066493348092608
0.296000000000000152,-2.191261248841832376
0.297000000000000153,-2.503286978744263980
0.298000000000000154,-2.808238196543146881
0.299000000000000155,-3.106209227735045264
0.300000000000000155,-3.397294147672689668
0.301000000000000156,-3.681586720980957406
0.302000000000000157,-3.959180342812540054
0.303000000000000158,-4.230167982179183994
0.304000000000000159,-4.494642127562133105
0.305000000000000160,-4.752694734973982982
0.306000000000000161,-5.004417178614799511
0.307000000000000162,-5.249900204237897938
0.308000000000000163,-5.489233885314575900
0.309000000000000163,-5.722507582063137477
0.310000000000000164,-5.949809903385417265
0.311000000000000165,-6.171228671733116400
0.312000000000000166,-6.386850890907846967
0.313000000000000167,-6.596762716781232605
0.314000000000000168,-6.801049430906024540
0.315000000000000169,-6.999795416975193696
0.316000000000000170,-7.193084140073471744
0.317000000000000171,-7.380998128654526980
0.318000000000000171,-7.563618959167376588
0.319000000000000172,-7.741027243247387446
0.320000000000000173,-7.913302617379523340
0.321000000000000174,-8.080523734935749047
0.322000000000000175,-8.242768260483513743
0.323000000000000176,-8.400112866257916977
0.324000000000000177,-8.552633230687511912
0.325000000000000178,-8.700404038860881428
0.326000000000000179,-8.843498984820445941
0.327000000000000179,-8.981990775568528207
0.328000000000000180,-9.115951136671048616
0.329000000000000181,-9.245450819344826598
0.330000000000000182,-9.370559608915181471
0.331000000000000183,-9.491346334532682505
0.332000000000000184,-9.607878880039349312
0.333000000000000185,-9.720224195877381845
0.334000000000000186,-9.828448311936146098
0.335000000000000187,-9.932616351236095653
0.336000000000000187,-10.032792544351851305
0.337000000000000188,-10.129040244479650568
0.338000000000000189,-10.221421943058688342
0.339000000000000190,-10.309999285859319684
0.340000000000000191,-10.394833089454866837
0.341000000000000192,-10.475983357998211787
0.342000000000000193,-10.553509300228078871
0.343000000000000194,-10.627469346634182301
0.344000000000000195,-10.697921166714129626
0.345000000000000195,-10.764921686259842915
0.346000000000000196,-10.828527104614227738
0.347000000000000197,-10.888792911843818700
0.348000000000000198,-10.945773905776357893
0.349000000000000199,-10.999524208856488627
0.350000000000000200,-11.050097284776390083
0.351000000000000201,-11.097545954841889326
0.352000000000000202,-11.141922414038020861
0.353000000000000203,-11.183278246761652497
0.354000000000000203,-11.221664442192153643
0.355000000000000204,-11.257131409273824829
0.356000000000000205,-11.289728991287530491
0.357000000000000206,-11.319506479991702008
0.358000000000000207,-11.346512629315224530
0.359000000000000208,-11.370795668588232985
0.360000000000000209,-11.392403315298784250
0.361000000000000210,-11.411382787365912606
0.362000000000000210,-11.427780814922067876
0.363000000000000211,-11.441643651599779474
0.364000000000000212,-11.453017085319725510
0.365000000000000213,-11.461946448578952840
0.366000000000000214,-11.468476628240047432
0.367000000000000215,-11.472652074823443513
0.368000000000000216,-11.474516811306894937
0.369000000000000217,-11.474114441437103906
0.370000000000000218,-11.471488157560287391
0.371000000000000218,-11.466680747979186350
0.372000000000000219,-11.459734603845417311
0.373000000000000220,-11.450691725596950477
0.374000000000000221,-11.439593728951347629
0.375000000000000222,-11.426481850465972201
0.376000000000000223,-11.411396952677751671
0.377000000000000224,-11.394379528834768678
0.378000000000000225,-11.375469707233197170
0.379000000000000226,-11.354707255173162039
0.380000000000000226,-11.332131582547791737
0.381000000000000227,-11.307781745079585889
0.382000000000000228,-11.281696447219037083
0.383000000000000229,-11.253914044720110255
0.384000000000000230,-11.224472546907607651
0.385000000000000231,-11.193409618651493531
0.386000000000000232,-11.160762582063114223
0.387000000000000233,-11.126568417928448085
0.388000000000000234,-11.090863766893168219
0.389000000000000234,-11.053684930414579668
0.390000000000000235,-11.015067871494917284
0.391000000000000236,-10.975048215210652103
0.392000000000000237,-10.933661249051990438
0.393000000000000238,-10.890941923086831622
0.394000000000000239,-10.846924849962675808
0.395000000000000240,-10.801644304760305459
0.396000000000000241,-10.755134224712266544
0.397000000000000242,-10.707428208798992486
0.398000000000000242,-10.658559517235307368
0.399000000000000243,-10.608561070859233055
0.400000000000000244,-10.557465450435083554
0.401000000000000245,-10.505304895882243699
0.402000000000000246,-10.452111305440620725
0.403000000000000247,-10.397916234783455280
0.404000000000000248,-10.342750896087764545
0.405000000000000249,-10.286646157072230068
0.406000000000000250,-10.229632540011987629
0.407000000000000250,-10.171740220739367899
0.408000000000000251,-10.112999027639181904
0.409000000000000252,-10.053438440646846885
0.410000000000000253,-9.993087590257095698
0.411000000000000254,-9.931975256550778397
0.412000000000000255,-9.870129868246689142
0.413000000000000256,-9.807579501785200549
0.414000000000000257,-9.744351880449761083
0.415000000000000258,-9.680474373532367949
0.416000000000000258,-9.615973995548277031
0.417000000000000259,-9.550877405505293183
0.418000000000000260,-9.485210906232307337
0.419000000000000261,-9.419000443771512465
0.420000000000000262,-9.352271606838446161
0.421000000000000263,-9.285049626353639951
0.422000000000000264,-9.217359375049138492
0.423000000000000265,-9.149225367153210442
0.424000000000000266,-9.080671758156043438
0.425000000000000266,-9.011722344658769757
0.426000000000000267,-8.942400564308320199
0.427000000000000268,-8.872729495819815071
0.428000000000000269,-8.802731859088392952
0.429000000000000270,-8.732430015391857481
0.430000000000000271,-8.661845967685206205
0.431000000000000272,-8.591001360988276048
0.432000000000000273,-8.519917482866933511
0.433000000000000274,-8.448615264008617842
0.434000000000000274,-8.377115278892281580
0.435000000000000275,-8.305437746553087308
0.436000000000000276,-8.233602531441635008
0.437000000000000277,-8.161629144377474887
0.438000000000000278,-8.089536743596575263
0.439000000000000279,-8.017344135892141566
0.440000000000000280,-7.945069777847946213
0.441000000000000281,-7.872731777163427758
0.442000000000000282,-7.800347894069551202
0.443000000000000282,-7.727935542834141636
0.444000000000000283,-7.655511793355637806
0.445000000000000284,-7.583093372843803692
0.446000000000000285,-7.510696667585807340
0.447000000000000286,-7.438337724796457273
0.448000000000000287,-7.366032254550495040
0.449000000000000288,-7.293795631795640944
0.450000000000000289,-7.221642898444214254
0.451000000000000290,-7.149588765541733615
0.452000000000000290,-7.077647615510426427
0.453000000000000291,-7.005833504465636352
0.454000000000000292,-6.934160164603211385
0.455000000000000293,-6.862641006655588072
0.456000000000000294,-6.791289122414641888
0.457000000000000295,-6.720117287319050448
0.458000000000000296,-6.649137963103912696
0.459000000000000297,-6.578363300510581269
0.460000000000000298,-6.507805142054263747
0.461000000000000298,-6.437475024847349125
0.462000000000000299,-6.367384183476045401
0.463000000000000300,-6.297543552928090982
0.464000000000000301,-6.227963771569316798
0.465000000000000302,-6.158655184166799579
0.466000000000000303,-6.089627844956180702
0.467000000000000304,-6.020891520751078474
0.468000000000000305,-5.952455694092257943
0.469000000000000306,-5.884329566434230330
0.470000000000000306,-5.816522061367303209
0.471000000000000307,-5.749041827872501287
0.472000000000000308,-5.681897243607552994
0.473000000000000309,-5.615096418221488861
0.474000000000000310,-5.548647196695887018
0.475000000000000311,-5.482557162710448573
0.476000000000000312,-5.416833642031161133
0.477000000000000313,-5.351483705918550271
0.478000000000000314,-5.286514174554317158
0.479000000000000314,-5.221931620484280501
0.480000000000000315,-5.157742372075541759
0.481000000000000316,-5.093952516986171908
0.482000000000000317,-5.030567905645271232
0.483000000000000318,-4.967594154741774126
0.484000000000000319,-4.905036650720012936
0.485000000000000320,-4.842900553280399478
0.486000000000000321,-4.781190798883367954
0.487000000000000322,-4.719912104254995633
0.488000000000000322,-4.659068969892449452
0.489000000000000323,-4.598665683567969786
0.490000000000000324,-4.538706323829457823
0.491000000000000325,-4.479194763496392895
0.492000000000000326,-4.420134673149394899
0.493000000000000327,-4.361529524612188347
0.494000000000000328,-4.303382594424355112
0.495000000000000329,-4.245696967303661751
0.496000000000000330,-4.188475539596518082
0.497000000000000330,-4.131721022715436398
0.498000000000000331,-4.075435946561998257
0.499000000000000332,-4.019622662934478896
0.500000000000000333,-3.964283348918657079
0.501000000000000334,-3.909420010260818312
0.502000000000000335,-3.855034484721918009
0.503000000000000336,-3.801128445411804613
0.504000000000000337,-3.747703404102512792
0.505000000000000338,-3.694760714519687017
0.506000000000000338,-3.642301575611234910
0.507000000000000339,-3.590327034792265781
0.508000000000000340,-3.538837991165509234
0.509000000000000341,-3.487835198716500607
0.510000000000000342,-3.437319269482574491
0.511000000000000343,-3.387290676695120517
0.512000000000000344,-3.337749757894274527
0.513000000000000345,-3.288696718015459375
0.514000000000000346,-3.240131632447177168
0.515000000000000346,-3.192054450059336190
0.516000000000000347,-3.144464996201671969
0.517000000000000348,-3.097362975671761998
0.518000000000000349,-3.050747975651945776
0.519000000000000350,-3.004619468614964095
0.520000000000000351,-2.958976815197640775
0.521000000000000352,-2.913819267042384364
0.522000000000000353,-2.869145969606043955
0.523000000000000353,-2.824955964935740305
0.524000000000000354,-2.781248194411541252
0.525000000000000355,-2.738021501455438766
0.526000000000000356,-2.695274634206563658
0.527000000000000357,-2.653006248162371072
0.528000000000000358,-2.611214908785418842
0.529000000000000359,-2.569899094075871915
0.530000000000000360,-2.529057197109207511
0.531000000000000361,-2.488687528539300864
0.532000000000000361,-2.448788319066534047
0.533000000000000362,-2.409357721871016711
0.534000000000000363,-2.370393815010704230
0.535000000000000364,-2.331894603784467002
0.536000000000000365,-2.293858023060005191
0.537000000000000366,-2.256281939566660011
0.538000000000000367,-2.219164154153021595
0.539000000000000368,-2.182502404009554642
0.540000000000000369,-2.146294364855998449
0.541000000000000369,-2.110537653093914834
0.542000000000000370,-2.075229827924183645
0.543000000000000371,-2.040368393429706106
0.544000000000000372,-2.005950800623369279
0.545000000000000373,-1.971974449461391332
0.546000000000000374,-1.938436690822148645
0.547000000000000375,-1.905334828450681472
0.548000000000000376,-1.872666120869045825
0.549000000000000377,-1.840427783252624794
0.550000000000000377,-1.808616989272604725
0.551000000000000378,-1.777230872904852266
0.552000000000000379,-1.746266530205345502
0.553000000000000380,-1.715721021052414752
0.554000000000000381,-1.685591370855951343
0.555000000000000382,-1.655874572233951181
0.556000000000000383,-1.626567586656453512
0.557000000000000384,-1.597667346057326077
0.558000000000000385,-1.569170754413969249
0.559000000000000385,-1.541074689295360622
0.560000000000000386,-1.513376003378617662
0.561000000000000387,-1.486071525934404169
0.562000000000000388,-1.459158064281446787
0.563000000000000389,-1.432632405210478854
0.564000000000000390,-1.406491316377894707
0.565000000000000391,-1.380731547669417969
0.566000000000000392,-1.355349832534087806
0.567000000000000393,-1.330342889288937958
0.568000000000000393,-1.305707422394572603
0.569000000000000394,-1.281440123702058731
0.570000000000000395,-1.257537673671447864
0.571000000000000396,-1.233996742562183169
0.572000000000000397,-1.210813991595850903
0.573000000000000398,-1.187986074091456734
0.574000000000000399,-1.165509636573738961
0.575000000000000400,-1.143381319854669842
0.576000000000000401,-1.121597760088633988
0.577000000000000401,-1.100155589801601330
0.578000000000000402,-1.079051438894548909
0.579000000000000403,-1.058281935621548930
0.580000000000000404,-1.037843707542933203
0.581000000000000405,-1.017733382453703594
0.582000000000000406,-0.997947589287724091
0.583000000000000407,-0.978482958997907382
0.584000000000000408,-0.959336125412814100
0.585000000000000409,-0.940503726069995993
0.586000000000000409,-0.921982403026407660
0.587000000000000410,-0.903768803646284424
0.588000000000000411,-0.885859581366754467
0.589000000000000412,-0.868251396441638179
0.590000000000000413,-0.850940916663652791
0.591000000000000414,-0.833924818065468587
0.592000000000000415,-0.817199785599927120
0.593000000000000416,-0.800762513799717190
0.594000000000000417,-0.784609707416898727
0.595000000000000417,-0.768738082042658699
0.596000000000000418,-0.753144364707446168
0.597000000000000419,-0.737825294462087777
0.598000000000000420,-0.722777622939967945
0.599000000000000421,-0.707998114900774689
0.600000000000000422,-0.693483548756039236
0.601000000000000423,-0.679230717076846791
0.602000000000000424,-0.665236427084016979
0.603000000000000425,-0.651497501121083622
0.604000000000000425,-0.638010777110380345
0.605000000000000426,-0.624773108992547233
0.606000000000000427,-0.611781367149843769
0.607000000000000428,-0.599032438813359103
0.608000000000000429,-0.586523228454797541
0.609000000000000430,-0.574250658162687166
0.610000000000000431,-0.562211668003751330
0.611000000000000432,-0.550403216369421355
