# CNT15-COOH-3_PENTANE
# h[nm],U(h)[kJ/mol]
0.149999999999999994,164.826548452935639943
0.150999999999999995,161.952041347507190494
0.151999999999999996,160.225535881876027133
0.152999999999999997,158.715490192381707857
0.153999999999999998,157.070889594578744664
0.154999999999999999,155.223586214522839555
0.156000000000000000,153.222328480865257916
0.157000000000000001,151.146488702474698584
0.158000000000000002,149.066283390930976793
0.159000000000000002,147.028732447908453196
0.160000000000000003,145.056744035607238175
0.161000000000000004,143.153945791878101090
0.162000000000000005,141.311177699674658470
0.163000000000000006,139.512579552301929198
0.164000000000000007,137.740395899583148775
0.165000000000000008,135.978285477854910823
0.166000000000000009,134.213260789241701332
0.167000000000000010,132.436527761389442048
0.168000000000000010,130.643529441627407550
0.169000000000000011,128.833474218275370049
0.170000000000000012,127.008580140606071041
0.171000000000000013,125.173211083772983443
0.172000000000000014,123.333027768618961773
0.173000000000000015,121.494231699789636991
0.174000000000000016,119.662944488436295387
0.175000000000000017,117.844738582656603398
0.176000000000000018,116.044317062401802332
0.177000000000000018,114.265328437878110890
0.178000000000000019,112.510295850459897338
0.179000000000000020,110.780637363238113835
0.180000000000000021,109.076753991736538296
0.181000000000000022,107.398163829758985344
0.182000000000000023,105.743663346784870782
0.183000000000000024,104.111500134419060259
0.184000000000000025,102.499544679622857757
0.185000000000000026,100.905451887645455145
0.186000000000000026,99.326805911639979740
0.187000000000000027,97.761244286136317783
0.188000000000000028,96.206559377896184060
0.189000000000000029,94.660776766448066155
0.190000000000000030,93.122211377348733663
0.191000000000000031,91.589503057047011225
0.192000000000000032,90.061633848662012269
0.193000000000000033,88.537929553934617388
0.194000000000000034,87.018048297026282967
0.195000000000000034,85.501958785593984658
0.196000000000000035,83.989910833331663298
0.197000000000000036,82.482400499897636337
0.198000000000000037,80.980131947087301114
0.199000000000000038,79.483977827094605573
0.200000000000000039,77.994939727633934012
0.201000000000000040,76.514109913101947313
0.202000000000000041,75.042635330659919646
0.203000000000000042,73.581684601788879263
0.204000000000000042,72.132418497630908405
0.205000000000000043,70.695964202377098218
0.206000000000000044,69.273393503598384768
0.207000000000000045,67.865704911081550676
0.208000000000000046,66.473809594907933729
0.209000000000000047,65.098520947117151536
0.210000000000000048,63.740547506893861396
0.211000000000000049,62.400488944201640606
0.212000000000000050,61.078834768509992159
0.213000000000000050,59.775965415147631177
0.214000000000000051,58.492155359405934689
0.215000000000000052,57.227577915553709431
0.216000000000000053,55.982311392350695201
0.217000000000000054,54.756346296634646365
0.218000000000000055,53.549593300510636595
0.219000000000000056,52.361891714222096539
0.220000000000000057,51.193018234768850050
0.221000000000000058,50.042695768814908774
0.222000000000000058,48.910602156608121049
0.223000000000000059,47.796378650922832776
0.224000000000000060,46.699638030955973989
0.225000000000000061,45.619972255327063237
0.226000000000000062,44.556959580616094740
0.227000000000000063,43.510171092080980770
0.228000000000000064,42.479176611264321650
0.229000000000000065,41.463549961116896725
0.230000000000000066,40.462873583085105622
0.231000000000000066,39.476742512404143781
0.232000000000000067,38.504767727724889426
0.233000000000000068,37.546578899304762444
0.234000000000000069,36.601826566457532408
0.235000000000000070,35.670183779930923151
0.236000000000000071,34.751347248521071265
0.237000000000000072,33.845038031684303803
0.238000000000000073,32.951001821324283014
0.239000000000000073,32.069008856453422140
0.240000000000000074,31.198853514182708579
0.241000000000000075,30.340353619614653269
0.242000000000000076,29.493349515807885552
0.243000000000000077,28.657702933155398739
0.244000000000000078,27.833295695367077371
0.245000000000000079,27.020028296851211991
0.246000000000000080,26.217818383726957165
0.247000000000000081,25.426599168030065812
0.248000000000000081,24.646317801957955851
0.249000000000000082,23.876933736281081622
0.250000000000000111,23.118417084366889469
0.251000000000000112,22.370747010653364129
0.252000000000000113,21.633910159895201275
0.253000000000000114,20.907899141113567509
0.254000000000000115,20.192711077917515183
0.255000000000000115,19.488346234751556807
0.256000000000000116,18.794806726660237217
0.257000000000000117,18.112095318354963780
0.258000000000000118,17.440214316721654342
0.259000000000000119,16.779164559416901881
0.260000000000000120,16.128944500864506040
0.261000000000000121,15.489549395778496432
0.262000000000000122,14.860970579295507576
0.263000000000000123,14.243194841894588620
0.264000000000000123,13.636203896505250555
0.265000000000000124,13.039973934549820456
0.266000000000000125,12.454475267123109816
0.267000000000000126,11.879672047073926322
0.268000000000000127,11.315522067408746665
0.269000000000000128,10.761976631182061936
0.270000000000000129,10.218980487859031570
0.271000000000000130,9.686471831027560597
0.272000000000000131,9.164382352292124168
0.273000000000000131,8.652637346190100942
0.274000000000000132,8.151155861029577565
0.275000000000000133,7.659850890645889976
0.276000000000000134,7.178629602208525640
0.277000000000000135,6.707393595374445461
0.278000000000000136,6.246039188271431897
0.279000000000000137,5.794457726003368059
0.280000000000000138,5.352535907593186870
0.281000000000000139,4.920156127512846034
0.282000000000000139,4.497196828193269269
0.283000000000000140,4.083532860153581190
0.284000000000000141,3.679035846638624374
0.285000000000000142,3.283574549902025019
0.286000000000000143,2.897015236518049708
0.287000000000000144,2.519222039347304154
0.288000000000000145,2.150057314015815457
0.289000000000000146,1.789381987996515377
0.290000000000000147,1.437055900600241243
0.291000000000000147,1.092938132395181672
0.292000000000000148,0.756887322772832216
0.293000000000000149,0.428761974569681736
0.294000000000000150,0.108420744832152582
0.295000000000000151,-0.204277279019029340
0.296000000000000152,-0.509472318212062070
0.297000000000000153,-0.807303657275678210
0.298000000000000154,-1.097909414625382940
0.299000000000000155,-1.381426329266062014
0.300000000000000155,-1.657989563679409972
0.301000000000000156,-1.927732522861101971
0.302000000000000157,-2.190786689379795593
0.303000000000000158,-2.447281474245618149
0.304000000000000159,-2.697344083301826512
0.305000000000000160,-2.941099398786847452
0.306000000000000161,-3.178669875656624733
0.307000000000000162,-3.410175452207241165
0.308000000000000163,-3.635733474495099760
0.309000000000000163,-3.855458634016435404
0.310000000000000164,-4.069462918078697200
0.311000000000000165,-4.277855572272824425
0.312000000000000166,-4.480743074437913087
0.313000000000000167,-4.678229119496760013
0.314000000000000168,-4.870414614532804443
0.315000000000000169,-5.057397683475008954
0.316000000000000170,-5.239273680757444041
0.317000000000000171,-5.416135213323344466
0.318000000000000171,-5.588072170350230294
0.319000000000000172,-5.755171760082119725
0.320000000000000173,-5.917518553166189577
0.321000000000000174,-6.075194531905437678
0.322000000000000175,-6.228279144854719895
0.323000000000000176,-6.376849366204592862
0.324000000000000177,-6.520979759416458243
0.325000000000000178,-6.660742544591866654
0.326000000000000179,-6.796207669080227554
0.327000000000000179,-6.927442880849865148
0.328000000000000180,-7.054513804169860514
0.329000000000000181,-7.177484017172321096
0.330000000000000182,-7.296415130887041300
0.331000000000000183,-7.411366869363550158
0.332000000000000184,-7.522397150517737607
0.333000000000000185,-7.629562167362881731
0.334000000000000186,-7.732916469307025586
0.335000000000000187,-7.832513043220457050
0.336000000000000187,-7.928403393998655346
0.337000000000000188,-8.020637624366449003
0.338000000000000189,-8.109264513690300547
0.339000000000000190,-8.194331595584838368
0.340000000000000191,-8.275885234119041201
0.341000000000000192,-8.353970698446168797
0.342000000000000193,-8.428632235699140551
0.343000000000000194,-8.499913142010331768
0.344000000000000195,-8.567855831530692967
0.345000000000000195,-8.632501903339486304
0.346000000000000196,-8.693892206149900659
0.347000000000000197,-8.752066900730598675
0.348000000000000198,-8.807065519976346124
0.349000000000000199,-8.858927026573438113
0.350000000000000200,-8.907689868217769202
0.351000000000000201,-8.953392030354326181
0.352000000000000202,-8.996071086417494200
0.353000000000000203,-9.035764245561233921
0.354000000000000203,-9.072508397877548703
0.355000000000000204,-9.106340157109562128
0.356000000000000205,-9.137295900873898091
0.357000000000000206,-9.165411808414072325
0.358000000000000207,-9.190723895912791264
0.359000000000000208,-9.213268049397743908
0.360000000000000209,-9.233080055280431964
0.361000000000000210,-9.250195628572683404
0.362000000000000210,-9.264650438830049239
0.363000000000000211,-9.276480133874919431
0.364000000000000212,-9.285720361356229802
0.365000000000000213,-9.292406788204994328
0.366000000000000214,-9.296575118048275854
0.367000000000000215,-9.298261106645831831
0.368000000000000216,-9.297500575416176360
0.369000000000000217,-9.294329423119766176
0.370000000000000218,-9.288783635768801616
0.371000000000000218,-9.280899294833583113
0.372000000000000219,-9.270712583816363761
0.373000000000000220,-9.258259793263951209
0.374000000000000221,-9.243577324290255248
0.375000000000000222,-9.226701690680052081
0.376000000000000223,-9.207669519645103051
0.377000000000000224,-9.186517551302950224
0.378000000000000225,-9.163282636948185456
0.379000000000000226,-9.138001736185255908
0.380000000000000226,-9.110711912990932859
0.381000000000000227,-9.081450330773046531
0.382000000000000228,-9.050254246491562071
0.383000000000000229,-9.017161003906158712
0.384000000000000230,-8.982208026013205782
0.385000000000000231,-8.945432806733858655
0.386000000000000232,-8.906872901912828766
0.387000000000000233,-8.866565919686351549
0.388000000000000234,-8.824549510275566888
0.389000000000000234,-8.780861355260503487
0.390000000000000235,-8.735539156387355675
0.391000000000000236,-8.688620623960510159
0.392000000000000237,-8.640143464868609513
0.393000000000000238,-8.590145370292336935
0.394000000000000239,-8.538664003139512459
0.395000000000000240,-8.485736985251561393
0.396000000000000241,-8.431401884423319615
0.397000000000000242,-8.375696201276301878
0.398000000000000242,-8.318657356024065308
0.399000000000000243,-8.260322675166040796
0.400000000000000244,-8.200729378144714588
0.401000000000000245,-8.139914563999322894
0.402000000000000246,-8.077915198047207923
0.403000000000000247,-8.014768098622553794
0.404000000000000248,-7.950509923900463960
0.405000000000000249,-7.885177158832709310
0.406000000000000250,-7.818806102219748588
0.407000000000000250,-7.751432853942378465
0.408000000000000251,-7.683093302374452094
0.409000000000000252,-7.613823111997002790
0.410000000000000253,-7.543657711232370389
0.411000000000000254,-7.472632280515729697
0.412000000000000255,-7.400781740619956750
0.413000000000000256,-7.328140741248572176
0.414000000000000257,-7.254743649910006198
0.415000000000000258,-7.180624541085596668
0.416000000000000258,-7.105817185702116845
0.417000000000000259,-7.030355040918832898
0.418000000000000260,-6.954271240237827278
0.419000000000000261,-6.877598583945333743
0.420000000000000262,-6.800369529890841314
0.421000000000000263,-6.722616184609745638
0.422000000000000264,-6.644370294794393672
0.423000000000000265,-6.565663239117453642
0.424000000000000266,-6.486526020410993354
0.425000000000000266,-6.406989258203277693
0.426000000000000267,-6.327083181615235752
0.427000000000000268,-6.246837622617227304
0.428000000000000269,-6.166282009646442575
0.429000000000000270,-6.085445361584592483
0.430000000000000271,-6.004356282094581942
0.431000000000000272,-5.923042954314868602
0.432000000000000273,-5.841533135909149799
0.433000000000000274,-5.759854154468865950
0.434000000000000274,-5.678032903265282094
0.435000000000000275,-5.596095837347681901
0.436000000000000276,-5.514068969983742186
0.437000000000000277,-5.431977869437541351
0.438000000000000278,-5.349847656080741309
0.439000000000000279,-5.267702999831781696
0.440000000000000280,-5.185568117917743969
0.441000000000000281,-5.103466772953336950
0.442000000000000282,-5.021422271331178244
0.443000000000000282,-4.939457461917143632
0.444000000000000283,-4.857594735044682643
0.445000000000000284,-4.775856021801532236
0.446000000000000285,-4.694262793602075767
0.447000000000000286,-4.612836062038910612
0.448000000000000287,-4.531596379006268549
0.449000000000000288,-4.450563837088710173
0.450000000000000289,-4.369758070207636180
0.451000000000000290,-4.289198254518646891
0.452000000000000290,-4.208903109552494470
0.453000000000000291,-4.128890899592196462
0.454000000000000292,-4.049179435279235406
0.455000000000000293,-3.969786075441253281
0.456000000000000294,-3.890727729134110469
0.457000000000000295,-3.812020857890885850
0.458000000000000296,-3.733681478170474577
0.459000000000000297,-3.655725163998602145
0.460000000000000298,-3.578167049793845145
0.461000000000000298,-3.501021833371646519
0.462000000000000299,-3.424303779119014735
0.463000000000000300,-3.348026721332859612
0.464000000000000301,-3.272204067714996167
0.465000000000000302,-3.196848803016886009
0.466000000000000303,-3.121973492827091690
0.467000000000000304,-3.047590287494890138
0.468000000000000305,-2.973710926183253278
0.469000000000000306,-2.900346741044567356
0.470000000000000306,-2.827508661512818655
0.471000000000000307,-2.755207218705572281
0.472000000000000308,-2.683452549929812747
0.473000000000000309,-2.612254403285225735
0.474000000000000310,-2.541622142359128311
0.475000000000000311,-2.471564751006876115
0.476000000000000312,-2.402090838212364243
0.477000000000000313,-2.333208643022469886
0.478000000000000314,-2.264926039550295478
0.479000000000000314,-2.197250542041675914
0.480000000000000315,-2.130189309999568792
0.481000000000000316,-2.063749153361394306
0.482000000000000317,-1.997936537724094297
0.483000000000000318,-1.932757589612186466
0.484000000000000319,-1.868218101783926333
0.485000000000000320,-1.804323538571094065
0.486000000000000321,-1.741079041247769466
0.487000000000000322,-1.678489433423845156
0.488000000000000322,-1.616559226458888388
0.489000000000000323,-1.555292624892505415
0.490000000000000324,-1.494693531886935434
0.491000000000000325,-1.434765554678250732
0.492000000000000326,-1.375512010032256427
0.493000000000000327,-1.316935929701667174
0.494000000000000328,-1.259040065880943970
0.495000000000000329,-1.201826896655507682
0.496000000000000330,-1.145298631442057680
0.497000000000000330,-1.089457216416943819
0.498000000000000331,-1.034304339929438488
0.499000000000000332,-0.979841437897294609
0.500000000000000333,-0.926069699181552908
0.501000000000000334,-0.872990070938050144
0.502000000000000335,-0.820603263943133876
0.503000000000000336,-0.768909757891085510
0.504000000000000337,-0.717909806660895100
0.505000000000000338,-0.667603443550223608
0.506000000000000338,-0.617990486474416345
0.507000000000000339,-0.569070543128469386
0.508000000000000340,-0.520843016110090984
0.509000000000000341,-0.473307108002077537
0.510000000000000342,-0.426461826412096401
0.511000000000000343,-0.380305988968413111
0.512000000000000344,-0.334838228269853488
0.513000000000000345,-0.290056996788656096
0.514000000000000346,-0.245960571724753940
0.515000000000000346,-0.202547059810191415
0.516000000000000347,-0.159814402062454342
0.517000000000000348,-0.117760378485657485
0.518000000000000349,-0.076382612718326429
0.519000000000000350,-0.035678576627014902
0.520000000000000351,0.004354405155352170
0.521000000000000352,0.043719150747133326
0.522000000000000353,0.082418616592457819
0.523000000000000353,0.120455893093308578
0.524000000000000354,0.157834200299697802
0.525000000000000355,0.194556883658721536
0.526000000000000356,0.230627409822879853
0.527000000000000357,0.266049362518122723
0.528000000000000358,0.300826438472242108
0.529000000000000359,0.334962443403614585
0.530000000000000360,0.368461288070977555
0.531000000000000361,0.401326984384194674
0.532000000000000361,0.433563641576442116
0.533000000000000362,0.465175462437773191
0.534000000000000363,0.496166739610361951
0.535000000000000364,0.526541851945356520
0.536000000000000365,0.556305260921450051
0.537000000000000366,0.585461507125093594
0.538000000000000367,0.614015206792406287
0.539000000000000368,0.641971048412505851
0.540000000000000369,0.669333789392382972
0.541000000000000369,0.696108252782898118
0.542000000000000370,0.722299324065923343
0.543000000000000371,0.747911948002293547
0.544000000000000372,0.772951125540310535
0.545000000000000373,0.797421910784556376
0.546000000000000374,0.821329408024714325
0.547000000000000375,0.844678768824014603
0.548000000000000376,0.867475189166950100
0.549000000000000377,0.889723906665912168
0.550000000000000377,0.911430197826332722
0.551000000000000378,0.932599375369856931
0.552000000000000379,0.953236785615147797
0.553000000000000380,0.973347805915826592
0.554000000000000381,0.992937842155098727
0.555000000000000382,1.012012326296477971
0.556000000000000383,1.030576713990225546
0.557000000000000384,1.048636482234809320
0.558000000000000385,1.066197127092988861
0.559000000000000385,1.083264161461839459
0.560000000000000386,1.099843112896228270
0.561000000000000387,1.115939521485108887
0.562000000000000388,1.131558937780066776
0.563000000000000389,1.146706920775485639
0.564000000000000390,1.161389035939743408
0.565000000000000391,1.175610853296807479
0.566000000000000392,1.189377945557608562
0.567000000000000393,1.202695886300513717
0.568000000000000393,1.215570248200337655
0.569000000000000394,1.228006601305162926
0.570000000000000395,1.240010511360375434
0.571000000000000396,1.251587538179235626
0.572000000000000397,1.262743234059284347
0.573000000000000398,1.273483142244053123
0.574000000000000399,1.283812795429206899
0.575000000000000400,1.293737714312686027
0.576000000000000401,1.303263406187993301
0.577000000000000401,1.312395363580029173
0.578000000000000402,1.321139062922826124
0.579000000000000403,1.329499963278513164
0.580000000000000404,1.337483505096747738
0.581000000000000405,1.345095109014091239
0.582000000000000406,1.352340174692552299
0.583000000000000407,1.359224079696666809
0.584000000000000408,1.365752178408481843
0.585000000000000409,1.371929800979732939
0.586000000000000409,1.377762252320587244
0.587000000000000410,1.383254811124283057
0.588000000000000411,1.388412728927042483
0.589000000000000412,1.393241229202551779
0.590000000000000413,1.397745506490436940
0.591000000000000414,1.401930725558044433
0.592000000000000415,1.405802020594893564
0.593000000000000416,1.409364494439196758
0.594000000000000417,1.412623217835820899
0.595000000000000417,1.415583228724987208
0.596000000000000418,1.418249531561250443
0.597000000000000419,1.420627096661975619
0.598000000000000420,1.422720859584836850
0.599000000000000421,1.424535720533658179
0.600000000000000422,1.426076543792040852
0.601000000000000423,1.427348157184183286
0.602000000000000424,1.428355351562302644
0.603000000000000425,1.429102880320075819
0.604000000000000425,1.429595458931562257
0.605000000000000426,1.429837764515022869
0.606000000000000427,1.429834435421022176
0.607000000000000428,1.429590070844455774
0.608000000000000429,1.429109230459615576
0.609000000000000430,1.428396434078211152
0.610000000000000431,1.427456161329349937
0.611000000000000432,1.426292851361297576
0.612000000000000433,1.424910902564373583
0.613000000000000433,1.423314672314403229
0.614000000000000434,1.421508476736365933
0.615000000000000435,1.419496590487654419
