# CNT15-COOH-3_ASN-AC
# h[nm],U(h)[kJ/mol]
0.149999999999999994,161.002686457669426545
0.150999999999999995,158.252999367394920682
0.151999999999999996,155.874489183358122091
0.152999999999999997,153.604504968735568582
0.153999999999999998,151.339755560198398143
0.154999999999999999,149.054368149796630405
0.156000000000000000,146.754738679193593498
0.157000000000000001,144.456369180915288553
0.158000000000000002,142.173346170869962179
0.159000000000000002,139.914694620954236370
0.160000000000000003,137.684156207995954446
0.161000000000000004,135.481409459987787613
0.162000000000000005,133.303660658069503597
0.163000000000000006,131.147082776493817846
0.164000000000000007,129.007896208791663639
0.165000000000000008,126.883056448843007047
0.166000000000000009,124.770597236554820597
0.167000000000000010,122.669709670840433091
0.168000000000000010,120.580641634571946952
0.169000000000000011,118.504491821166354271
0.170000000000000012,116.442957133749999343
0.171000000000000013,114.398075961447858617
0.172000000000000014,112.371995223637554773
0.173000000000000015,110.366777117851370349
0.174000000000000016,108.384252417065184204
0.175000000000000017,106.425920721090079724
0.176000000000000018,104.492893866350101462
0.177000000000000018,102.585876274005769915
0.178000000000000019,100.705174922455455544
0.179000000000000020,98.850731476545121268
0.180000000000000021,97.022169571522326237
0.181000000000000022,95.218851083947271263
0.182000000000000023,93.439936237047987788
0.183000000000000024,91.684443451085556376
0.184000000000000025,89.951305870776010920
0.185000000000000026,88.239422426467712057
0.186000000000000026,86.547702083953012675
0.187000000000000027,84.875100598272993579
0.188000000000000028,83.220649611016852987
0.189000000000000029,81.583478327887760884
0.190000000000000030,79.962828297837091895
0.191000000000000031,78.358062003206583768
0.192000000000000032,76.768666078875369863
0.193000000000000033,75.194250023515763814
0.194000000000000034,73.634541262466285616
0.195000000000000034,72.089377382398907912
0.196000000000000035,70.558696293940670330
0.197000000000000036,69.042524998843177286
0.198000000000000037,67.540967550507147621
0.199000000000000038,66.054192706368297650
0.200000000000000039,64.582421682111743166
0.201000000000000040,63.125916333966834770
0.202000000000000041,61.684968018495297315
0.203000000000000042,60.259887310567002316
0.204000000000000042,58.850994700212041266
0.205000000000000043,57.458612337855413443
0.206000000000000044,56.083056854825464654
0.207000000000000045,54.724633251469434470
0.208000000000000046,53.383629818035522874
0.209000000000000047,52.060314032914412508
0.210000000000000048,50.754929368061247885
0.211000000000000049,49.467692921624589530
0.212000000000000050,48.198793792197406560
0.213000000000000050,46.948392106946499780
0.214000000000000051,45.716618616478854165
0.215000000000000052,44.503574772070706445
0.216000000000000053,43.309333205272317002
0.217000000000000054,42.133938535449615870
0.218000000000000055,40.977408437137810893
0.219000000000000056,39.839734905835399559
0.220000000000000057,38.720885667786525630
0.221000000000000058,37.620805686180361249
0.222000000000000058,36.539418722860226296
0.223000000000000059,35.476628920968714453
0.224000000000000060,34.432322379861709294
0.225000000000000061,33.406368699048400117
0.226000000000000062,32.398622472820967744
0.227000000000000063,31.408924721613391995
0.228000000000000064,30.437104249976517423
0.229000000000000065,29.482978924388397957
0.230000000000000066,28.546356866965119536
0.231000000000000066,27.627037563521092522
0.232000000000000067,26.724812886392875555
0.233000000000000068,25.839468034018278075
0.234000000000000069,24.970782390497468839
0.235000000000000070,24.118530309290857616
0.236000000000000071,23.282481825871435888
0.237000000000000072,22.462403304579520835
0.238000000000000073,21.658058025164706351
0.239000000000000073,20.869206714573532935
0.240000000000000074,20.095608029478178480
0.241000000000000075,19.337018994874959787
0.242000000000000076,18.593195403828367773
0.243000000000000077,17.863892183121706125
0.244000000000000078,17.148863729216511587
0.245000000000000079,16.447864218534661518
0.246000000000000080,15.760647895675115038
0.247000000000000081,15.086969342768693281
0.248000000000000081,14.426583732773304192
0.249000000000000082,13.779247069122311231
0.250000000000000111,13.144716413767222107
0.251000000000000112,12.522750105307999036
0.252000000000000113,11.913107968580115781
0.253000000000000114,11.315551516774863927
0.254000000000000115,10.729844146901562851
0.255000000000000115,10.155751329165649821
0.256000000000000116,9.593040790628936776
0.257000000000000117,9.041482693339983001
0.258000000000000118,8.500849806972391676
0.259000000000000119,7.970917675883367970
0.260000000000000120,7.451464780404430499
0.261000000000000121,6.942272692098699238
0.262000000000000122,6.443126222661108571
0.263000000000000123,5.953813566099847243
0.264000000000000123,5.474126433814471504
0.265000000000000124,5.003860182179090899
0.266000000000000125,4.542813932243847219
0.267000000000000126,4.090790681184487632
0.268000000000000127,3.647597405154222372
0.269000000000000128,3.213045153225841943
0.270000000000000129,2.786949132150365660
0.271000000000000130,2.369128781701710373
0.272000000000000131,1.959407840424364666
0.273000000000000131,1.557614401649458857
0.274000000000000132,1.163580959695482475
0.275000000000000133,0.777144446220068286
0.276000000000000134,0.398146256739382920
0.277000000000000135,0.026432267381364571
0.278000000000000136,-0.338147158014660387
0.279000000000000137,-0.695737170293846630
0.280000000000000138,-1.046478446676279095
0.281000000000000139,-1.390507211502221452
0.282000000000000139,-1.727955265755204861
0.283000000000000140,-2.058950025053325472
0.284000000000000141,-2.383614565769041072
0.285000000000000142,-2.702067678911687754
0.286000000000000143,-3.014423931384020428
0.287000000000000144,-3.320793734204573688
0.288000000000000145,-3.621283417272242566
0.289000000000000146,-3.915995310235749649
0.290000000000000147,-4.205027829022354169
0.291000000000000147,-4.488475567572487890
0.292000000000000148,-4.766429394324506852
0.293000000000000149,-5.038976552991647040
0.294000000000000150,-5.306200767175871746
0.295000000000000151,-5.568182348366535805
0.296000000000000152,-5.824998306878251597
0.297000000000000153,-6.076722465290052888
0.298000000000000154,-6.323425573958082246
0.299000000000000155,-6.565175428185123785
0.300000000000000155,-6.802036986643305916
0.301000000000000156,-7.034072490659923460
0.302000000000000157,-7.261341583992049209
0.303000000000000158,-7.483901432730773351
0.304000000000000159,-7.701806844993218881
0.305000000000000160,-7.915110390077350289
0.306000000000000161,-8.123862516772490494
0.307000000000000162,-8.328111670536525679
0.308000000000000163,-8.527904409268874275
0.309000000000000163,-8.723285517426656810
0.310000000000000164,-8.914298118249938341
0.311000000000000165,-9.100983783879915023
0.312000000000000166,-9.283382643172057413
0.313000000000000167,-9.461533487023917388
0.314000000000000168,-9.635473871054614392
0.315000000000000169,-9.805240215490067968
0.316000000000000170,-9.970867902124725290
0.317000000000000171,-10.132391368246249641
0.318000000000000171,-10.289844197425248140
0.319000000000000172,-10.443259207087397300
0.320000000000000173,-10.592668532799004666
0.321000000000000174,-10.738103709211227255
0.322000000000000175,-10.879595747621090496
0.323000000000000176,-11.017175210119795281
0.324000000000000177,-11.150872280310707652
0.325000000000000178,-11.280716830590247213
0.326000000000000179,-11.406738485995751020
0.327000000000000179,-11.528966684633697781
0.328000000000000180,-11.647430734711111455
0.329000000000000181,-11.762159868201413460
0.330000000000000182,-11.873183291183600829
0.331000000000000183,-11.980530230901324629
0.332000000000000184,-12.084229979594541149
0.333000000000000185,-12.184311935162856599
0.334000000000000186,-12.280805638725031059
0.335000000000000187,-12.373740809143921382
0.336000000000000187,-12.463147374590942462
0.337000000000000188,-12.549055501227325493
0.338000000000000189,-12.631495619083700888
0.339000000000000190,-12.710498445221947605
0.340000000000000191,-12.786095004265678909
0.341000000000000192,-12.858316646388377791
0.342000000000000193,-12.927195062849298424
0.343000000000000194,-12.992762299169035245
0.344000000000000195,-13.055050766037007648
0.345000000000000195,-13.114093248044719431
0.346000000000000196,-13.169922910337851008
0.347000000000000197,-13.222573303281142998
0.348000000000000198,-13.272078365229319274
0.349000000000000199,-13.318472423496967139
0.350000000000000200,-13.361790193619592415
0.351000000000000201,-13.402066776997065389
0.352000000000000202,-13.439337657009499338
0.353000000000000203,-13.473638693694450552
0.354000000000000203,-13.505006117072834826
0.355000000000000204,-13.533476519208994304
0.356000000000000205,-13.559086845089160178
0.357000000000000206,-13.581874382400403789
0.358000000000000207,-13.601876750289951801
0.359000000000000208,-13.619131887183232976
0.360000000000000209,-13.633678037736506994
0.361000000000000210,-13.645553738997744375
0.362000000000000210,-13.654797805847413983
0.363000000000000211,-13.661449315788189551
0.364000000000000212,-13.665547593150682459
0.365000000000000213,-13.667132192779471112
0.366000000000000214,-13.666242883261769947
0.367000000000000215,-13.662919629758315310
0.368000000000000216,-13.657202576494034574
0.369000000000000217,-13.649132028963290253
0.370000000000000218,-13.638748435902538603
0.371000000000000218,-13.626092371080456900
0.372000000000000219,-13.611204514953609390
0.373000000000000220,-13.594125636233338028
0.374000000000000221,-13.574896573407150058
0.375000000000000222,-13.553558216255691349
0.376000000000000223,-13.530151487404458166
0.377000000000000224,-13.504717323946826113
0.378000000000000225,-13.477296659173173765
0.379000000000000226,-13.447930404438608321
0.380000000000000226,-13.416659431200162800
0.381000000000000227,-13.383524553251636036
0.382000000000000228,-13.348566509183347861
0.383000000000000229,-13.311825945091291246
0.384000000000000230,-13.273343397558841517
0.385000000000000231,-13.233159276932534354
0.386000000000000232,-13.191313850911331684
0.387000000000000233,-13.147847228467526293
0.388000000000000234,-13.102799344115656055
0.389000000000000234,-13.056209942544455771
0.390000000000000235,-13.008118563625197694
0.391000000000000236,-12.958564527808581701
0.392000000000000237,-12.907586921920858103
0.393000000000000238,-12.855224585368642209
0.394000000000000239,-12.801516096760590102
0.395000000000000240,-12.746499760953000191
0.396000000000000241,-12.690213596525248718
0.397000000000000242,-12.632695323689778988
0.398000000000000242,-12.573982352640657112
0.399000000000000243,-12.514111772343287754
0.400000000000000244,-12.453120339767368208
0.401000000000000245,-12.391044469564155506
0.402000000000000246,-12.327920224188105180
0.403000000000000247,-12.263783304462439361
0.404000000000000248,-12.198669040587374113
0.405000000000000249,-12.132612383589000515
0.406000000000000250,-12.065647897206121186
0.407000000000000250,-11.997809750211974489
0.408000000000000251,-11.929131709166881592
0.409000000000000252,-11.859647131597629510
0.410000000000000253,-11.789388959598699813
0.411000000000000254,-11.718389713850132949
0.412000000000000255,-11.646681488046244368
0.413000000000000256,-11.574295943729328684
0.414000000000000257,-11.501264305521640807
0.415000000000000258,-11.427617356749172117
0.416000000000000258,-11.353385435450018548
0.417000000000000259,-11.278598430760100157
0.418000000000000260,-11.203285779668673783
0.419000000000000261,-11.127476464135876100
0.420000000000000262,-11.051199008564339010
0.421000000000000263,-10.974481477616858882
0.422000000000000264,-10.897351474371685498
0.423000000000000265,-10.819836138807227499
0.424000000000000266,-10.741962146607693995
0.425000000000000266,-10.663755708280952206
0.426000000000000267,-10.585242568580207845
0.427000000000000268,-10.506448006220701075
0.428000000000000269,-10.427396833882720983
0.429000000000000270,-10.348113398492422732
0.430000000000000271,-10.268621581771432361
0.431000000000000272,-10.188944801046861954
0.432000000000000273,-10.109106010312846280
0.433000000000000274,-10.029127701535177408
0.434000000000000274,-9.949031906190207053
0.435000000000000275,-9.868840197029808081
0.436000000000000276,-9.788573690063751442
0.437000000000000277,-9.708253046751149640
0.438000000000000278,-9.627898476392820371
0.439000000000000279,-9.547529738716303171
0.440000000000000280,-9.467166146645448421
0.441000000000000281,-9.386826569246622398
0.442000000000000282,-9.306529434843810122
0.443000000000000282,-9.226292734294670339
0.444000000000000283,-9.146134024420117470
0.445000000000000284,-9.066070431579955624
0.446000000000000285,-8.986118655387018705
0.447000000000000286,-8.906294972553039813
0.448000000000000287,-8.826615240858702194
0.449000000000000288,-8.747094903241388053
0.450000000000000289,-8.667748991993581953
0.451000000000000290,-8.588592133065453993
0.452000000000000290,-8.509638550465133733
0.453000000000000291,-8.430902070750319055
0.454000000000000292,-8.352396127605146603
0.455000000000000293,-8.274133766496195364
0.456000000000000294,-8.196127649401891091
0.457000000000000295,-8.118390059609570386
0.458000000000000296,-8.040932906574582262
0.459000000000000297,-7.963767730836190495
0.460000000000000298,-7.886905708984860652
0.461000000000000298,-7.810357658676011283
0.462000000000000299,-7.734134043685179094
0.463000000000000300,-7.658244978999820596
0.464000000000000301,-7.582700235943178768
0.465000000000000302,-7.507509247325721446
0.466000000000000303,-7.432681112619670571
0.467000000000000304,-7.358224603152613952
0.468000000000000305,-7.284148167316051747
0.469000000000000306,-7.210459935784882646
0.470000000000000306,-7.137167726744311658
0.471000000000000307,-7.064279051120135655
0.472000000000000308,-6.991801117809356647
0.473000000000000309,-6.919740838907384450
0.474000000000000310,-6.848104834928795626
0.475000000000000311,-6.776899440018411269
0.476000000000000312,-6.706130707149879910
0.477000000000000313,-6.635804413308673766
0.478000000000000314,-6.565926064656885330
0.479000000000000314,-6.496500901677277007
0.480000000000000315,-6.427533904293828648
0.481000000000000316,-6.359029796966683357
0.482000000000000317,-6.290993053758967335
0.483000000000000318,-6.223427903373436543
0.484000000000000319,-6.156338334156815861
0.485000000000000320,-6.089728099069945166
0.486000000000000321,-6.023600720621756111
0.487000000000000322,-5.957959495765419611
0.488000000000000322,-5.892807500754826400
0.489000000000000323,-5.828147595960091465
0.490000000000000324,-5.763982430640288257
0.491000000000000325,-5.700314447672276685
0.492000000000000326,-5.637145888234041280
0.493000000000000327,-5.574478796441598938
0.494000000000000328,-5.512315023938077374
0.495000000000000329,-5.450656234434054781
0.496000000000000330,-5.389503908198028270
0.497000000000000330,-5.328859346496261473
0.498000000000000331,-5.268723675980909960
0.499000000000000332,-5.209097853025924429
0.500000000000000333,-5.149982668009833731
0.501000000000000334,-5.091378749544728244
0.502000000000000335,-5.033286568651007542
0.503000000000000336,-4.975706442877259938
0.504000000000000337,-4.918638540364791645
0.505000000000000338,-4.862082883856448490
0.506000000000000338,-4.806039354649349171
0.507000000000000339,-4.750507696491186316
0.508000000000000340,-4.695487519419843991
0.509000000000000341,-4.640978303546244632
0.510000000000000342,-4.586979402780042570
0.511000000000000343,-4.533490048498231673
0.512000000000000344,-4.480509353156492125
0.513000000000000345,-4.428036313843271898
0.514000000000000346,-4.376069815776649108
0.515000000000000346,-4.324608635743912188
0.516000000000000347,-4.273651445484025757
0.517000000000000348,-4.223196815013128713
0.518000000000000349,-4.173243215893033486
0.519000000000000350,-4.123789024443142104
0.520000000000000351,-4.074832524895771968
0.521000000000000352,-4.026371912495318561
0.522000000000000353,-3.978405296541353664
0.523000000000000353,-3.930930703376020574
0.524000000000000354,-3.883946079316126454
0.525000000000000355,-3.837449293530075689
0.526000000000000356,-3.791438140860177164
0.527000000000000357,-3.745910344590670515
0.528000000000000358,-3.700863559161740479
0.529000000000000359,-3.656295372830202783
0.530000000000000360,-3.612203310276979273
0.531000000000000361,-3.568584835162112334
0.532000000000000361,-3.525437352627564191
0.533000000000000362,-3.482758211748444577
0.534000000000000363,-3.440544707933049118
0.535000000000000364,-3.398794085272296428
0.536000000000000365,-3.357503538839039514
0.537000000000000366,-3.316670216937835480
0.538000000000000367,-3.276291223305612732
0.539000000000000368,-3.236363619263977309
0.540000000000000369,-3.196884425823460329
0.541000000000000369,-3.157850625740558748
0.542000000000000370,-3.119259165527899835
0.543000000000000371,-3.081106957418256798
0.544000000000000372,-3.043390881282971527
0.545000000000000373,-3.006107786505372914
0.546000000000000374,-2.969254493809747153
0.547000000000000375,-2.932827797046516416
0.548000000000000376,-2.896824464934247167
0.549000000000000377,-2.861241242759032133
0.550000000000000377,-2.826074854031856098
0.551000000000000378,-2.791322002104636546
0.552000000000000379,-2.756979371745472918
0.553000000000000380,-2.723043630673747550
0.554000000000000381,-2.689511431055664925
0.555000000000000382,-2.656379410960932219
0.556000000000000383,-2.623644195781023036
0.557000000000000384,-2.591302399609843210
0.558000000000000385,-2.559350626587225896
0.559000000000000385,-2.527785472205984263
0.560000000000000386,-2.496603524583070222
0.561000000000000387,-2.465801365695471592
0.562000000000000388,-2.435375572581415682
0.563000000000000389,-2.405322718507522328
0.564000000000000390,-2.375639374102465951
0.565000000000000391,-2.346322108457751021
0.566000000000000392,-2.317367490196178714
0.567000000000000393,-2.288772088508640223
0.568000000000000393,-2.260532474159721250
0.569000000000000394,-2.232645220462767810
0.570000000000000395,-2.205106904225000441
0.571000000000000396,-2.177914106663132010
0.572000000000000397,-2.151063414290213416
0.573000000000000398,-2.124551419774090455
0.574000000000000399,-2.098374722768193923
0.575000000000000400,-2.072529930715046653
0.576000000000000401,-2.047013659623138526
0.577000000000000401,-2.021822534817702355
0.578000000000000402,-1.996953191665833405
0.579000000000000403,-1.972402276276544297
0.580000000000000404,-1.948166446176301747
0.581000000000000405,-1.924242370960457027
0.582000000000000406,-1.900626732921174789
0.583000000000000407,-1.877316227652292557
0.584000000000000408,-1.854307564631645366
0.585000000000000409,-1.831597467781323374
0.586000000000000409,-1.809182676006331647
0.587000000000000410,-1.787059943712175025
0.588000000000000411,-1.765226041301758642
0.589000000000000412,-1.743677755652161654
0.590000000000000413,-1.722411890571637016
0.591000000000000414,-1.701425267237363981
0.592000000000000415,-1.680714724614380540
0.593000000000000416,-1.660277119856088390
0.594000000000000417,-1.640109328686789825
0.595000000000000417,-1.620208245766764588
0.596000000000000418,-1.600570785040067223
0.597000000000000419,-1.581193880065775437
0.598000000000000420,-1.562074484332793167
0.599000000000000421,-1.543209571558820326
0.600000000000000422,-1.524596135973763200
0.601000000000000423,-1.506231192588014745
0.602000000000000424,-1.488111777445977113
0.603000000000000425,-1.470234947865192598
0.604000000000000425,-1.452597782661452230
0.605000000000000426,-1.435197382360228868
0.606000000000000427,-1.418030869394869997
0.607000000000000428,-1.401095388291672794
0.608000000000000429,-1.384388105842561556
0.609000000000000430,-1.367906211265243588
0.610000000000000431,-1.351646916351608940
