# CNT15-COOH-3_ACYLSYRINGYL-AC
# h[nm],U(h)[kJ/mol]
0.149999999999999994,147.578962815351644622
0.150999999999999995,145.581505495692340446
0.151999999999999996,143.069920350714312463
0.152999999999999997,140.529186448133430076
0.153999999999999998,138.115968886066383448
0.154999999999999999,135.839390065833612198
0.156000000000000000,133.656759186018121000
0.157000000000000001,131.519672004027995627
0.158000000000000002,129.392485035854207354
0.159000000000000002,127.256473431174555344
0.160000000000000003,125.107436599519886045
0.161000000000000004,122.951052624216160325
0.162000000000000005,120.798177796353954250
0.163000000000000006,118.661054826094826353
0.164000000000000007,116.550708935617834072
0.165000000000000008,114.475462609035957939
0.166000000000000009,112.440349808363293960
0.167000000000000010,110.447171733833698681
0.168000000000000010,108.494954726752354190
0.169000000000000011,106.580614387449912783
0.170000000000000012,104.699680015286801904
0.171000000000000013,102.846980386102245575
0.172000000000000014,101.017231268995772098
0.173000000000000015,99.205495627891210120
0.174000000000000016,97.407509502351643960
0.175000000000000017,95.619881266134910902
0.176000000000000018,93.840180755532813350
0.177000000000000018,92.066939072386929865
0.178000000000000019,90.299580976272935118
0.179000000000000020,88.538310750748976830
0.180000000000000021,86.783970099618699123
0.181000000000000022,85.037883632569176484
0.182000000000000023,83.301704287661181070
0.183000000000000024,81.577267916650811230
0.184000000000000025,79.866463418854550582
0.185000000000000026,78.171122354703967972
0.186000000000000026,76.492929943415703065
0.187000000000000027,74.833357749648939716
0.188000000000000028,73.193617163350353394
0.189000000000000029,71.574631930832367743
0.190000000000000030,69.977027451422500803
0.191000000000000031,68.401134258851783443
0.192000000000000032,66.847003008101324895
0.193000000000000033,65.314428339326696005
0.194000000000000034,63.802979149166063166
0.195000000000000034,62.312033030912594711
0.196000000000000035,60.840812919676167780
0.197000000000000036,59.388424273650301188
0.198000000000000037,57.953891420132165990
0.199000000000000038,56.536191981858038957
0.200000000000000039,55.134288566296206113
0.201000000000000040,53.747157141807193170
0.202000000000000041,52.373811736684729112
0.203000000000000042,51.013325278704400034
0.204000000000000042,49.664846544152361218
0.205000000000000043,48.327613307720440616
0.206000000000000044,47.000961880237326795
0.207000000000000045,45.684333292543769289
0.208000000000000046,44.377276433754133222
0.209000000000000047,43.079448483598376640
0.210000000000000048,41.790612994388929735
0.211000000000000049,40.510635981144389461
0.212000000000000050,39.239480371063066855
0.213000000000000050,37.977199148179622057
0.214000000000000051,36.723927507689296590
0.215000000000000052,35.479874308871131916
0.216000000000000053,34.245313087293517640
0.217000000000000054,33.020572857318178706
0.218000000000000055,31.806028905869091261
0.219000000000000056,30.602093748841316057
0.220000000000000057,29.409208393029235395
0.221000000000000058,28.227834019555906764
0.222000000000000058,27.058444179812301655
0.223000000000000059,25.901517572112219057
0.224000000000000060,24.757531446750050463
0.225000000000000061,23.626955668967706714
0.226000000000000062,22.510247453473532175
0.227000000000000063,21.407846770540150061
0.228000000000000064,20.320172412234210668
0.229000000000000065,19.247618697859369519
0.230000000000000066,18.190552790076917944
0.231000000000000066,17.149312587233090710
0.232000000000000067,16.124205153004943725
0.233000000000000068,15.115505641401721704
0.234000000000000069,14.123456673261506111
0.235000000000000070,13.148268119502574791
0.236000000000000071,12.190117246374546411
0.237000000000000072,11.249149178661619786
0.238000000000000073,10.325477638093428112
0.239000000000000073,9.419185915998408376
0.240000000000000074,8.530328041379462434
0.241000000000000075,7.658930108016268612
0.242000000000000076,6.804991726811816299
0.243000000000000077,5.968487572333879498
0.244000000000000078,5.149368995294011597
0.245000000000000079,4.347565675501944504
0.246000000000000080,3.562987292592404653
0.247000000000000081,2.795525194502870736
0.248000000000000081,2.045054046262470226
0.249000000000000082,1.311433444107122259
0.250000000000000111,0.594509482249208410
0.251000000000000112,-0.105883738209329087
0.252000000000000113,-0.789922666734177215
0.253000000000000114,-1.457792933862992468
0.254000000000000115,-2.109688059767680812
0.255000000000000115,-2.745808244378330265
0.256000000000000116,-3.366359241228472854
0.257000000000000117,-3.971551315990323072
0.258000000000000118,-4.561598289624394731
0.259000000000000119,-5.136716665164623663
0.260000000000000120,-5.697124836387415847
0.261000000000000121,-6.243042375961334933
0.262000000000000122,-6.774689400137205553
0.263000000000000123,-7.292286006602658688
0.264000000000000123,-7.796051781785787504
0.265000000000000124,-8.286205373636480687
0.266000000000000125,-8.762964125735479115
0.267000000000000126,-9.226543768469522178
0.268000000000000127,-9.677158162960454391
0.269000000000000128,-10.115019093435922315
0.270000000000000129,-10.540336103775938881
0.271000000000000130,-10.953316374054047344
0.272000000000000131,-11.354164633008251073
0.273000000000000131,-11.743083102520939676
0.274000000000000132,-12.120271470351916321
0.275000000000000133,-12.485926887551261899
0.276000000000000134,-12.840243987174208229
0.277000000000000135,-13.183414921123610242
0.278000000000000136,-13.515629412157164069
0.279000000000000137,-13.837074818308787272
0.280000000000000138,-14.147936207187370883
0.281000000000000139,-14.448396437828453287
0.282000000000000139,-14.738636247981906635
0.283000000000000140,-15.018834344922513679
0.284000000000000141,-15.289167498066229101
0.285000000000000142,-15.549810631864483312
0.286000000000000143,-15.800936917629119449
0.287000000000000144,-16.042717863112017085
0.288000000000000145,-16.275323398826166965
0.289000000000000146,-16.498921960246040186
0.290000000000000147,-16.713680565168267833
0.291000000000000147,-16.919764885645108166
0.292000000000000148,-17.117339314025581842
0.293000000000000149,-17.306567022751028873
0.294000000000000150,-17.487610017654422023
0.295000000000000151,-17.660629184605848963
0.296000000000000152,-17.825784329430376829
0.297000000000000153,-17.983234211099620836
0.298000000000000154,-18.133136568265413757
0.299000000000000155,-18.275648139262507641
0.300000000000000155,-18.410924675758899127
0.301000000000000156,-18.539120950276366528
0.302000000000000157,-18.660390757841980758
0.303000000000000158,-18.774886912062267896
0.304000000000000159,-18.882761235938325228
0.305000000000000160,-18.984164547759775132
0.306000000000000161,-19.079246642432256209
0.307000000000000162,-19.168156268603606662
0.308000000000000163,-19.251041101961565261
0.309000000000000163,-19.328047715079367919
0.310000000000000164,-19.399321544186147293
0.311000000000000165,-19.465006853236211271
0.312000000000000166,-19.525246695646529815
0.313000000000000167,-19.580182874064185228
0.314000000000000168,-19.629955898516108448
0.315000000000000169,-19.674704943282641523
0.316000000000000170,-19.714567802823907527
0.317000000000000171,-19.749680847074060352
0.318000000000000171,-19.780178976404080515
0.319000000000000172,-19.806195576538403458
0.320000000000000173,-19.827862473694306544
0.321000000000000174,-19.845309890196777047
0.322000000000000175,-19.858666400804754204
0.323000000000000176,-19.868058889967862513
0.324000000000000177,-19.873612510215700411
0.325000000000000178,-19.875450641864922829
0.326000000000000179,-19.873694854213308503
0.327000000000000179,-19.868464868372761600
0.328000000000000180,-19.859878521877952551
0.329000000000000181,-19.848051735191891254
0.330000000000000182,-19.833098480213600112
0.331000000000000183,-19.815130750880122434
0.332000000000000184,-19.794258535939626142
0.333000000000000185,-19.770589793959931768
0.334000000000000186,-19.744230430623719741
0.335000000000000187,-19.715284278349372471
0.336000000000000187,-19.683853078265457270
0.337000000000000188,-19.650036464555178384
0.338000000000000189,-19.613931951177860924
0.339000000000000190,-19.575634920964510854
0.340000000000000191,-19.535238617075368239
0.341000000000000192,-19.492834136800020417
0.342000000000000193,-19.448510427671926948
0.343000000000000194,-19.402354285863303573
0.344000000000000195,-19.354450356818851731
0.345000000000000195,-19.304881138082116365
0.346000000000000196,-19.253726984261980704
0.347000000000000197,-19.201066114082895098
0.348000000000000198,-19.146974619457768796
0.349000000000000199,-19.091526476519000255
0.350000000000000200,-19.034793558539938374
0.351000000000000201,-18.976845650676125388
0.352000000000000202,-18.917750466453529867
0.353000000000000203,-18.857573665929063367
0.354000000000000203,-18.796378875447139478
0.355000000000000204,-18.734227708914652055
0.356000000000000205,-18.671179790516369223
0.357000000000000206,-18.607292778791997279
0.358000000000000207,-18.542622391995664088
0.359000000000000208,-18.477222434659374528
0.360000000000000209,-18.411144825281596127
0.361000000000000210,-18.344439625063174049
0.362000000000000210,-18.277155067613200856
0.363000000000000211,-18.209337589548830749
0.364000000000000212,-18.141031861913816670
0.365000000000000213,-18.072280822342097650
0.366000000000000214,-18.003125707894135132
0.367000000000000215,-17.933606088495231745
0.368000000000000216,-17.863759900907094647
0.369000000000000217,-17.793623483165141863
0.370000000000000218,-17.723231609416590260
0.371000000000000218,-17.652617525095820383
0.372000000000000219,-17.581812982375858212
0.373000000000000220,-17.510848275836835342
0.374000000000000221,-17.439752278294353260
0.375000000000000222,-17.368552476732787682
0.376000000000000223,-17.297275008291133958
0.377000000000000224,-17.225944696250607535
0.378000000000000225,-17.154585085975902814
0.379000000000000226,-17.083218480764024605
0.380000000000000226,-17.011865977556880125
0.381000000000000227,-16.940547502475727271
0.382000000000000228,-16.869281846138378000
0.383000000000000229,-16.798086698721444776
0.384000000000000230,-16.726978684732497271
0.385000000000000231,-16.655973397459057139
0.386000000000000232,-16.585085433063216698
0.387000000000000233,-16.514328424292781250
0.388000000000000234,-16.443715073781767444
0.389000000000000234,-16.373257186915132877
0.390000000000000235,-16.302965704234175348
0.391000000000000236,-16.232850733361285478
0.392000000000000237,-16.162921580424004731
0.393000000000000238,-16.093186780960575533
0.394000000000000239,-16.023654130290374553
0.395000000000000240,-15.954330713334522684
0.396000000000000241,-15.885222933873404116
0.397000000000000242,-15.816336543229208900
0.398000000000000242,-15.747676668363405739
0.399000000000000243,-15.679247839379931051
0.400000000000000244,-15.611054016426587410
0.401000000000000245,-15.543098615988380828
0.402000000000000246,-15.475384536567435845
0.403000000000000247,-15.407914183745692327
0.404000000000000248,-15.340689494627358869
0.405000000000000249,-15.273711961659429903
0.406000000000000250,-15.206982655829278883
0.407000000000000250,-15.140502249239549570
0.408000000000000251,-15.074271037061279799
0.409000000000000252,-15.008288958867201046
0.410000000000000253,-14.942555619347729134
0.411000000000000254,-14.877070308413220090
0.412000000000000255,-14.811832020686413358
0.413000000000000256,-14.746839474390052160
0.414000000000000257,-14.682091129634823545
0.415000000000000258,-14.617585206113812291
0.416000000000000258,-14.553319700209820908
0.417000000000000259,-14.489292401522599008
0.418000000000000260,-14.425500908823462254
0.419000000000000261,-14.361942645445143540
0.420000000000000262,-14.298614874115111562
0.421000000000000263,-14.235514711241133767
0.422000000000000264,-14.172639140657732781
0.423000000000000265,-14.109985026842982947
0.424000000000000266,-14.047549127615178932
0.425000000000000266,-13.985328106318769770
0.426000000000000267,-13.923318543509855871
0.427000000000000268,-13.861516948151043849
0.428000000000000269,-13.799919768326068592
0.429000000000000270,-13.738523401484471265
0.430000000000000271,-13.677324204226811943
0.431000000000000272,-13.616318501641007543
0.432000000000000273,-13.555502596200335930
0.433000000000000274,-13.494872776233895806
0.434000000000000274,-13.434425323979983347
0.435000000000000275,-13.374156523233327931
0.436000000000000276,-13.314062666596722551
0.437000000000000277,-13.254140062347667950
0.438000000000000278,-13.194385040930757924
0.439000000000000279,-13.134793961086353775
0.440000000000000280,-13.075363215625946722
0.441000000000000281,-13.016089236864711864
0.442000000000000282,-12.956968501721661369
0.443000000000000282,-12.897997536497395998
0.444000000000000283,-12.839172921339942590
0.445000000000000284,-12.780491294408296454
0.446000000000000285,-12.721949355743850774
0.447000000000000286,-12.663543870859424345
0.448000000000000287,-12.605271674055334330
0.449000000000000288,-12.547129671472237789
0.450000000000000289,-12.489114843889893791
0.451000000000000290,-12.431224249281076055
0.452000000000000290,-12.373455025129706186
0.453000000000000291,-12.315804390521948974
0.454000000000000292,-12.258269648019060938
0.455000000000000293,-12.200848185320417372
0.456000000000000294,-12.143537476725171587
0.457000000000000295,-12.086335084400610995
0.458000000000000296,-12.029238659465232075
0.459000000000000297,-11.972245942894458537
0.460000000000000298,-11.915354766256433194
0.461000000000000298,-11.858563052285564510
0.462000000000000299,-11.801868815300984750
0.463000000000000300,-11.745270161477021631
0.464000000000000301,-11.688765288972652101
0.465000000000000302,-11.632352487926700846
0.466000000000000303,-11.576030140325269002
0.467000000000000304,-11.519796719747832370
0.468000000000000305,-11.463650790998272555
0.469000000000000306,-11.407591009626738554
0.470000000000000306,-11.351616121348410360
0.471000000000000307,-11.295724961364609129
0.472000000000000308,-11.239916453592028844
0.473000000000000309,-11.184189609805246235
0.474000000000000310,-11.128543528697806053
0.475000000000000311,-11.072977394866871492
0.476000000000000312,-11.017490477726363807
0.477000000000000313,-10.962082130353154596
0.478000000000000314,-10.906751788271012771
0.479000000000000314,-10.851498968176667148
0.480000000000000315,-10.796323266612091629
0.481000000000000316,-10.741224358587361465
0.482000000000000317,-10.686201996157761229
0.483000000000000318,-10.631256006959151961
0.484000000000000319,-10.576386292705121761
0.485000000000000320,-10.521592827649595137
0.486000000000000321,-10.466875657018139378
0.487000000000000322,-10.412234895411334179
0.488000000000000322,-10.357670725183233174
0.489000000000000323,-10.303183394798143269
0.490000000000000324,-10.248773217168304583
0.491000000000000325,-10.194440567975473044
0.492000000000000326,-10.140185883978912074
0.493000000000000327,-10.086009661312445473
0.494000000000000328,-10.031912453772857674
0.495000000000000329,-9.977894871102064300
0.496000000000000330,-9.923957577265209551
0.497000000000000330,-9.870101288726827349
0.498000000000000331,-9.816326772726961636
0.499000000000000332,-9.762634845559377439
0.500000000000000333,-9.709026370853440113
0.501000000000000334,-9.655502257861508397
0.502000000000000335,-9.602063459753452435
0.503000000000000336,-9.548710971919854629
0.504000000000000337,-9.495445830285349942
0.505000000000000338,-9.442269109633432578
0.506000000000000338,-9.389181921944167897
0.507000000000000339,-9.336185414745884259
0.508000000000000340,-9.283280769482056272
0.509000000000000341,-9.230469199894603349
0.510000000000000342,-9.177751950424340777
0.511000000000000343,-9.125130294629787642
0.512000000000000344,-9.072605533625049290
0.513000000000000345,-9.020178994537698003
0.514000000000000346,-8.967852028987426394
0.515000000000000346,-8.915626011586025967
0.516000000000000347,-8.863502338459534613
0.517000000000000348,-8.811482425793089490
0.518000000000000349,-8.759567708398902752
0.519000000000000350,-8.707759638308095518
0.520000000000000351,-8.656059683386612136
0.521000000000000352,-8.604469325975799165
0.522000000000000353,-8.552990061557887103
0.523000000000000353,-8.501623397446696373
0.524000000000000354,-8.450370851504040104
0.525000000000000355,-8.399233950881733080
0.526000000000000356,-8.348214230789690049
0.527000000000000357,-8.297313233290232404
0.528000000000000358,-8.246532506118533945
0.529000000000000359,-8.195873601529658714
0.530000000000000360,-8.145338075171903114
0.531000000000000361,-8.094927484986794042
0.532000000000000361,-8.044643390135494343
0.533000000000000362,-7.994487349951834965
0.534000000000000363,-7.944460922921768642
0.535000000000000364,-7.894565665689261103
0.536000000000000365,-7.844803132088546072
0.537000000000000366,-7.795174872202609961
0.538000000000000367,-7.745682431447731275
0.539000000000000368,-7.696327349684122687
0.540000000000000369,-7.647111160352205950
0.541000000000000369,-7.598035389634698156
0.542000000000000370,-7.549101555643963124
0.543000000000000371,-7.500311167634694520
0.544000000000000372,-7.451665725241549687
0.545000000000000373,-7.403166717741567204
0.546000000000000374,-7.354815623341043995
0.547000000000000375,-7.306613908486683684
0.548000000000000376,-7.258563027200741757
0.549000000000000377,-7.210664420439826472
0.550000000000000377,-7.162919515477080168
0.551000000000000378,-7.115329725307461217
0.552000000000000379,-7.067896448075859261
0.553000000000000380,-7.020621066527598764
0.554000000000000381,-6.973504947481089289
0.555000000000000382,-6.926549441322409351
0.556000000000000383,-6.879755881521167460
0.557000000000000384,-6.833125584167683897
0.558000000000000385,-6.786659847530859047
0.559000000000000385,-6.740359951636523128
0.560000000000000386,-6.694227157865886291
0.561000000000000387,-6.648262708573717816
0.562000000000000388,-6.602467826725903599
0.563000000000000389,-6.556843715556065710
0.564000000000000390,-6.511391558240805288
0.565000000000000391,-6.466112517593269438
0.566000000000000392,-6.421007735774677094
0.567000000000000393,-6.376078334023421057
0.568000000000000393,-6.331325412401381136
0.569000000000000394,-6.286750049557072728
0.570000000000000395,-6.242353302505394552
0.571000000000000396,-6.198136206423369821
0.572000000000000397,-6.154099774461797345
0.573000000000000398,-6.110244997572235270
0.574000000000000399,-6.066572844349129134
0.575000000000000400,-6.023084260886569119
0.576000000000000401,-5.979780170649450888
0.577000000000000401,-5.936661474358702506
0.578000000000000402,-5.893729049890064076
0.579000000000000403,-5.850983752186249554
0.580000000000000404,-5.808426413182132819
0.581000000000000405,-5.766057841742474821
0.582000000000000406,-5.723878823612059463
0.583000000000000407,-5.681890121377706215
0.584000000000000408,-5.640092474442021775
0.585000000000000409,-5.598486599008425380
0.586000000000000409,-5.557073188077164438
0.587000000000000410,-5.515852911452073570
0.588000000000000411,-5.474826415757629405
0.589000000000000412,-5.433994324466160819
0.590000000000000413,-5.393357237934720771
0.591000000000000414,-5.352915733451483860
0.592000000000000415,-5.312670365291315200
0.593000000000000416,-5.272621664780141160
0.594000000000000417,-5.232770140367941636
0.595000000000000417,-5.193116277710118744
0.596000000000000418,-5.153660539756691250
0.597000000000000419,-5.114403366849487043
0.598000000000000420,-5.075345176826579596
0.599000000000000421,-5.036486365134101639
0.600000000000000422,-4.997827304944912008
0.601000000000000423,-4.959368347284007328
0.602000000000000424,-4.921109821160352560
0.603000000000000425,-4.883052033704921691
0.604000000000000425,-4.845195270314674119
0.605000000000000426,-4.807539794802243804
0.606000000000000427,-4.770085849551187529
0.607000000000000428,-4.732833655676300211
