# CNT15-COOH-3_OXIDOLAMBDA4SULFANE-AC
# h[nm],U(h)[kJ/mol]
0.149999999999999994,115.922565299696501029
0.150999999999999995,113.161065437077240858
0.151999999999999996,111.788110748206079847
0.152999999999999997,110.681571220885601292
0.153999999999999998,109.436354890834337539
0.154999999999999999,107.983078712314366499
0.156000000000000000,106.382450303547486214
0.157000000000000001,104.723035840736500290
0.158000000000000002,103.077322068627466933
0.159000000000000002,101.488655528293890029
0.160000000000000003,99.972932993293142090
0.161000000000000004,98.525988411227473307
0.162000000000000005,97.131939235120952958
0.163000000000000006,95.770303126632398971
0.164000000000000007,94.421128838604843736
0.165000000000000008,93.068132277201215175
0.166000000000000009,91.700168329745537221
0.167000000000000010,90.311477655366431350
0.168000000000000010,88.901134856576419452
0.169000000000000011,87.472056136807182725
0.170000000000000012,86.029838521402211882
0.171000000000000013,84.581619213518266065
0.172000000000000014,83.135072197998624688
0.173000000000000015,81.697603062796957829
0.174000000000000016,80.275762012083234254
0.175000000000000017,78.874867343124449803
0.176000000000000018,77.498814749040576544
0.177000000000000018,76.150039131320440333
0.178000000000000019,74.829592843675669656
0.179000000000000020,73.537305501105095118
0.180000000000000021,72.271994137735092067
0.181000000000000022,71.031697425999112738
0.182000000000000023,69.813913048300804576
0.183000000000000024,68.615822579658441782
0.184000000000000025,67.434493045649716692
0.185000000000000026,66.267048472042446861
0.186000000000000026,65.110808162313816183
0.187000000000000027,63.963391126174499846
0.188000000000000028,62.822788085440869565
0.189000000000000029,61.687403881166822828
0.190000000000000030,60.556073989450034389
0.191000000000000031,59.428059317289680052
0.192000000000000032,58.303023584791652922
0.193000000000000033,57.180997488087861313
0.194000000000000034,56.062333550252731129
0.195000000000000034,54.947655165596167137
0.196000000000000035,53.837802875145868597
0.197000000000000036,52.733780416595536167
0.198000000000000037,51.636702599844696238
0.199000000000000038,50.547746590756290175
0.200000000000000039,49.468107755389908675
0.201000000000000040,48.398960833674735227
0.202000000000000041,47.341426879817404938
0.203000000000000042,46.296546127880127131
0.204000000000000042,45.265256713591412563
0.205000000000000043,44.248379004498588074
0.206000000000000044,43.246605155798071962
0.207000000000000045,42.260493413686539554
0.208000000000000046,41.290466626654598770
0.209000000000000047,40.336814392572399868
0.210000000000000048,39.399698260660400706
0.211000000000000049,38.479159417796935827
0.212000000000000050,37.575128313801855029
0.213000000000000050,36.687435716548222331
0.214000000000000051,35.815824731665912850
0.215000000000000052,34.959963370383576375
0.216000000000000053,34.119457300339952610
0.217000000000000054,33.293862466047627890
0.218000000000000055,32.482697316575652735
0.219000000000000056,31.685454426746751722
0.220000000000000057,30.901611343839114454
0.221000000000000058,30.130640533838658257
0.222000000000000058,29.372018339308322510
0.223000000000000059,28.625232894734484290
0.224000000000000060,27.889790974721051953
0.225000000000000061,27.165223775701669240
0.226000000000000062,26.451091653090752942
0.227000000000000063,25.746987853225380860
0.228000000000000064,25.052541293340816253
0.229000000000000065,24.367418453479352536
0.230000000000000066,23.691324451985000366
0.231000000000000066,23.024003381410793168
0.232000000000000067,22.365237984593029807
0.233000000000000068,21.714848751639777902
0.234000000000000069,21.072692517942158474
0.235000000000000070,20.438660641324798206
0.236000000000000071,19.812676833366253959
0.237000000000000072,19.194694715972993038
0.238000000000000073,18.584695169695088168
0.239000000000000073,17.982683535213073611
0.240000000000000074,17.388686724064701394
0.241000000000000075,16.802750289162236896
0.242000000000000076,16.224935500091547169
0.243000000000000077,15.655316462684803369
0.244000000000000078,15.093977317002515548
0.245000000000000079,14.541009542711535119
0.246000000000000080,13.996509395958153021
0.247000000000000081,13.460575497243857157
0.248000000000000081,12.933306585547736489
0.249000000000000082,12.414799450017536486
0.250000000000000111,11.905147046981966241
0.251000000000000112,11.404436806821740547
0.252000000000000113,10.912749132370800353
0.253000000000000114,10.430156087996724779
0.254000000000000115,9.956720276312875484
0.255000000000000115,9.492493897593787366
0.256000000000000116,9.037517985378361374
0.257000000000000117,8.591821810434096207
0.258000000000000118,8.155422444201086307
0.259000000000000119,7.728324472012434221
0.260000000000000120,7.310519845779964498
0.261000000000000121,6.901987865418621304
0.262000000000000122,6.502695278038589599
0.263000000000000123,6.112596483842568595
0.264000000000000123,5.731633837706680445
0.265000000000000124,5.359738035580075000
0.266000000000000125,4.996828575093380742
0.267000000000000126,4.642814280104141211
0.268000000000000127,4.297593879313302168
0.269000000000000128,3.961056629548937558
0.270000000000000129,3.633082974817694488
0.271000000000000130,3.313545232761205828
0.272000000000000131,3.002308300714308320
0.273000000000000131,2.699230374134736987
0.274000000000000132,2.404163670753306725
0.275000000000000133,2.116955154372010206
0.276000000000000134,1.837447252809496945
0.277000000000000135,1.565478565054822635
0.278000000000000136,1.300884553234955998
0.279000000000000137,1.043498215528371631
0.280000000000000138,0.793150736661910050
0.281000000000000139,0.549672113108323757
0.282000000000000139,0.312891750557593273
0.283000000000000140,0.082639031663088544
0.284000000000000141,-0.141256147535382542
0.285000000000000142,-0.358962873736979104
0.286000000000000143,-0.570648745934336010
0.287000000000000144,-0.776479438960793078
0.288000000000000145,-0.976618301305236081
0.289000000000000146,-1.171225987206010677
0.290000000000000147,-1.360460122799828309
0.291000000000000147,-1.544475005889329067
0.292000000000000148,-1.723421338706252914
0.293000000000000149,-1.897445992882021759
0.294000000000000150,-2.066691805695181738
0.295000000000000151,-2.231297406542503303
0.296000000000000152,-2.391397072477440044
0.297000000000000153,-2.547120611574253957
0.298000000000000154,-2.698593272807578547
0.299000000000000155,-2.845935681083751501
0.300000000000000155,-2.989263796021180308
0.301000000000000156,-3.128688893050596942
0.302000000000000157,-3.264317565391853471
0.303000000000000158,-3.396251745459684113
0.304000000000000159,-3.524588744256887285
0.305000000000000160,-3.649421307327307851
0.306000000000000161,-3.770837685862955535
0.307000000000000162,-3.888921721587959013
0.308000000000000163,-4.003752944076085285
0.309000000000000163,-4.115406679197740836
0.310000000000000164,-4.223954167435747920
0.311000000000000165,-4.329462690855750751
0.312000000000000166,-4.431995707566983356
0.313000000000000167,-4.531612992560869024
0.314000000000000168,-4.628370783868466454
0.315000000000000169,-4.722321933032651131
0.316000000000000170,-4.813516058946476939
0.317000000000000171,-4.901999704164821559
0.318000000000000171,-4.987816492852441108
0.319000000000000172,-5.071007289587031508
0.320000000000000173,-5.151610358290655611
0.321000000000000174,-5.229661520616727621
0.322000000000000175,-5.305194313172874487
0.323000000000000176,-5.378240143011121077
0.324000000000000177,-5.448828440867128364
0.325000000000000178,-5.516986811678341596
0.326000000000000179,-5.582741181957975307
0.327000000000000179,-5.646115943646095481
0.328000000000000180,-5.707134094102380928
0.329000000000000181,-5.765817371946109660
0.330000000000000182,-5.822186388487623709
0.331000000000000183,-5.876260754533054964
0.332000000000000184,-5.928059202378618053
0.333000000000000185,-5.977599702844038632
0.334000000000000186,-6.024899577225705016
0.335000000000000187,-6.069975604078985398
0.336000000000000187,-6.112844120766621536
0.337000000000000188,-6.153521119734795874
0.338000000000000189,-6.192022339502465833
0.339000000000000190,-6.228363350370733187
0.340000000000000191,-6.262559634878920534
0.341000000000000192,-6.294626663052393489
0.342000000000000193,-6.324579962503509734
0.343000000000000194,-6.352435183462316282
0.344000000000000195,-6.378208158826775609
0.345000000000000195,-6.401914959335004873
0.346000000000000196,-6.423571943972095077
0.347000000000000197,-6.443195805734144521
0.348000000000000198,-6.460803612880108737
0.349000000000000199,-6.476412845809207397
0.350000000000000200,-6.490041429707939180
0.351000000000000201,-6.501707763115476268
0.352000000000000202,-6.511430742560504470
0.353000000000000203,-6.519229783425794622
0.354000000000000203,-6.525124837199150818
0.355000000000000204,-6.529136405270882904
0.356000000000000205,-6.531285549439104443
0.357000000000000206,-6.531593899284352744
0.358000000000000207,-6.530083656574430684
0.359000000000000208,-6.526777596859946406
0.360000000000000209,-6.521699068419295031
0.361000000000000210,-6.514871988710071449
0.362000000000000210,-6.506320838481731705
0.363000000000000211,-6.496070653701629283
0.364000000000000212,-6.484147015443650908
0.365000000000000213,-6.470576037885345855
0.366000000000000214,-6.455384354556120918
0.367000000000000215,-6.438599102975115507
0.368000000000000216,-6.420247907813761756
0.369000000000000217,-6.400358862713607877
0.370000000000000218,-6.378960510886203750
0.371000000000000218,-6.356081824617011655
0.372000000000000219,-6.331752183791438782
0.373000000000000220,-6.306001353556249356
0.374000000000000221,-6.278859461225291483
0.375000000000000222,-6.250356972533760214
0.376000000000000223,-6.220524667340998626
0.377000000000000224,-6.189393614876989247
0.378000000000000225,-6.156995148623311209
0.379000000000000226,-6.123360840914886083
0.380000000000000226,-6.088522477344498363
0.381000000000000227,-6.052512031047395880
0.382000000000000228,-6.015361636939445589
0.383000000000000229,-5.977103565977736288
0.384000000000000230,-5.937770199508465296
0.385000000000000231,-5.897394003763174908
0.386000000000000232,-5.856007504560020394
0.387000000000000233,-5.813643262263340716
0.388000000000000234,-5.770333847050719278
0.389000000000000234,-5.726111814533433986
0.390000000000000235,-5.681009681772381192
0.391000000000000236,-5.635059903728417474
0.392000000000000237,-5.588294850182601081
0.393000000000000238,-5.540746783158832400
0.394000000000000239,-5.492447834878142920
0.395000000000000240,-5.443429986271221210
0.396000000000000241,-5.393725046072768592
0.397000000000000242,-5.343364630518612657
0.398000000000000242,-5.292380143664139780
0.399000000000000243,-5.240802758339868639
0.400000000000000244,-5.188663397757849793
0.401000000000000245,-5.135992717780426986
0.402000000000000246,-5.082821089860486197
0.403000000000000247,-5.029178584660650486
0.404000000000000248,-4.975094956356809206
0.405000000000000249,-4.920599627629650641
0.406000000000000250,-4.865721675346103225
0.407000000000000250,-4.810489816931129425
0.408000000000000251,-4.754932397428737190
0.409000000000000252,-4.699077377249694543
0.410000000000000253,-4.642952320602178773
0.411000000000000254,-4.586584384600309150
0.412000000000000255,-4.530000309044440954
0.413000000000000256,-4.473226406866035454
0.414000000000000257,-4.416288555228883084
0.415000000000000258,-4.359212187277748285
0.416000000000000258,-4.302022284524423590
0.417000000000000259,-4.244743369860705329
0.418000000000000260,-4.187399501186919615
0.419000000000000261,-4.130014265644094351
0.420000000000000262,-4.072610774437342762
0.421000000000000263,-4.015211658237482162
0.422000000000000264,-3.957839063147494674
0.423000000000000265,-3.900514647219980979
0.424000000000000266,-3.843259577511676461
0.425000000000000266,-3.786094527660366360
0.426000000000000267,-3.729039675969802126
0.427000000000000268,-3.672114703987608753
0.428000000000000269,-3.615338795561258589
0.429000000000000270,-3.558730636357070320
0.430000000000000271,-3.502308413826857869
0.431000000000000272,-3.446089817607204342
0.432000000000000273,-3.390092040335940027
0.433000000000000274,-3.334331778870743612
0.434000000000000274,-3.278825235894506473
0.435000000000000275,-3.223588121892501768
0.436000000000000276,-3.168635657486268631
0.437000000000000277,-3.113982576109259881
0.438000000000000278,-3.059643127009576524
0.439000000000000279,-3.005631078565155434
0.440000000000000280,-2.951959721896923128
0.441000000000000281,-2.898641874765747417
0.442000000000000282,-2.845689885739176361
0.443000000000000282,-2.793115638614030338
0.444000000000000283,-2.740930557081445507
0.445000000000000284,-2.689145609620931854
0.446000000000000285,-2.637771314610326989
0.447000000000000286,-2.586817745639045540
0.448000000000000287,-2.536294537011799299
0.449000000000000288,-2.486210889430806148
0.450000000000000289,-2.436575575844290853
0.451000000000000290,-2.387396947449728746
0.452000000000000290,-2.338682939840407649
0.453000000000000291,-2.290441079284163628
0.454000000000000292,-2.242678489123580032
0.455000000000000293,-2.195401896287063614
0.456000000000000294,-2.148617637900670285
0.457000000000000295,-2.102331667990777753
0.458000000000000296,-2.056549564267970087
0.459000000000000297,-2.011276534982937569
0.460000000000000298,-1.966517425845285771
0.461000000000000298,-1.922276726996709373
0.462000000000000299,-1.878558580030023517
0.463000000000000300,-1.835366785046002702
0.464000000000000301,-1.792704807740244988
0.465000000000000302,-1.750575786512559961
0.466000000000000303,-1.708982539591562766
0.467000000000000304,-1.667927572167638761
0.468000000000000305,-1.627413083527575299
0.469000000000000306,-1.587440974184406439
0.470000000000000306,-1.548012852996492494
0.471000000000000307,-1.509130044269779258
0.472000000000000308,-1.470793594837831009
0.473000000000000309,-1.433004281114142575
0.474000000000000310,-1.395762616111750010
0.475000000000000311,-1.359068856425160288
0.476000000000000312,-1.322923009170194231
0.477000000000000313,-1.287324838877099253
0.478000000000000314,-1.252273874332999748
0.479000000000000314,-1.217769415369692521
0.480000000000000315,-1.183810539593004307
0.481000000000000316,-1.150396109050352500
0.482000000000000317,-1.117524776833085154
0.483000000000000318,-1.085194993610608893
0.484000000000000319,-1.053405014093331982
0.485000000000000320,-1.022152903421801096
0.486000000000000321,-0.991436543479421895
0.487000000000000322,-0.961253639126494419
0.488000000000000322,-0.931601724353296690
0.489000000000000323,-0.902478168350360654
0.490000000000000324,-0.873880181493937536
0.491000000000000325,-0.845804821245087601
0.492000000000000326,-0.818248997960759228
0.493000000000000327,-0.791209480615579275
0.494000000000000328,-0.764682902433006739
0.495000000000000329,-0.738665766424801529
0.496000000000000330,-0.713154450837790721
0.497000000000000330,-0.688145214507110636
0.498000000000000331,-0.663634202115129024
0.499000000000000332,-0.639617449355526446
0.500000000000000333,-0.616090888001951331
0.501000000000000334,-0.593050350880847899
0.502000000000000335,-0.570491576748221929
0.503000000000000336,-0.548410215070104234
0.504000000000000337,-0.526801830706597141
0.505000000000000338,-0.505661908499521195
0.506000000000000338,-0.484985857763729988
0.507000000000000339,-0.464769016682206160
0.508000000000000340,-0.445006656605218986
0.509000000000000341,-0.425693986253848800
0.510000000000000342,-0.406826155828206137
0.511000000000000343,-0.388398261020848068
0.512000000000000344,-0.370405346935847424
0.513000000000000345,-0.352842411914121801
0.514000000000000346,-0.335704411265643932
0.515000000000000346,-0.318986260909176311
0.516000000000000347,-0.302682840920278418
0.517000000000000348,-0.286788998988419253
0.518000000000000349,-0.271299553783887482
0.519000000000000350,-0.256209298235501204
0.520000000000000351,-0.241513002719927178
0.521000000000000352,-0.227205418163589135
0.522000000000000353,-0.213281279058136208
0.523000000000000353,-0.199735306390439932
0.524000000000000354,-0.186562210488224883
0.525000000000000355,-0.173756693782320670
0.526000000000000356,-0.161313453486650216
0.527000000000000357,-0.149227184197111312
0.528000000000000358,-0.137492580410355641
0.529000000000000359,-0.126104338963776597
0.530000000000000360,-0.115057161397720820
0.531000000000000361,-0.104345756241208162
0.532000000000000361,-0.093964841222281908
0.533000000000000362,-0.083909145404260893
0.534000000000000363,-0.074173411249035218
0.535000000000000364,-0.064752396608686008
0.536000000000000365,-0.055640876646629846
0.537000000000000366,-0.046833645689536338
0.538000000000000367,-0.038325519011228271
0.539000000000000368,-0.030111334549877456
0.540000000000000369,-0.022185954559632869
0.541000000000000369,-0.014544267198040545
0.542000000000000370,-0.007181188050406873
0.543000000000000371,-0.000091661592391867
0.544000000000000372,0.006729337407922917
0.545000000000000373,0.013286802547279264
0.546000000000000374,0.019585694502565726
0.547000000000000375,0.025630939802981784
0.548000000000000376,0.031427429657817266
0.549000000000000377,0.036980018838659791
0.550000000000000377,0.042293524614814969
0.551000000000000378,0.047372725740721551
0.552000000000000379,0.052222361494216253
0.553000000000000380,0.056847130764418143
0.554000000000000381,0.061251691188131382
0.555000000000000382,0.065440658333523222
0.556000000000000383,0.069418604930034739
0.557000000000000384,0.073190060143285399
0.558000000000000385,0.076759508893943840
0.559000000000000385,0.080131391219374626
0.560000000000000386,0.083310101677037313
0.561000000000000387,0.086299988788489476
0.562000000000000388,0.089105354522982586
0.563000000000000389,0.091730453819539745
0.564000000000000390,0.094179494146526405
0.565000000000000391,0.096456635097640658
0.566000000000000392,0.098565988023352216
0.567000000000000393,0.100511615696745632
0.568000000000000393,0.102297532012835340
0.569000000000000394,0.103927701720337051
0.570000000000000395,0.105406040184982591
0.571000000000000396,0.106736413183413620
0.572000000000000397,0.107922636726723059
0.573000000000000398,0.108968476912795792
0.574000000000000399,0.109877649806460490
0.575000000000000400,0.110653821346678422
0.576000000000000401,0.111300607279839786
0.577000000000000401,0.111821573118331047
0.578000000000000402,0.112220234123569185
0.579000000000000403,0.112500055312692582
0.580000000000000404,0.112664451488044201
0.581000000000000405,0.112716787288755477
0.582000000000000406,0.112660377263594125
0.583000000000000407,0.112498485964344336
0.584000000000000408,0.112234328059003463
0.585000000000000409,0.111871068464030762
0.586000000000000409,0.111411822494973251
0.587000000000000410,0.110859656034756365
0.588000000000000411,0.110217585718984101
0.589000000000000412,0.109488579137544589
0.590000000000000413,0.108675555051924541
0.591000000000000414,0.107781383627556598
0.592000000000000415,0.106808886680592255
0.593000000000000416,0.105760837938503285
0.594000000000000417,0.104639963313914258
0.595000000000000417,0.103448941191061211
0.596000000000000418,0.102190402724374962
0.597000000000000419,0.100866932148560379
0.598000000000000420,0.099481067099699200
0.599000000000000421,0.098035298946811497
0.600000000000000422,0.096532073133376806
0.601000000000000423,0.094973789528323971
0.602000000000000424,0.093362802785989990
0.603000000000000425,0.091701422714573072
0.604000000000000425,0.089991914652641697
0.605000000000000426,0.088236499853229275
0.606000000000000427,0.086437355875047153
0.607000000000000428,0.084596616980507980
0.608000000000000429,0.082716374539938894
0.609000000000000430,0.080798677441843186
0.610000000000000431,0.078845532508560107
0.611000000000000432,0.076858904917127269
0.612000000000000433,0.074840718624916064
0.613000000000000433,0.072792856799629074
0.614000000000000434,0.070717162253391461
