# CNT15-COOH-3_NETHYLFORMAMIDE-AC
# h[nm],U(h)[kJ/mol]
0.149999999999999994,106.176270054790094832
0.150999999999999995,104.330648579104121154
0.151999999999999996,102.432935039907960117
0.152999999999999997,100.578016865470502239
0.153999999999999998,98.783420974074829246
0.154999999999999999,97.037772273958040614
0.156000000000000000,95.324029029503208221
0.157000000000000001,93.628915198093181971
0.158000000000000002,91.945326342423612687
0.159000000000000002,90.271578376278384326
0.160000000000000003,88.609589422993025210
0.161000000000000004,86.963028721946102451
0.162000000000000005,85.335864625333201161
0.163000000000000006,83.731421098759170718
0.164000000000000007,82.151895963691373481
0.165000000000000008,80.598233030332806948
0.166000000000000009,79.070230127442300727
0.167000000000000010,77.566779349180492886
0.168000000000000010,76.086159361164362736
0.169000000000000011,74.626324104015722583
0.170000000000000012,73.185153718260522737
0.171000000000000013,71.760650480156655817
0.172000000000000014,70.351074832256557556
0.173000000000000015,68.955024735902426869
0.174000000000000016,67.571466353157262574
0.175000000000000017,66.199726310775133697
0.176000000000000018,64.839456260495168749
0.177000000000000018,63.490579754318432038
0.178000000000000019,62.153230089525379753
0.179000000000000020,60.827686106881913020
0.180000000000000021,59.514311197787790775
0.181000000000000022,58.213499154423189452
0.182000000000000023,56.925629075631981380
0.183000000000000024,55.651030364937788875
0.184000000000000025,54.389957935698724611
0.185000000000000026,53.142577059373465431
0.186000000000000026,51.908956830174318497
0.187000000000000027,50.689070940301903079
0.188000000000000028,49.482804329745128769
0.189000000000000029,48.289964259636064980
0.190000000000000030,47.110294427706058684
0.191000000000000031,45.943490871837170175
0.192000000000000032,44.789218570777940442
0.193000000000000033,43.647127831896852967
0.194000000000000034,42.516869740556174406
0.195000000000000034,41.398110124095026663
0.196000000000000035,40.290541648415327813
0.197000000000000036,39.193893812239856800
0.198000000000000037,38.107940730792904560
0.199000000000000038,37.032506706081775860
0.200000000000000039,35.967469665462807882
0.201000000000000040,34.912762614940959338
0.202000000000000041,33.868373300421886540
0.203000000000000042,32.834342300987728436
0.204000000000000042,31.810759795433263264
0.205000000000000043,30.797761249028049235
0.206000000000000044,29.795522263927814777
0.207000000000000045,28.804252825868957189
0.208000000000000046,27.824191163568865903
0.209000000000000047,26.855597417236516833
0.210000000000000048,25.898747290163534274
0.211000000000000049,24.953925833685840274
0.212000000000000050,24.021421491836836282
0.213000000000000050,23.101520508526128594
0.214000000000000051,22.194501777655862185
0.215000000000000052,21.300632195670424096
0.216000000000000053,20.420162556922399233
0.217000000000000054,19.553324015116611889
0.218000000000000055,18.700325119057396250
0.219000000000000056,17.861349417990222577
0.220000000000000057,17.036553620948744481
0.221000000000000058,16.226066285611164375
0.222000000000000058,15.429987005099283337
0.223000000000000059,14.648386055785422855
0.224000000000000060,13.881304465334320497
0.225000000000000061,13.128754457736661720
0.226000000000000062,12.390720230814633140
0.227000000000000063,11.667159021431675825
0.228000000000000064,10.958002414259203405
0.229000000000000065,10.263157851288035260
0.230000000000000066,9.582510301187383561
0.231000000000000066,8.915924049975544108
0.232000000000000067,8.263244577164805094
0.233000000000000068,7.624300484472712469
0.234000000000000069,6.998905447265707735
0.235000000000000070,6.386860162042085065
0.236000000000000071,5.787954266404402581
0.237000000000000072,5.201968211060959746
0.238000000000000073,4.628675066390298909
0.239000000000000073,4.067842248965225949
0.240000000000000074,3.519233156134298213
0.241000000000000075,2.982608699284365006
0.242000000000000076,2.457728728738951318
0.243000000000000077,1.944353345378296849
0.244000000000000078,1.442244095994334341
0.245000000000000079,0.951165051116901084
0.246000000000000080,0.470883765571565582
0.247000000000000081,0.001172123357944255
0.248000000000000081,-0.458192930417994471
0.249000000000000082,-0.907428766856022584
0.250000000000000111,-1.346746555313318439
0.251000000000000112,-1.776350845039811333
0.252000000000000113,-2.196439240732646514
0.253000000000000114,-2.607202165961901130
0.254000000000000115,-3.008822708155902248
0.255000000000000115,-3.401476538671234007
0.256000000000000116,-3.785331901403409915
0.257000000000000117,-4.160549663404765397
0.258000000000000118,-4.527283421056312207
0.259000000000000119,-4.885679655481000694
0.260000000000000120,-5.235877931076772462
0.261000000000000121,-5.578011131279496659
0.262000000000000122,-5.912205725932691891
0.263000000000000123,-6.238582064932450599
0.264000000000000123,-6.557254693128827583
0.265000000000000124,-6.868332681790365157
0.266000000000000125,-7.171919972273353316
0.267000000000000126,-7.468115727875600740
0.268000000000000127,-7.757014690193580364
0.269000000000000128,-8.038707536636186646
0.270000000000000129,-8.313281236077026293
0.271000000000000130,-8.580819399946964410
0.272000000000000131,-8.841402626376577700
0.273000000000000131,-9.095108835294297478
0.274000000000000132,-9.342013592667331778
0.275000000000000133,-9.582190422339429858
0.276000000000000134,-9.815711104170469881
0.277000000000000135,-10.042645957417127178
0.278000000000000136,-10.263064108512930162
0.279000000000000137,-10.477033742607465783
0.280000000000000138,-10.684622338410040499
0.281000000000000139,-10.885896886053087584
0.282000000000000139,-11.080924087843930792
0.283000000000000140,-11.269770541912809136
0.284000000000000141,-11.452502908888821054
0.285000000000000142,-11.629188061845857405
0.286000000000000143,-11.799893219857484183
0.287000000000000144,-11.964686065583899577
0.288000000000000145,-12.123634847387140923
0.289000000000000146,-12.276808466531385022
0.290000000000000147,-12.424276550077228976
0.291000000000000147,-12.566109510119579440
0.292000000000000148,-12.702378590052395779
0.293000000000000149,-12.833155898567337516
0.294000000000000150,-12.958514432111419623
0.295000000000000151,-13.078528086538772968
0.296000000000000152,-13.193271658696508197
0.297000000000000153,-13.302820838683549809
0.298000000000000154,-13.407252193515656558
0.299000000000000155,-13.506643142919850575
0.300000000000000155,-13.601071927967591790
0.301000000000000156,-13.690617573239142857
0.302000000000000157,-13.775359843191768761
0.303000000000000158,-13.855379193382168168
0.304000000000000159,-13.930756717169620273
0.305000000000000160,-14.001574088500319704
0.306000000000000161,-14.067913501346831495
0.307000000000000162,-14.129857606348391386
0.308000000000000163,-14.187489445169367386
0.309000000000000163,-14.240892383064132076
0.310000000000000164,-14.290150040107608476
0.311000000000000165,-14.335346221521385601
0.312000000000000166,-14.376564847496586808
0.313000000000000167,-14.413889882885877469
0.314000000000000168,-14.447405267109001414
0.315000000000000169,-14.477194844588797906
0.316000000000000170,-14.503342296007753376
0.317000000000000171,-14.525931070649381383
0.318000000000000171,-14.545044320063231780
0.319000000000000172,-14.560764833268866170
0.320000000000000173,-14.573174973690175449
0.321000000000000174,-14.582356617989848502
0.322000000000000175,-14.588391096952495474
0.323000000000000176,-14.591359138544754970
0.324000000000000177,-14.591340813262039688
0.325000000000000178,-14.588415481853280298
0.326000000000000179,-14.582661745498654682
0.327000000000000179,-14.574157398498977400
0.328000000000000180,-14.562979383521090782
0.329000000000000181,-14.549203749429741706
0.330000000000000182,-14.532905611723464290
0.331000000000000183,-14.514159115580634207
0.332000000000000184,-14.493037401510601825
0.333000000000000185,-14.469612573595156846
0.334000000000000186,-14.443955670296366733
0.335000000000000187,-14.416136637798643960
0.336000000000000187,-14.386224305845550120
0.337000000000000188,-14.354286366024890498
0.338000000000000189,-14.320389352450131781
0.339000000000000190,-14.284598624780556975
0.340000000000000191,-14.246978353518105820
0.341000000000000192,-14.207591507514953477
0.342000000000000193,-14.166499843622171184
0.343000000000000194,-14.123763898407460715
0.344000000000000195,-14.079442981866867157
0.345000000000000195,-14.033595173054289162
0.346000000000000196,-13.986277317550477761
0.347000000000000197,-13.937545026692578887
0.348000000000000198,-13.887452678484574875
0.349000000000000199,-13.836053420108346046
0.350000000000000200,-13.783399171955664997
0.351000000000000201,-13.729540633101134262
0.352000000000000202,-13.674527288137010572
0.353000000000000203,-13.618407415291590823
0.354000000000000203,-13.561228095753870448
0.355000000000000204,-13.503035224128245417
0.356000000000000205,-13.443873519944663286
0.357000000000000206,-13.383786540151183075
0.358000000000000207,-13.322816692517164938
0.359000000000000208,-13.261005249877817036
0.360000000000000209,-13.198392365152042061
0.361000000000000210,-13.135017087068021624
0.362000000000000210,-13.070917376532715792
0.363000000000000211,-13.006130123583762526
0.364000000000000212,-12.940691164864398743
0.365000000000000213,-12.874635301564063994
0.366000000000000214,-12.807996317769843486
0.367000000000000215,-12.740806999175827485
0.368000000000000216,-12.673099152100069986
0.369000000000000217,-12.604903622760650350
0.370000000000000218,-12.536250316764945723
0.371000000000000218,-12.467168218768147625
0.372000000000000219,-12.397685412259360049
0.373000000000000220,-12.327829099435845706
0.374000000000000221,-12.257625621127939297
0.375000000000000222,-12.187100476739201937
0.376000000000000223,-12.116278344168753378
0.377000000000000224,-12.045183099684290795
0.378000000000000225,-11.973837837716452270
0.379000000000000226,-11.902264890547092691
0.380000000000000226,-11.830485847865883642
0.381000000000000227,-11.758521576171107270
0.382000000000000228,-11.686392237992926368
0.383000000000000229,-11.614117310918258497
0.384000000000000230,-11.541715606398557981
0.385000000000000231,-11.469205288323269798
0.386000000000000232,-11.396603891342923731
0.387000000000000233,-11.323928338927668591
0.388000000000000234,-11.251194961147998441
0.389000000000000234,-11.178419512166232863
0.390000000000000235,-11.105617187427995418
0.391000000000000236,-11.032802640544698392
0.392000000000000237,-10.959989999858681387
0.393000000000000238,-10.887192884684154137
0.394000000000000239,-10.814424421217811556
0.395000000000000240,-10.741697258114173863
0.396000000000000241,-10.669023581721539529
0.397000000000000242,-10.596415130975275432
0.398000000000000242,-10.523883211946118976
0.399000000000000243,-10.451438712041859702
0.400000000000000244,-10.379092113861416280
0.401000000000000245,-10.306853508701269817
0.402000000000000246,-10.234732609714551899
0.403000000000000247,-10.162738764723872720
0.404000000000000248,-10.090880968689466712
0.405000000000000249,-10.019167875834845916
0.406000000000000250,-9.947607811432387592
0.407000000000000250,-9.876208783252112156
0.408000000000000251,-9.804978492676841739
0.409000000000000252,-9.733924345487828589
0.410000000000000253,-9.663053462324787901
0.411000000000000254,-9.592372688824941207
0.412000000000000255,-9.521888605445791853
0.413000000000000256,-9.451607536976689872
0.414000000000000257,-9.381535561744289708
0.415000000000000258,-9.311678520517576274
0.416000000000000258,-9.242042025117848780
0.417000000000000259,-9.172631466739630923
0.418000000000000260,-9.103452023988317876
0.419000000000000261,-9.034508670640629902
0.420000000000000262,-8.965806183133988583
0.421000000000000263,-8.897349147791080881
0.422000000000000264,-8.829141967785783862
0.423000000000000265,-8.761188869856784578
0.424000000000000266,-8.693493910775373479
0.425000000000000266,-8.626060983573520247
0.426000000000000267,-8.558893823538825885
0.427000000000000268,-8.491996013982575420
0.428000000000000269,-8.425370991787215047
0.429000000000000270,-8.359022052739664588
0.430000000000000271,-8.292952356656538626
0.431000000000000272,-8.227164932307678313
0.432000000000000273,-8.161662682144001479
0.433000000000000274,-8.096448386835799482
0.434000000000000274,-8.031524709627495540
0.435000000000000275,-7.966894200514770041
0.436000000000000276,-7.902559300249959229
0.437000000000000277,-7.838522344181349411
0.438000000000000278,-7.774785565932150533
0.439000000000000279,-7.711351100924685120
0.440000000000000280,-7.648220989755161625
0.441000000000000281,-7.585397181424470503
0.442000000000000282,-7.522881536430257476
0.443000000000000282,-7.460675829725268215
0.444000000000000283,-7.398781753547163831
0.445000000000000284,-7.337200920124580250
0.446000000000000285,-7.275934864264198332
0.447000000000000286,-7.214985045823671506
0.448000000000000287,-7.154352852074704394
0.449000000000000288,-7.094039599960952458
0.450000000000000289,-7.034046538254874470
0.451000000000000290,-6.974374849617838379
0.452000000000000290,-6.915025652567554637
0.453000000000000291,-6.856000003356706785
0.454000000000000292,-6.797298897766760994
0.455000000000000293,-6.738923272820538379
0.456000000000000294,-6.680874008417269749
0.457000000000000295,-6.623151928893588725
0.458000000000000296,-6.565757804513831175
0.459000000000000297,-6.508692352892980537
0.460000000000000298,-6.451956240355317007
0.461000000000000298,-6.395550083231961835
0.462000000000000299,-6.339474449100174880
0.463000000000000300,-6.283729857967242260
0.464000000000000301,-6.228316783401798062
0.465000000000000302,-6.173235653615143370
0.466000000000000303,-6.118486852495111705
0.467000000000000304,-6.064070720594962438
0.468000000000000305,-6.009987556079659399
0.469000000000000306,-5.956237615631758686
0.470000000000000306,-5.902821115319165202
0.471000000000000307,-5.849738231426689694
0.472000000000000308,-5.796989101253623211
0.473000000000000309,-5.744573823879027152
0.474000000000000310,-5.692492460896749762
0.475000000000000311,-5.640745037121769556
0.476000000000000312,-5.589331541269761949
0.477000000000000313,-5.538251926611226672
0.478000000000000314,-5.487506111601909708
0.479000000000000314,-5.437093980490951495
0.480000000000000315,-5.387015383908029698
0.481000000000000316,-5.337270139431028682
0.482000000000000317,-5.287858032135313024
0.483000000000000318,-5.238778815125916921
0.484000000000000319,-5.190032210053750816
0.485000000000000320,-5.141617907616943484
0.486000000000000321,-5.093535568048308093
0.487000000000000322,-5.045784821589935021
0.488000000000000322,-4.998365268955797802
0.489000000000000323,-4.951276481783325245
0.490000000000000324,-4.904518003074663568
0.491000000000000325,-4.858089347628513188
0.492000000000000326,-4.811990002463123695
0.493000000000000327,-4.766219427231328076
0.494000000000000328,-4.720777054628104707
0.495000000000000329,-4.675662290791368747
0.496000000000000330,-4.630874515696503657
0.497000000000000330,-4.586413083545249236
0.498000000000000331,-4.542277323149301438
0.499000000000000332,-4.498466538309296325
0.500000000000000333,-4.454980008189421525
0.501000000000000334,-4.411816987688141900
0.502000000000000335,-4.368976707805420467
0.503000000000000336,-4.326458376006776518
0.504000000000000337,-4.284261176584456265
0.505000000000000338,-4.242384271016071295
0.506000000000000338,-4.200826798320933975
0.507000000000000339,-4.159587875414344715
0.508000000000000340,-4.118666597460040713
0.509000000000000341,-4.078062038221083263
0.510000000000000342,-4.037773250409239623
0.511000000000000343,-3.997799266033156496
0.512000000000000344,-3.958139096745361574
0.513000000000000345,-3.918791734188289411
0.514000000000000346,-3.879756150339464860
0.515000000000000346,-3.841031297855849402
0.516000000000000347,-3.802616110417518236
0.517000000000000348,-3.764509503070752938
0.518000000000000349,-3.726710372570498642
0.519000000000000350,-3.689217597722367792
0.520000000000000351,-3.652030039724134980
0.521000000000000352,-3.615146542506790350
0.522000000000000353,-3.578565933075172012
0.523000000000000353,-3.542287021848108175
0.524000000000000354,-3.506308602998234214
0.525000000000000355,-3.470629454791274604
0.526000000000000356,-3.435248339924913186
0.527000000000000357,-3.400164005867218009
0.528000000000000358,-3.365375185194480423
0.529000000000000359,-3.330880595928607413
0.530000000000000360,-3.296678941873862900
0.531000000000000361,-3.262768912953038836
0.532000000000000361,-3.229149185542910860
0.533000000000000362,-3.195818422809003856
0.534000000000000363,-3.162775275039574563
0.535000000000000364,-3.130018379978730891
0.536000000000000365,-3.097546363158674598
0.537000000000000366,-3.065357838230995391
0.538000000000000367,-3.033451407296869462
0.539000000000000368,-3.001825661236260157
0.540000000000000369,-2.970479180035842326
0.541000000000000369,-2.939410533115782265
0.542000000000000370,-2.908618279655153405
0.543000000000000371,-2.878100968915972224
0.544000000000000372,-2.847857140565809964
0.545000000000000373,-2.817885324998856245
0.546000000000000374,-2.788184043655372868
0.547000000000000375,-2.758751809339468952
0.548000000000000376,-2.729587126535167663
0.549000000000000377,-2.700688491720626416
0.550000000000000377,-2.672054393680439510
0.551000000000000378,-2.643683313816020508
0.552000000000000379,-2.615573726453932935
0.553000000000000380,-2.587724099152119983
0.554000000000000381,-2.560132893003942200
0.555000000000000382,-2.532798562940038245
0.556000000000000383,-2.505719558027788452
0.557000000000000384,-2.478894321768509990
0.558000000000000385,-2.452321292392137586
0.559000000000000385,-2.425998903149472863
0.560000000000000386,-2.399925582601841967
0.561000000000000387,-2.374099754908169935
0.562000000000000388,-2.348519840109369206
0.563000000000000389,-2.323184254410024963
0.564000000000000390,-2.298091410457297812
0.565000000000000391,-2.273239717617000277
0.566000000000000392,-2.248627582246806256
0.567000000000000393,-2.224253407966553464
0.568000000000000393,-2.200115595925551837
0.569000000000000394,-2.176212545066902315
0.570000000000000395,-2.152542652388782951
0.571000000000000396,-2.129104313202603294
0.572000000000000397,-2.105895921388086567
0.573000000000000398,-2.082915869645145079
0.574000000000000399,-2.060162549742607485
0.575000000000000400,-2.037634352763672219
0.576000000000000401,-2.015329669348138619
0.577000000000000401,-1.993246889931373556
0.578000000000000402,-1.971384404979925620
0.579000000000000403,-1.949740605223829082
0.580000000000000404,-1.928313881885586722
0.581000000000000405,-1.907102626905734066
0.582000000000000406,-1.886105233165052963
0.583000000000000407,-1.865320094703347253
0.584000000000000408,-1.844745606934835580
0.585000000000000409,-1.824380166860082753
0.586000000000000409,-1.804222173274506957
0.587000000000000410,-1.784270026973431511
0.588000000000000411,-1.764522130953676493
0.589000000000000412,-1.744976890611702247
0.590000000000000413,-1.725632713938260121
0.591000000000000414,-1.706488011709591746
0.592000000000000415,-1.687541197675170634
0.593000000000000416,-1.668790688741947248
0.594000000000000417,-1.650234905155130161
0.595000000000000417,-1.631872270675560843
0.596000000000000418,-1.613701212753526404
0.597000000000000419,-1.595720162699241440
0.598000000000000420,-1.577927555849789609
0.599000000000000421,-1.560321831732694120
0.600000000000000422,-1.542901434226033874
0.601000000000000423,-1.525664811715167213
0.602000000000000424,-1.508610417246051050
0.603000000000000425,-1.491736708675176937
0.604000000000000425,-1.475042148816148035
0.605000000000000426,-1.458525205582879014
0.606000000000000427,-1.442184352129530556
0.607000000000000428,-1.426018066987011723
0.608000000000000429,-1.410024834196339727
0.609000000000000430,-1.394203143438563997
0.610000000000000431,-1.378551490161581405
