# TiO2-ana-100_AMAN-JS
# h[nm],U(h)[kJ/mol]
0.200000000000000011,138.093022649596974816
0.201000000000000012,135.989119174135112189
0.202000000000000013,133.827821323540490539
0.203000000000000014,131.665953136659709344
0.204000000000000015,129.537037440844756020
0.205000000000000016,127.458650485684330533
0.206000000000000016,125.437812801243438798
0.207000000000000017,123.474881205683658436
0.208000000000000018,121.566306323033842318
0.209000000000000019,119.706539698609248035
0.210000000000000020,117.889310741335222588
0.211000000000000021,116.108443111302037209
0.212000000000000022,114.358340223114510081
0.213000000000000023,112.634238146981488171
0.214000000000000024,110.932299650448229045
0.215000000000000024,109.249604048160747993
0.216000000000000025,107.584072793877751906
0.217000000000000026,105.934359453449275179
0.218000000000000027,104.299724111598564491
0.219000000000000028,102.679905804844253225
0.220000000000000029,101.075001770410835888
0.221000000000000030,99.485358783876023381
0.222000000000000031,97.911479330629319406
0.223000000000000032,96.353943583848177923
0.224000000000000032,94.813346960299966781
0.225000000000000033,93.290252250449810845
0.226000000000000034,91.785154858642883369
0.227000000000000035,90.298459455559182629
0.228000000000000036,88.830466271938561817
0.229000000000000037,87.381365298973975086
0.230000000000000038,85.951236768576293912
0.231000000000000039,84.540056437578030568
0.232000000000000040,83.147704373174818215
0.233000000000000040,81.773976117728253143
0.234000000000000041,80.418595289225407896
0.235000000000000042,79.081226842400297983
0.236000000000000043,77.761490370525763183
0.237000000000000044,76.458972966853622211
0.238000000000000045,75.173241286639751024
0.239000000000000046,73.903852555661572410
0.240000000000000047,72.650364359776290257
0.241000000000000048,71.412343123489080199
0.242000000000000048,70.189371245048050696
0.243000000000000049,68.981052902737545196
0.244000000000000050,67.787018583316680065
0.245000000000000051,66.606928410419101283
0.246000000000000052,65.440474369605084348
0.247000000000000053,64.287381538931271052
0.248000000000000054,63.147408440561299869
0.249000000000000055,62.020346631141208604
0.250000000000000056,60.906019647334517231
0.251000000000000056,59.804281418862899500
0.252000000000000057,58.715014255324675219
0.253000000000000058,57.638126505552534695
0.254000000000000059,56.573549979812447930
0.255000000000000060,55.521237216144562865
0.256000000000000061,54.481158662931115089
0.257000000000000062,53.453299840604771020
0.258000000000000063,52.437658536487582239
0.259000000000000064,51.434242078227953243
0.260000000000000064,50.443064723290696350
0.261000000000000065,49.464145194532306959
0.262000000000000066,48.497504385100157265
0.263000000000000067,47.543163249762017131
0.264000000000000068,46.601140894297465422
0.265000000000000069,45.671452869759605164
0.266000000000000070,44.754109674219776593
0.267000000000000071,43.849115461008658201
0.268000000000000071,42.956466949429355395
0.269000000000000072,42.076152531399294787
0.270000000000000073,41.208151565434675945
0.271000000000000074,40.352433847783103715
0.272000000000000075,39.508959249287592286
0.273000000000000076,38.677677505690624571
0.274000000000000077,37.858528148516327860
0.275000000000000078,37.051440563361744296
0.276000000000000079,36.256334162352310102
0.277000000000000079,35.473118657630443806
0.278000000000000080,34.701694423027085179
0.279000000000000081,33.941952931475938726
0.280000000000000082,33.193777256250569963
0.281000000000000083,32.457042624707611367
0.282000000000000084,31.731617013886044276
0.283000000000000085,31.017361778024859831
0.284000000000000086,30.314132298800881671
0.285000000000000087,29.621778649846078224
0.286000000000000087,28.940146267861660334
0.287000000000000088,28.269076623399193693
0.288000000000000089,27.608407885116644565
0.289000000000000090,26.957975572031738665
0.290000000000000091,26.317613188984683603
0.291000000000000092,25.687152841176327911
0.292000000000000093,25.066425824270631040
0.293000000000000094,24.455263187132981528
0.294000000000000095,23.853496264821338002
0.295000000000000095,23.260957179951219587
0.296000000000000096,22.677479311021578212
0.297000000000000097,22.102897726712964044
0.298000000000000098,21.537049585556093945
0.299000000000000099,20.979774500716807495
0.300000000000000100,20.430914869955326907
0.301000000000000101,19.890316171093122222
0.302000000000000102,19.357827223565109875
0.303000000000000103,18.833300416844149794
0.304000000000000103,18.316591906708104887
0.305000000000000104,17.807561780472290991
0.306000000000000105,17.306074192438348547
0.307000000000000106,16.811997470914668895
0.308000000000000107,16.325204198245437226
0.309000000000000108,15.845571265347626166
0.310000000000000109,15.372979902298524735
0.311000000000000110,14.907315686545146605
0.312000000000000111,14.448468530317773784
0.313000000000000111,13.996332648831117496
0.314000000000000112,13.550806510843568020
0.315000000000000113,13.111792773123204014
0.316000000000000114,12.679198200337927105
0.317000000000000115,12.252933571848867444
0.318000000000000116,11.832913576840590864
0.319000000000000117,11.419056699171642677
0.320000000000000118,11.011285093274050695
0.321000000000000119,10.609524452371640990
0.322000000000000119,10.213703870226456871
0.323000000000000120,9.823755697559722222
0.324000000000000121,9.439615394228690448
0.325000000000000122,9.061221378176616881
0.326000000000000123,8.688514872107585774
0.327000000000000124,8.321439748772986533
0.328000000000000125,7.959942375692401484
0.329000000000000126,7.603971460068666310
0.330000000000000127,7.253477894594875686
0.331000000000000127,6.908414604791279778
0.332000000000000128,6.568736398451608061
0.333000000000000129,6.234399817722090731
0.334000000000000130,5.905362994282610245
0.335000000000000131,5.581585508047036015
0.336000000000000132,5.263028249751371845
0.337000000000000133,4.949653287750381381
0.338000000000000134,4.641423739299078477
0.339000000000000135,4.338303646554177995
0.340000000000000135,4.040257857489672588
0.341000000000000136,3.747251911884809772
0.342000000000000137,3.459251932507363847
0.343000000000000138,3.176224521583258742
0.344000000000000139,2.898136662613034709
0.345000000000000140,2.624955627568712480
0.346000000000000141,2.356648889478485387
0.347000000000000142,2.093184040383802902
0.348000000000000143,1.834528714631668667
0.349000000000000143,1.580650517446076764
0.350000000000000144,1.331516958704565878
0.351000000000000145,1.087095391830799951
0.352000000000000146,0.847352957699456510
0.353000000000000147,0.612256533437962713
0.354000000000000148,0.381772685998351069
0.355000000000000149,0.155867630363331955
0.356000000000000150,-0.065492807757335930
0.357000000000000151,-0.282343224891021927
0.358000000000000151,-0.494718668583142229
0.359000000000000152,-0.702654662155712040
0.360000000000000153,-0.906187225607992586
0.361000000000000154,-1.105352892825593569
0.362000000000000155,-1.300188725266937739
0.363000000000000156,-1.490732322296134837
0.364000000000000157,-1.677021828331587416
0.365000000000000158,-1.859095936979531016
0.366000000000000159,-2.036993892319634902
0.367000000000000159,-2.210755487509185269
0.368000000000000160,-2.380421060869106320
0.369000000000000161,-2.546031489613151066
0.370000000000000162,-2.707628181378311627
0.371000000000000163,-2.865253063710885062
0.372000000000000164,-3.018948571659337166
0.373000000000000165,-3.168757633620727265
0.374000000000000166,-3.314723655583854622
0.375000000000000167,-3.456890503906981049
0.376000000000000167,-3.595302486764564431
0.377000000000000168,-3.730004334391973320
0.378000000000000169,-3.861041178252718531
0.379000000000000170,-3.988458529247877582
0.380000000000000171,-4.112302255082673774
0.381000000000000172,-4.232618556899931939
0.382000000000000173,-4.349453945285604917
0.383000000000000174,-4.462855215746573734
0.384000000000000175,-4.572869423756002583
0.385000000000000175,-4.679543859456684274
0.386000000000000176,-4.782926022108564545
0.387000000000000177,-4.883063594361053639
0.388000000000000178,-4.980004416427227021
0.389000000000000179,-5.073796460231588590
0.390000000000000180,-5.164487803599292270
0.391000000000000181,-5.252126604550264588
0.392000000000000182,-5.336761075757224582
0.393000000000000183,-5.418439459223097998
0.394000000000000183,-5.497210001228814313
0.395000000000000184,-5.573120927599116925
0.396000000000000185,-5.646220419330092888
0.397000000000000186,-5.716556588618539436
0.398000000000000187,-5.784177455330199003
0.399000000000000188,-5.849130923940253801
0.400000000000000189,-5.911464760976316235
0.401000000000000190,-5.971226572991629844
0.402000000000000191,-6.028463785092563754
0.403000000000000191,-6.083223620042286228
0.404000000000000192,-6.135553077959743362
0.405000000000000193,-6.185498916630269406
0.406000000000000194,-6.233107632442301593
0.407000000000000195,-6.278425441961885234
0.408000000000000196,-6.321498264154874924
0.409000000000000197,-6.362371703264531497
0.410000000000000198,-6.401091032350471721
0.411000000000000199,-6.437701177492785476
0.412000000000000199,-6.472246702664014251
0.413000000000000200,-6.504771795269428836
0.414000000000000201,-6.535320252355177217
0.415000000000000202,-6.563935467482023611
0.416000000000000203,-6.590660418261341746
0.417000000000000204,-6.615537654548852231
0.418000000000000205,-6.638609287290265115
0.419000000000000206,-6.659916978012256905
0.420000000000000207,-6.679501928950919876
0.421000000000000207,-6.697404873809399639
0.422000000000000208,-6.713666069135054038
0.423000000000000209,-6.728325286306395370
0.424000000000000210,-6.741421804118907346
0.425000000000000211,-6.752994401958423154
0.426000000000000212,-6.763081353550433050
0.427000000000000213,-6.771720421272705792
0.428000000000000214,-6.778948851018805399
0.429000000000000214,-6.784803367599231194
0.430000000000000215,-6.789320170666874432
0.431000000000000216,-6.792534931153132227
0.432000000000000217,-6.794482788200824075
0.433000000000000218,-6.795198346579768511
0.434000000000000219,-6.794715674570978692
0.435000000000000220,-6.793068302305121264
0.436000000000000221,-6.790289220540887349
0.437000000000000222,-6.786410879868893353
0.438000000000000222,-6.781465190326770198
0.439000000000000223,-6.775483521411077348
0.440000000000000224,-6.768496702471726856
0.441000000000000225,-6.760535023474679051
0.442000000000000226,-6.751628236118913939
0.443000000000000227,-6.741805555293434615
0.444000000000000228,-6.731095660860805019
0.445000000000000229,-6.719526699753200383
0.446000000000000230,-6.707126288367573075
0.447000000000000230,-6.693921515246739951
0.448000000000000231,-6.679938944033071202
0.449000000000000232,-6.665204616681892347
0.450000000000000233,-6.649744056922178181
0.451000000000000234,-6.633582273951665442
0.452000000000000235,-6.616743766354647782
0.453000000000000236,-6.599252526230090510
0.454000000000000237,-6.581132043518747032
0.455000000000000238,-6.562405310517583246
0.456000000000000238,-6.543094826570507117
0.457000000000000239,-6.523222602924482416
0.458000000000000240,-6.502810167740473268
0.459000000000000241,-6.481878571248765653
0.460000000000000242,-6.460448391038835503
0.461000000000000243,-6.438539737473794489
0.462000000000000244,-6.416172259220171092
0.463000000000000245,-6.393365148883477289
0.464000000000000246,-6.370137148741111588
0.465000000000000246,-6.346506556563552337
0.466000000000000247,-6.322491231515736665
0.467000000000000248,-6.298108600130420953
0.468000000000000249,-6.273375662345807235
0.469000000000000250,-6.248308997599822945
0.470000000000000251,-6.222924770973863318
0.471000000000000252,-6.197238739378846617
0.472000000000000253,-6.171266257777146436
0.473000000000000254,-6.145022285433500819
0.474000000000000254,-6.118521392189076202
0.475000000000000255,-6.091777764752377422
0.476000000000000256,-6.064805213001508655
0.477000000000000257,-6.037617176292117804
0.478000000000000258,-6.010226729765880016
0.479000000000000259,-5.982646590654406182
0.480000000000000260,-5.954889124573825576
0.481000000000000261,-5.926966351805424082
0.482000000000000262,-5.898889953557948651
0.483000000000000262,-5.870671278207518995
0.484000000000000263,-5.842321347510997853
0.485000000000000264,-5.813850862789289309
0.486000000000000265,-5.785270211076847247
0.487000000000000266,-5.756589471234015321
0.488000000000000267,-5.727818420019136880
0.489000000000000268,-5.698966538117291591
0.490000000000000269,-5.670043016122873425
0.491000000000000270,-5.641056760473387222
0.492000000000000270,-5.612016399331823280
0.493000000000000271,-5.582930288415424158
0.494000000000000272,-5.553806516768559298
0.495000000000000273,-5.524652912477627353
0.496000000000000274,-5.495477048326195657
0.497000000000000275,-5.466286247388485009
0.498000000000000276,-5.437087588559682771
0.499000000000000277,-5.407887912021523746
0.500000000000000222,-5.378693824641713306
0.501000000000000334,-5.349511705306067455
0.502000000000000224,-5.320347710182123713
0.503000000000000336,-5.291207777913173871
0.504000000000000226,-5.262097634741947694
0.505000000000000338,-5.233022799562895955
0.506000000000000227,-5.203988588902596746
0.507000000000000339,-5.175000121827451061
0.508000000000000229,-5.146062324778275077
0.509000000000000341,-5.117179936331203827
0.510000000000000231,-5.088357511884753492
0.511000000000000343,-5.059599428272482768
0.512000000000000233,-5.030909888301272836
0.513000000000000345,-5.002292925214913311
0.514000000000000234,-4.973752407083156690
0.515000000000000346,-4.945292041115886050
0.516000000000000236,-4.916915377902848050
0.517000000000000348,-4.888625815578739875
0.518000000000000238,-4.860426603914108412
0.519000000000000350,-4.832320848332022578
0.520000000000000240,-4.804311513851006410
0.521000000000000352,-4.776401428954490491
0.522000000000000242,-4.748593289387128991
0.523000000000000353,-4.720889661878449495
0.524000000000000243,-4.693292987794238869
0.525000000000000355,-4.665805586716244235
0.526000000000000245,-4.638429659950665140
0.527000000000000357,-4.611167293965978686
0.528000000000000247,-4.584020463760793085
0.529000000000000359,-4.556991036162236774
0.530000000000000249,-4.530080773055668253
0.531000000000000361,-4.503291334546254632
0.532000000000000250,-4.476624282053254689
0.533000000000000362,-4.450081081337634359
0.534000000000000252,-4.423663105463798928
0.535000000000000364,-4.397371637696217306
0.536000000000000254,-4.371207874331750176
0.537000000000000366,-4.345172927468342827
0.538000000000000256,-4.319267827711128049
0.539000000000000368,-4.293493526816511086
0.540000000000000258,-4.267850900275309556
0.541000000000000369,-4.242340749835552316
0.542000000000000259,-4.216963805966059908
0.543000000000000371,-4.191720730261415895
0.544000000000000261,-4.166612117789375347
0.545000000000000373,-4.141638499381501859
0.546000000000000263,-4.116800343867967449
0.547000000000000375,-4.092098060257255199
0.548000000000000265,-4.067531999861953906
0.549000000000000377,-4.043102458371095942
0.550000000000000266,-4.018809677870381236
0.551000000000000378,-3.994653848810822527
0.552000000000000268,-3.970635111926863914
0.553000000000000380,-3.946753560104851122
0.554000000000000270,-3.923009240202707471
0.555000000000000382,-3.899402154821634436
0.556000000000000272,-3.875932264030907959
0.557000000000000384,-3.852599487046327376
0.558000000000000274,-3.829403703863565767
0.559000000000000385,-3.806344756846907984
0.560000000000000275,-3.783422452274535885
0.561000000000000387,-3.760636561841011805
0.562000000000000277,-3.737986824117900397
0.563000000000000389,-3.715472945973331775
0.564000000000000279,-3.693094603951368349
0.565000000000000391,-3.670851445611927666
0.566000000000000281,-3.648743090832161862
0.567000000000000393,-3.626769133070024687
0.568000000000000282,-3.604929140590894754
0.569000000000000394,-3.583222657657948673
0.570000000000000284,-3.561649205687166475
0.571000000000000396,-3.540208284367648339
0.572000000000000286,-3.518899372748120591
0.573000000000000398,-3.497721930290188741
0.574000000000000288,-3.476675397889298580
0.575000000000000400,-3.455759198863989301
0.576000000000000290,-3.434972739914221584
0.577000000000000401,-3.414315412049450771
0.578000000000000291,-3.393786591487198301
0.579000000000000403,-3.373385640522764906
0.580000000000000293,-3.353111908370808969
0.581000000000000405,-3.332964731979382034
0.582000000000000295,-3.312943436817223919
0.583000000000000407,-3.293047337634793514
0.584000000000000297,-3.273275739199789314
0.585000000000000409,-3.253627937007772974
0.586000000000000298,-3.234103217968470112
0.587000000000000410,-3.214700861068395366
0.588000000000000300,-3.195420138010396371
0.589000000000000412,-3.176260313830649995
0.590000000000000302,-3.157220647493754306
0.591000000000000414,-3.138300392466484734
0.592000000000000304,-3.119498797270688684
0.593000000000000416,-3.100815106015905265
0.594000000000000306,-3.082248558912340286
0.595000000000000417,-3.063798392764514933
0.596000000000000307,-3.045463841446315989
0.597000000000000419,-3.027244136357797544
0.598000000000000309,-3.009138506864339924
0.599000000000000421,-2.991146180718520675
0.600000000000000311,-2.973266384465347745
0.601000000000000423,-2.955498343831126640
0.602000000000000313,-2.937841284096594840
0.603000000000000425,-2.920294430454597023
0.604000000000000314,-2.902857008352949908
0.605000000000000426,-2.885528243822653049
0.606000000000000316,-2.868307363792152564
0.607000000000000428,-2.851193596387811446
0.608000000000000318,-2.834186171221217521
0.609000000000000430,-2.817284319663471592
0.610000000000000320,-2.800487275107124585
0.611000000000000432,-2.783794273215842274
0.612000000000000322,-2.767204552162408682
0.613000000000000433,-2.750717352855282627
0.614000000000000323,-2.734331919154104895
0.615000000000000435,-2.718047498074499746
0.616000000000000325,-2.701863339982490508
0.617000000000000437,-2.685778698778845452
0.618000000000000327,-2.669792832073742073
0.619000000000000439,-2.653905001351922088
0.620000000000000329,-2.638114472128790577
0.621000000000000441,-2.622420514097671074
0.622000000000000330,-2.606822401268500844
0.623000000000000442,-2.591319412098292307
0.624000000000000332,-2.575910829613598629
0.625000000000000444,-2.560595941525264596
0.626000000000000334,-2.545374040335736776
0.627000000000000446,-2.530244423439143908
0.628000000000000336,-2.515206393214445946
0.629000000000000448,-2.500259257111872024
0.630000000000000338,-2.485402327732871175
0.631000000000000449,-2.470634922903820474
0.632000000000000339,-2.455956365743710013
0.633000000000000451,-2.441365984726011629
0.634000000000000341,-2.426863113734964550
0.635000000000000453,-2.412447092116464908
0.636000000000000343,-2.398117264723762965
0.637000000000000455,-2.383872981958155002
0.638000000000000345,-2.369713599804915027
0.639000000000000457,-2.355638479864516022
0.640000000000000346,-2.341646989379528421
0.641000000000000458,-2.327738501257117676
0.642000000000000348,-2.313912394087568991
0.643000000000000460,-2.300168052158780618
0.644000000000000350,-2.286504865467039682
0.645000000000000462,-2.272922229724146703
0.646000000000000352,-2.259419546361101538
0.647000000000000464,-2.245996222528411579
0.648000000000000353,-2.232651671093321077
0.649000000000000465,-2.219385310633866126
0.650000000000000355,-2.206196565430146084
0.651000000000000467,-2.193084865452714638
0.652000000000000357,-2.180049646348412473
0.653000000000000469,-2.167090349423570039
0.654000000000000359,-2.154206421624900614
0.655000000000000471,-2.141397315517998834
0.656000000000000361,-2.128662489263752455
0.657000000000000473,-2.116001406592559864
0.658000000000000362,-2.103413536776703729
0.659000000000000474,-2.090898354600736031
0.660000000000000364,-2.078455340330182644
0.661000000000000476,-2.066083979678481342
0.662000000000000366,-2.053783763772412563
0.663000000000000478,-2.041554189115971862
