# TiO2-ana-100_CS-3320-AC
# h[nm],U(h)[kJ/mol]
0.200000000000000011,42.058973197689127232
0.201000000000000012,41.475895445898487424
0.202000000000000013,40.832924896713528540
0.203000000000000014,40.167102550612526102
0.204000000000000015,39.500016968726029631
0.205000000000000016,38.843277841475149614
0.206000000000000016,38.202255145376902590
0.207000000000000017,37.578588721364845071
0.208000000000000018,36.971835857097602229
0.209000000000000019,36.380522495678334849
0.210000000000000020,35.802788353552564615
0.211000000000000021,35.236760893994585331
0.212000000000000022,34.680752733498742657
0.213000000000000023,34.133347835494006972
0.214000000000000024,33.593420879615187857
0.215000000000000024,33.060119308404310345
0.216000000000000025,32.532827113510812467
0.217000000000000026,32.011122210467590321
0.218000000000000027,31.494734358731648172
0.219000000000000028,30.983507342572288223
0.220000000000000029,30.477367047501523700
0.221000000000000030,29.976295788754743654
0.222000000000000031,29.480312514877368812
0.223000000000000032,28.989458136578615921
0.224000000000000032,28.503785088836728789
0.225000000000000033,28.023350232665347193
0.226000000000000034,27.548210280637828618
0.227000000000000035,27.078419046524352609
0.228000000000000036,26.614025948149013345
0.229000000000000037,26.155075317951013147
0.230000000000000038,25.701606188845580903
0.231000000000000039,25.253652319596106679
0.232000000000000040,24.811242302806473248
0.233000000000000040,24.374399660439927118
0.234000000000000041,23.943142878129183515
0.235000000000000042,23.517485362621794565
0.236000000000000043,23.097435328815798528
0.237000000000000044,22.682995636220148583
0.238000000000000045,22.274163601363262899
0.239000000000000046,21.870930814449923929
0.240000000000000047,21.473282986925212867
0.241000000000000048,21.081199852763425895
0.242000000000000048,20.694655141216383498
0.243000000000000049,20.313616633159618630
0.244000000000000050,19.938046307602697027
0.245000000000000051,19.567900579748204848
0.246000000000000052,19.203130627435129441
0.247000000000000053,18.843682799017219764
0.248000000000000054,18.489499092761541021
0.249000000000000055,18.140517695701369405
0.250000000000000056,17.796673568494632889
0.251000000000000056,17.457899062150552538
0.252000000000000057,17.124124552403255706
0.253000000000000058,16.795279077934019085
0.254000000000000059,16.471290969474672750
0.255000000000000060,16.152088457968936552
0.256000000000000061,15.837600251336851898
0.257000000000000062,15.527756070901210350
0.258000000000000063,15.222487140123885041
0.259000000000000064,14.921726619905182787
0.260000000000000064,14.625409986271582952
0.261000000000000065,14.333475347778184883
0.262000000000000066,14.045863701349938779
0.263000000000000067,13.762519126560949445
0.264000000000000068,13.483388919486824165
0.265000000000000069,13.208423668254093641
0.266000000000000070,12.937577273250116860
0.267000000000000071,12.670806915646704027
0.268000000000000071,12.408072978437253653
0.269000000000000072,12.149338924596563061
0.270000000000000073,11.894571137255017135
0.271000000000000074,11.643738726945038309
0.272000000000000075,11.396813311039370120
0.273000000000000076,11.153768770470339433
0.274000000000000077,10.914580988708642906
0.275000000000000078,10.679227577802091531
0.276000000000000079,10.447687596040164948
0.277000000000000079,10.219941261530610888
0.278000000000000080,9.995969665660020098
0.279000000000000081,9.775754490070255542
0.280000000000000082,9.559277730426083863
0.281000000000000083,9.346521429883219767
0.282000000000000084,9.137467424797744542
0.283000000000000085,8.932097104852797287
0.284000000000000086,8.730391189421435882
0.285000000000000087,8.532329521640566128
0.286000000000000087,8.337890881342129745
0.287000000000000088,8.147052817677970182
0.288000000000000089,7.959791501985361784
0.289000000000000090,7.776081601172853297
0.290000000000000091,7.595896171661988383
0.291000000000000092,7.419206573699321794
0.292000000000000093,7.245982405656166137
0.293000000000000094,7.076191457759557935
0.294000000000000095,6.909799684546977794
0.295000000000000095,6.746771195208222771
0.296000000000000096,6.587068260870333702
0.297000000000000097,6.430651337793351630
0.298000000000000098,6.277479105376093216
0.299000000000000099,6.127508517819391543
0.300000000000000100,5.980694868259294417
0.301000000000000101,5.836991864162031973
0.302000000000000102,5.696351712765939546
0.303000000000000103,5.558725215360114547
0.304000000000000103,5.424061869205965891
0.305000000000000104,5.292309975932609767
0.306000000000000105,5.163416755270793246
0.307000000000000106,5.037328463030403825
0.308000000000000107,4.913990512272921940
0.309000000000000108,4.793347596681533318
0.310000000000000109,4.675343815186337793
0.311000000000000110,4.559922796960680813
0.312000000000000111,4.447027825964063652
0.313000000000000111,4.336601964269300780
0.314000000000000112,4.228588173473416312
0.315000000000000113,4.122929433554277878
0.316000000000000114,4.019568858596823446
0.317000000000000115,3.918449808873745610
0.318000000000000116,3.819515998825070646
0.319000000000000117,3.722711600539093446
0.320000000000000118,3.627981342393094444
0.321000000000000119,3.535270602565872000
0.322000000000000119,3.444525497185515484
0.323000000000000120,3.355692962924561762
0.324000000000000121,3.268720833900421674
0.325000000000000122,3.183557912782295496
0.326000000000000123,3.100154036046055772
0.327000000000000124,3.018460133355863384
0.328000000000000125,2.938428281085897265
0.329000000000000126,2.860011750027236843
0.330000000000000127,2.783165047353698185
0.331000000000000127,2.707843952946607846
0.332000000000000128,2.634005550201891754
0.333000000000000129,2.561608251463630914
0.334000000000000130,2.490611818246712517
0.335000000000000131,2.420977376426933780
0.336000000000000132,2.352667426590911326
0.337000000000000133,2.285645849749431857
0.338000000000000134,2.219877908627426066
0.339000000000000135,2.155330244751549884
0.340000000000000135,2.091970871561821266
0.341000000000000136,2.029769163778215368
0.342000000000000137,1.968695843255526157
0.343000000000000138,1.908722961561129194
0.344000000000000139,1.849823879509978397
0.345000000000000140,1.791973243890080170
0.346000000000000141,1.735146961609072447
0.347000000000000142,1.679322171489389559
0.348000000000000143,1.624477213935066278
0.349000000000000143,1.570591598688380941
0.350000000000000144,1.517645970888757079
0.351000000000000145,1.465622075640156785
0.352000000000000146,1.414502721286321707
0.353000000000000147,1.364271741586116748
0.354000000000000148,1.314913956973589482
0.355000000000000149,1.266415135079540288
0.356000000000000150,1.218761950683344919
0.357000000000000151,1.171941945255511985
0.358000000000000151,1.125943486243132785
0.359000000000000152,1.080755726241992232
0.360000000000000153,1.036368562190613796
0.361000000000000154,0.992772594713299483
0.362000000000000155,0.949959087730692930
0.363000000000000156,0.907919928448343683
0.364000000000000157,0.866647587825607579
0.365000000000000158,0.826135081619188916
0.366000000000000159,0.786375932088102081
0.367000000000000159,0.747364130439002960
0.368000000000000160,0.709094100083748513
0.369000000000000161,0.671560660773790064
0.370000000000000162,0.634758993669199412
0.371000000000000163,0.598684607393567436
0.372000000000000164,0.563333305119598116
0.373000000000000165,0.528701152724265766
0.374000000000000166,0.494784448046444225
0.375000000000000167,0.461579691274661030
0.376000000000000167,0.429083556487120987
0.377000000000000168,0.397292864361358744
0.378000000000000169,0.366204556066180964
0.379000000000000170,0.335815668344090934
0.380000000000000171,0.306123309788285947
0.381000000000000172,0.277124638314486083
0.382000000000000173,0.248816839824183594
0.383000000000000174,0.221197108052560487
0.384000000000000175,0.194262625591246796
0.385000000000000175,0.168010546073217804
0.386000000000000176,0.142437977504412228
0.387000000000000177,0.117541966724425601
0.388000000000000178,0.093319484976212938
0.389000000000000179,0.069767414562979121
0.390000000000000180,0.046882536568487107
0.391000000000000181,0.024661519615491834
0.392000000000000182,0.003100909635652638
0.393000000000000183,-0.017802879377070768
0.394000000000000183,-0.038053573658475594
0.395000000000000184,-0.057655047041561013
0.396000000000000185,-0.076611327429991993
0.397000000000000186,-0.094926602408840655
0.398000000000000187,-0.112605224024382888
0.399000000000000188,-0.129651712765050942
0.400000000000000189,-0.146070760775842523
0.401000000000000190,-0.161867234338752830
0.402000000000000191,-0.177046175651660753
0.403000000000000191,-0.191612803938147641
0.404000000000000192,-0.205572515920552673
0.405000000000000193,-0.218930885688284504
0.406000000000000194,-0.231693663993182142
0.407000000000000195,-0.243866777003283186
0.408000000000000196,-0.255456324545926206
0.409000000000000197,-0.266468577870645373
0.410000000000000198,-0.276909976961773496
0.411000000000000199,-0.286787127430000066
0.412000000000000199,-0.296106797011643885
0.413000000000000200,-0.304875911703568869
0.414000000000000201,-0.313101551561115965
0.415000000000000202,-0.320790946185587011
0.416000000000000203,-0.327951469927135364
0.417000000000000204,-0.334590636828126398
0.418000000000000205,-0.340716095331227931
0.419000000000000206,-0.346335622775738095
0.420000000000000207,-0.351457119704774335
0.421000000000000207,-0.356088604005248333
0.422000000000000208,-0.360238204901572712
0.423000000000000209,-0.363914156823407609
0.424000000000000210,-0.367124793166786867
0.425000000000000211,-0.369878539967205877
0.426000000000000212,-0.372183909502486698
0.427000000000000213,-0.374049493842315617
0.428000000000000214,-0.375483958360688319
0.429000000000000214,-0.376496035226592862
0.430000000000000215,-0.377094516887569176
0.431000000000000216,-0.377288249559979139
0.432000000000000217,-0.377086126739089200
0.433000000000000218,-0.376497082741303779
0.434000000000000219,-0.375530086290228937
0.435000000000000220,-0.374194134157492697
0.436000000000000221,-0.372498244868571304
0.437000000000000222,-0.370451452483216870
0.438000000000000222,-0.368062800459434125
0.439000000000000223,-0.365341335609313256
0.440000000000000224,-0.362296102154411104
0.441000000000000225,-0.358936135887781893
0.442000000000000226,-0.355270458449219562
0.443000000000000227,-0.351308071719637127
0.444000000000000228,-0.347057952340084797
0.445000000000000229,-0.342529046360289802
0.446000000000000230,-0.337730264021156912
0.447000000000000230,-0.332670474675211547
0.448000000000000231,-0.327358501848457106
0.449000000000000232,-0.321803118446687464
0.450000000000000233,-0.316013042108959252
0.451000000000000234,-0.309996930710371876
0.452000000000000235,-0.303763378016096930
0.453000000000000236,-0.297320909488062446
0.454000000000000237,-0.290677978245513668
0.455000000000000238,-0.283842961180188424
0.456000000000000238,-0.276824155226656599
0.457000000000000239,-0.269629773787993743
0.458000000000000240,-0.262267943316730479
0.459000000000000241,-0.254746700050692720
0.460000000000000242,-0.247073986903199705
0.461000000000000243,-0.239257650506713576
0.462000000000000244,-0.231305438408974856
0.463000000000000245,-0.223224996420262334
0.464000000000000246,-0.215023866110436529
0.465000000000000246,-0.206709482454056293
0.466000000000000247,-0.198289171621805288
0.467000000000000248,-0.189770148916270198
0.468000000000000249,-0.181159516849983104
0.469000000000000250,-0.172464263363489190
0.470000000000000251,-0.163691260181107995
0.471000000000000252,-0.154847261301906236
0.472000000000000253,-0.145938901623379469
0.473000000000000254,-0.136972695695124630
0.474000000000000254,-0.127955036599847555
0.475000000000000255,-0.118892194958853753
0.476000000000000256,-0.109790318059194231
0.477000000000000257,-0.100655429099543642
0.478000000000000258,-0.091493426551833762
0.479000000000000259,-0.082310083635659684
0.480000000000000260,-0.073111047902416335
0.481000000000000261,-0.063901840926087972
0.482000000000000262,-0.054687858097635975
0.483000000000000262,-0.045474368519880543
0.484000000000000263,-0.036266514999753717
0.485000000000000264,-0.027069314134853296
0.486000000000000265,-0.017887656491172875
0.487000000000000266,-0.008726306868905192
0.488000000000000267,0.000410095346742428
0.489000000000000268,0.009517035752798450
0.490000000000000269,0.018590124416908112
0.491000000000000270,0.027625095289832268
0.492000000000000270,0.036617805545108364
0.493000000000000271,0.045564234848797673
0.494000000000000272,0.054460484562277790
0.495000000000000273,0.063302776880983638
0.496000000000000274,0.072087453911928362
0.497000000000000275,0.080810976692860859
0.498000000000000276,0.089469924155805985
0.499000000000000277,0.098060992037728806
0.500000000000000222,0.106580991741028530
0.501000000000000334,0.115026849146463966
0.502000000000000224,0.123395603381121072
0.503000000000000336,0.131684405543965932
0.504000000000000226,0.139890517391437375
0.505000000000000338,0.148011309985561945
0.506000000000000227,0.156044262306905990
0.507000000000000339,0.163986959834756668
0.508000000000000229,0.171837093096745497
0.509000000000000341,0.179592456190181243
0.510000000000000231,0.187250945277181502
0.511000000000000343,0.194810557055793393
0.512000000000000233,0.202269387209072254
0.513000000000000345,0.209625628834165745
0.514000000000000234,0.216877570853279966
0.515000000000000346,0.224023596408486597
0.516000000000000236,0.231062181242107589
0.517000000000000348,0.237991892064512461
0.518000000000000238,0.244811384910990026
0.519000000000000350,0.251519403489401383
0.520000000000000240,0.258114777520177363
0.521000000000000352,0.264596421070217913
0.522000000000000242,0.270963330882213915
0.523000000000000353,0.277214584700802125
0.524000000000000243,0.283349339596972172
0.525000000000000355,0.289366830292044297
0.526000000000000245,0.295266367482517389
0.527000000000000357,0.301047336167036494
0.528000000000000247,0.306709193976646755
0.529000000000000359,0.312251469509505275
0.530000000000000249,0.317673760671116523
0.531000000000000361,0.322975733021166611
0.532000000000000250,0.328157118127936520
0.533000000000000362,0.333217711931270311
0.534000000000000252,0.338157373115004045
0.535000000000000364,0.342976021489725391
0.536000000000000254,0.347673636386689910
0.537000000000000366,0.352250255063704165
0.538000000000000256,0.356705971123684962
0.539000000000000368,0.361040932946645576
0.540000000000000258,0.365255342135736405
0.541000000000000369,0.369349451978021825
0.542000000000000259,0.373323565920536615
0.543000000000000371,0.377178036062229993
0.544000000000000261,0.380913261662293834
0.545000000000000373,0.384529687665378039
0.546000000000000263,0.388027803244155367
0.547000000000000375,0.391408140359670476
0.548000000000000265,0.394671272339841839
0.549000000000000377,0.397817812476532029
0.550000000000000266,0.400848412641479246
0.551000000000000378,0.403763761921430320
0.552000000000000268,0.406564585272751855
0.553000000000000380,0.409251642195772092
0.554000000000000270,0.411825725429083023
0.555000000000000382,0.414287659664034691
0.556000000000000272,0.416638300279559171
0.557000000000000384,0.418878532097546441
0.558000000000000274,0.421009268158841876
0.559000000000000385,0.423031448520049314
0.560000000000000275,0.424946039071184889
0.561000000000000387,0.426754030374285886
0.562000000000000277,0.428456436523032225
0.563000000000000389,0.430054294023402228
0.564000000000000279,0.431548660695405650
0.565000000000000391,0.432940614595886841
0.566000000000000281,0.434231252962393011
0.567000000000000393,0.435421691178079218
0.568000000000000282,0.436513061757602849
0.569000000000000394,0.437506513353968285
0.570000000000000284,0.438403209786239700
0.571000000000000396,0.439204329088041745
0.572000000000000286,0.439911062576751832
0.573000000000000398,0.440524613943298782
0.574000000000000288,0.441046198362421815
0.575000000000000400,0.441477041623272892
0.576000000000000290,0.441818379280246198
0.577000000000000401,0.442071455823846715
0.578000000000000291,0.442237523871483684
0.579000000000000403,0.442317843377992126
0.580000000000000293,0.442313680865735581
0.581000000000000405,0.442226308674086410
0.582000000000000295,0.442057004228116557
0.583000000000000407,0.441807049326290779
0.584000000000000297,0.441477729446977551
0.585000000000000409,0.441070333073547427
0.586000000000000298,0.440586151037882900
0.587000000000000410,0.440026475882041912
0.588000000000000300,0.439392601237894365
0.589000000000000412,0.438685821224477190
0.590000000000000302,0.437907429862862851
0.591000000000000414,0.437058720508272824
0.592000000000000304,0.436140985299250161
0.593000000000000416,0.435155514623611517
0.594000000000000306,0.434103596600951935
0.595000000000000417,0.432986516581460090
0.596000000000000307,0.431805556660806833
0.597000000000000419,0.430561995210830439
0.598000000000000309,0.429257106425802004
0.599000000000000421,0.427892159884010137
0.600000000000000311,0.426468420124401226
0.601000000000000423,0.424987146238038516
0.602000000000000313,0.423449591474122033
0.603000000000000425,0.421857002860320129
0.604000000000000314,0.420210620837147275
0.605000000000000426,0.418511678906150653
0.606000000000000316,0.416761403291648569
0.607000000000000428,0.414961012615757407
0.608000000000000318,0.413111717586470362
0.609000000000000430,0.411214720698527714
0.610000000000000320,0.409271215946834022
0.611000000000000432,0.407282388552162700
0.612000000000000322,0.405249414698922727
0.613000000000000433,0.403173461284707657
0.614000000000000323,0.401055685681417085
0.615000000000000435,0.398897235507673031
0.616000000000000325,0.396699248412325234
0.617000000000000437,0.394462851868772946
0.618000000000000327,0.392189162979880102
0.619000000000000439,0.389879288293252968
0.620000000000000329,0.387534323626636479
0.621000000000000441,0.385155353903192332
0.622000000000000330,0.382743452996454292
0.623000000000000442,0.380299683584691350
0.624000000000000332,0.377825097014508449
0.625000000000000444,0.375320733173401977
0.626000000000000334,0.372787620371103912
0.627000000000000446,0.370226775229455074
0.628000000000000336,0.367639202580625990
0.629000000000000448,0.365025895373441989
0.630000000000000338,0.362387834587636903
0.631000000000000449,0.359725989155784076
0.632000000000000339,0.357041315892758448
0.633000000000000451,0.354334759432465785
0.634000000000000341,0.351607252171697637
0.635000000000000453,0.348859714220860262
0.636000000000000343,0.346093053361448466
0.637000000000000455,0.343308165010008715
0.638000000000000345,0.340505932188455263
0.639000000000000457,0.337687225500526211
0.640000000000000346,0.334852903114213674
0.641000000000000458,0.332003810749976591
0.642000000000000348,0.329140781674575222
0.643000000000000460,0.326264636700337562
0.644000000000000350,0.323376184189712701
0.645000000000000462,0.320476220064910222
0.646000000000000352,0.317565527822501137
0.647000000000000464,0.314644878552783003
0.648000000000000353,0.311715030963781226
0.649000000000000465,0.308776731409704464
0.650000000000000355,0.305830713923732123
0.651000000000000467,0.302877700254954196
0.652000000000000357,0.299918399909338551
0.653000000000000469,0.296953510194571446
0.654000000000000359,0.293983716268636397
0.655000000000000471,0.291009691191988829
0.656000000000000361,0.288032095983194292
0.657000000000000473,0.285051579677896239
0.658000000000000362,0.282068779390982793
0.659000000000000474,0.279084320381831119
0.660000000000000364,0.276098816122497648
0.661000000000000476,0.273112868368732387
0.662000000000000366,0.270127067233713991
0.663000000000000478,0.267141991264358891
0.664000000000000368,0.264158207520129307
0.665000000000000480,0.261176271654187109
0.666000000000000369,0.258196727996827080
0.667000000000000481,0.255220109641041915
0.668000000000000371,0.252246938530156395
0.669000000000000483,0.249277725547389334
