# TiO2-ana-100_CS-8953-AC
# h[nm],U(h)[kJ/mol]
0.200000000000000011,45.112591563778437376
0.201000000000000012,44.369204159169228774
0.202000000000000013,43.613686815268778219
0.203000000000000014,42.862545815378460645
0.204000000000000015,42.123379271283582170
0.205000000000000016,41.398834741037035201
0.206000000000000016,40.689052912706031861
0.207000000000000017,39.993108203465354222
0.208000000000000018,39.309801655237336604
0.209000000000000019,38.638049577668098777
0.210000000000000020,37.977031583307081064
0.211000000000000021,37.326205405885005462
0.212000000000000022,36.685256779646088887
0.213000000000000023,36.054025914779472828
0.214000000000000024,35.432434200063205765
0.215000000000000024,34.820423101895698892
0.216000000000000025,34.217909912662065608
0.217000000000000026,33.624760657777208905
0.218000000000000027,33.040778115246837388
0.219000000000000028,32.465701836539892611
0.220000000000000029,31.899216795617224562
0.221000000000000030,31.340967499687302222
0.222000000000000031,30.790574846395038833
0.223000000000000032,30.247653561870823324
0.224000000000000032,29.711828611648474663
0.225000000000000033,29.182749489199476756
0.226000000000000034,28.660101727687788298
0.227000000000000035,28.143615339294335342
0.228000000000000036,27.633070163401203700
0.229000000000000037,27.128298306556366981
0.230000000000000038,26.629183993169242228
0.231000000000000039,26.135661227269487483
0.232000000000000040,25.647709703345952903
0.233000000000000040,25.165349408463782765
0.234000000000000041,24.688634337565556365
0.235000000000000042,24.217645706796254501
0.236000000000000043,23.752485002194561048
0.237000000000000044,23.293267148222497553
0.238000000000000045,22.840114026261254310
0.239000000000000046,22.393148520273676638
0.240000000000000047,21.952489217355324769
0.241000000000000048,21.518245846202070481
0.242000000000000048,21.090515497380536658
0.243000000000000049,20.669379636029390213
0.244000000000000050,20.254901890246564733
0.245000000000000051,19.847126576688033595
0.246000000000000052,19.446077908414959978
0.247000000000000053,19.051759818266955193
0.248000000000000054,18.664156323443798158
0.249000000000000055,18.283232352959885247
0.250000000000000056,17.908934958614601385
0.251000000000000056,17.541194831544814292
0.252000000000000057,17.179928049779480403
0.253000000000000058,16.825037987036942866
0.254000000000000059,16.476417318878780804
0.255000000000000060,16.133950068903999409
0.256000000000000061,15.797513644626857143
0.257000000000000062,15.466980819777655043
0.258000000000000063,15.142221626789805100
0.259000000000000064,14.823105130025220788
0.260000000000000064,14.509501056716350931
0.261000000000000065,14.201281268576014583
0.262000000000000066,13.898321062480698984
0.263000000000000067,13.600500293532874707
0.264000000000000068,13.307704318133522392
0.265000000000000069,13.019824758447615665
0.266000000000000070,12.736760092835426761
0.267000000000000071,12.458416079473606075
0.268000000000000071,12.184706022533976721
0.269000000000000072,11.915550891960799973
0.270000000000000073,11.650879309129333450
0.271000000000000074,11.390627411522283197
0.272000000000000075,11.134738610068998454
0.273000000000000076,10.883163252997965387
0.274000000000000077,10.635858209997342883
0.275000000000000078,10.392786390200985380
0.276000000000000079,10.153916207056028043
0.277000000000000079,9.919221002516291463
0.278000000000000080,9.688678442277085523
0.279000000000000081,9.462269892948308225
0.280000000000000082,9.239979791181417212
0.281000000000000083,9.021795013843618705
0.282000000000000084,8.807704257390289726
0.283000000000000085,8.597697433641119602
0.284000000000000086,8.391765088230801695
0.285000000000000087,8.189897847095013006
0.286000000000000087,7.992085895475391055
0.287000000000000088,7.798318493092085468
0.288000000000000089,7.608583528345624458
0.289000000000000090,7.422867113674928241
0.290000000000000091,7.241153223519873450
0.291000000000000092,7.063423375715039754
0.292000000000000093,6.889656356578720775
0.293000000000000094,6.719827989456400807
0.294000000000000095,6.553910946030748974
0.295000000000000095,6.391874599318438932
0.296000000000000096,6.233684916936466536
0.297000000000000097,6.079304392933964962
0.298000000000000098,5.928692016247362417
0.299000000000000099,5.781803273643782326
0.300000000000000100,5.638590184867185329
0.301000000000000101,5.499001367589587908
0.302000000000000102,5.362982129693930844
0.303000000000000103,5.230474586370668533
0.304000000000000103,5.101417799495618688
0.305000000000000104,4.975747936767179525
0.306000000000000105,4.853398448114694119
0.307000000000000106,4.734300256943282825
0.308000000000000107,4.618381963850944238
0.309000000000000108,4.505570060538921062
0.310000000000000109,4.395789151733213274
0.311000000000000110,4.288962183042519527
0.312000000000000111,4.185010672791976916
0.313000000000000111,4.083854945993121710
0.314000000000000112,3.985414368734754298
0.315000000000000113,3.889607581406691938
0.316000000000000114,3.796352729296605499
0.317000000000000115,3.705567689228401296
0.318000000000000116,3.617170291037507646
0.319000000000000117,3.531078532803320513
0.320000000000000118,3.447210788880981536
0.321000000000000119,3.365486009892689534
0.322000000000000119,3.285823913952879316
0.323000000000000120,3.208145168510745382
0.324000000000000121,3.132371562297604051
0.325000000000000122,3.058426166965325876
0.326000000000000123,2.986233488095147326
0.327000000000000124,2.915719605343343623
0.328000000000000125,2.846812301571669757
0.329000000000000126,2.779441180886084162
0.330000000000000127,2.713537775576764233
0.331000000000000127,2.649035642016462244
0.332000000000000128,2.585870445632368675
0.333000000000000129,2.523980035119233634
0.334000000000000130,2.463304506108977332
0.335000000000000131,2.403786254553820445
0.336000000000000132,2.345370020117401921
0.337000000000000133,2.288002919900480769
0.338000000000000134,2.231634472855716034
0.339000000000000135,2.176216615269722432
0.340000000000000135,2.121703707709889031
0.341000000000000136,2.068052533849412011
0.342000000000000137,2.015222291596082904
0.343000000000000138,1.963174576959379802
0.344000000000000139,1.911873361096205981
0.345000000000000140,1.861284960978782266
0.346000000000000141,1.811378004128679109
0.347000000000000142,1.762123387859167112
0.348000000000000143,1.713494233464083250
0.349000000000000143,1.665465835785591597
0.350000000000000144,1.618015608585605447
0.351000000000000145,1.571123026136618250
0.352000000000000146,1.524769561437179677
0.353000000000000147,1.478938621445763602
0.354000000000000148,1.433615479714124286
0.355000000000000149,1.388787206787842621
0.356000000000000150,1.344442598727642046
0.357000000000000151,1.300572104090336190
0.358000000000000151,1.257167749693133718
0.359000000000000152,1.214223065469581586
0.360000000000000153,1.171733008709625823
0.361000000000000154,1.129693887960620202
0.362000000000000155,1.088103286850044205
0.363000000000000156,1.046959988074990022
0.364000000000000157,1.006263897787767592
0.365000000000000158,0.966015970591284856
0.366000000000000159,0.926218135342801063
0.367000000000000159,0.886873221949362134
0.368000000000000160,0.847984889323781688
0.369000000000000161,0.809557554655540024
0.370000000000000162,0.771596324137147516
0.371000000000000163,0.734106925273056321
0.372000000000000164,0.697095640885114665
0.373000000000000165,0.660569244916129672
0.374000000000000166,0.624534940120892723
0.375000000000000167,0.589000297722728328
0.376000000000000167,0.553973199102345104
0.377000000000000168,0.519461779575431160
0.378000000000000169,0.485474374305410461
0.379000000000000170,0.452019466388300539
0.380000000000000171,0.419105637137650811
0.381000000000000172,0.386741518589198530
0.382000000000000173,0.354935748236857862
0.383000000000000174,0.323696926004290786
0.384000000000000175,0.293033573449365314
0.385000000000000175,0.262954095192399873
0.386000000000000176,0.233466742552966983
0.387000000000000177,0.204579579374723430
0.388000000000000178,0.176300450012384535
0.389000000000000179,0.148636949450523248
0.390000000000000180,0.121596395519459582
0.391000000000000181,0.095185803169687902
0.392000000000000182,0.069411860762881708
0.393000000000000183,0.044280908334244896
0.394000000000000183,0.019798917778346636
0.395000000000000184,-0.004028525091958546
0.396000000000000185,-0.027196236666013941
0.397000000000000186,-0.049699449889559141
0.398000000000000187,-0.071533826908546774
0.399000000000000188,-0.092695470059736301
0.400000000000000189,-0.113180931266195856
0.401000000000000190,-0.132987219896780390
0.402000000000000191,-0.152111809149062832
0.403000000000000191,-0.170552641015650763
0.404000000000000192,-0.188308129893994536
0.405000000000000193,-0.205377164899702119
0.406000000000000194,-0.221759110943297755
0.407000000000000195,-0.237453808629952606
0.408000000000000196,-0.252461573041255660
0.409000000000000197,-0.266783191457503621
0.410000000000000198,-0.280419920078262663
0.411000000000000199,-0.293373479798048398
0.412000000000000199,-0.305646051093155680
0.413000000000000200,-0.317240268074516052
0.414000000000000201,-0.328159211760461145
0.415000000000000202,-0.338406402622011826
0.416000000000000203,-0.347985792452127130
0.417000000000000204,-0.356901755609036919
0.418000000000000205,-0.365159079682424226
0.419000000000000206,-0.372762955629883930
0.420000000000000207,-0.379718967429605647
0.421000000000000207,-0.386033081293887415
0.422000000000000208,-0.391711634486472893
0.423000000000000209,-0.396761323785418174
0.424000000000000210,-0.401189193631537211
0.425000000000000211,-0.405002624001053690
0.426000000000000212,-0.408209318039633451
0.427000000000000213,-0.410817289493361160
0.428000000000000214,-0.412834849970870277
0.429000000000000214,-0.414270596069256203
0.430000000000000215,-0.415133396394997523
0.431000000000000216,-0.415432378509646150
0.432000000000000217,-0.415176915828615378
0.433000000000000218,-0.414376614499970208
0.434000000000000219,-0.413041300288795377
0.435000000000000220,-0.411181005491301932
0.436000000000000221,-0.408805955901516249
0.437000000000000222,-0.405926557852110015
0.438000000000000222,-0.402553385349631754
0.439000000000000223,-0.398697167323189661
0.440000000000000224,-0.394368775004383276
0.441000000000000225,-0.389579209455122810
0.442000000000000226,-0.384339589258871683
0.443000000000000227,-0.378661138389641494
0.444000000000000228,-0.372555174272103717
0.445000000000000229,-0.366033096045061623
0.446000000000000230,-0.359106373039528637
0.447000000000000230,-0.351786533481756480
0.448000000000000231,-0.344085153430531920
0.449000000000000232,-0.336013845957174873
0.450000000000000233,-0.327584250575911340
0.451000000000000234,-0.318808022931260926
0.452000000000000235,-0.309696824748511346
0.453000000000000236,-0.300262314052366142
0.454000000000000237,-0.290516135658327734
0.455000000000000238,-0.280469911940489314
0.456000000000000238,-0.270135233878896819
0.457000000000000239,-0.259523652388900905
0.458000000000000240,-0.248646669934396602
0.459000000000000241,-0.237515732426168580
0.460000000000000242,-0.226142221406175681
0.461000000000000243,-0.214537446517894692
0.462000000000000244,-0.202712638262575517
0.463000000000000245,-0.190678941040552857
0.464000000000000246,-0.178447406476598402
0.465000000000000246,-0.166028987027653452
0.466000000000000247,-0.153434529871043640
0.467000000000000248,-0.140674771070864818
0.468000000000000249,-0.127760330019925317
0.469000000000000250,-0.114701704154272610
0.470000000000000251,-0.101509263937109712
0.471000000000000252,-0.088193248108554514
0.472000000000000253,-0.074763759197572763
0.473000000000000254,-0.061230759292023464
0.474000000000000254,-0.047604066062723625
0.475000000000000255,-0.033893349037097217
0.476000000000000256,-0.020108126117912350
0.477000000000000257,-0.006257760342402064
0.478000000000000258,0.007648543123084784
0.479000000000000259,0.021601739757827466
0.480000000000000260,0.035592948235952715
0.481000000000000261,0.049613452755303801
0.482000000000000262,0.063654705151172442
0.483000000000000262,0.077708326800212335
0.484000000000000263,0.091766110319921573
0.485000000000000264,0.105820021069065823
0.486000000000000265,0.119862198454519245
0.487000000000000266,0.133884957049980380
0.488000000000000267,0.147880787532039759
0.489000000000000268,0.161842357439084095
0.490000000000000269,0.175762511758541434
0.491000000000000270,0.189634273347892568
0.492000000000000270,0.203450843194955600
0.493000000000000271,0.217205600522809489
0.494000000000000272,0.230892102744777949
0.495000000000000273,0.244504085274826199
0.496000000000000274,0.258035461198629246
0.497000000000000275,0.271480320810619236
0.498000000000000276,0.284832931022153901
0.499000000000000277,0.298087734645955948
0.500000000000000222,0.311239349561907352
0.501000000000000334,0.324282567769153096
0.502000000000000224,0.337212354329455788
0.503000000000000336,0.350023846206667932
0.504000000000000226,0.362712351007022871
0.505000000000000338,0.375273345625011523
0.506000000000000227,0.387702474799341112
0.507000000000000339,0.399995549583587962
0.508000000000000229,0.412148545735867067
0.509000000000000341,0.424157602031942915
0.510000000000000231,0.436019018505901801
0.511000000000000343,0.447729254622658890
0.512000000000000233,0.459284927386234998
0.513000000000000345,0.470682809387843015
0.514000000000000234,0.481919826797545803
0.515000000000000346,0.492993057303371895
0.516000000000000236,0.503899728001419689
0.517000000000000348,0.514637213240620506
0.518000000000000238,0.525203032425556327
0.519000000000000350,0.535594847780773820
0.520000000000000240,0.545810462079811765
0.521000000000000352,0.555847816342154966
0.522000000000000242,0.565704987501195133
0.523000000000000353,0.575380186046195341
0.524000000000000243,0.584871753641142300
0.525000000000000355,0.594178160723304427
0.526000000000000245,0.603298004084193318
0.527000000000000357,0.612230004435578956
0.528000000000000247,0.620973003963044667
0.529000000000000359,0.629525963869578153
0.530000000000000249,0.637887961911501877
0.531000000000000361,0.646058189929053284
0.532000000000000250,0.654035951373767133
0.533000000000000362,0.661820658834784248
0.534000000000000252,0.669411831566087301
0.535000000000000364,0.676809093016611074
0.536000000000000254,0.684012168365065065
0.537000000000000366,0.691020882061292308
0.538000000000000256,0.697835155375803318
0.539000000000000368,0.704455003959180481
0.540000000000000258,0.710880535412843906
0.541000000000000369,0.717111946872729944
0.542000000000000259,0.723149522607226314
0.543000000000000371,0.728993631630767913
0.544000000000000261,0.734644725334336779
0.545000000000000373,0.740103335134088214
0.546000000000000263,0.745370070139252272
0.547000000000000375,0.750445614840418940
0.548000000000000265,0.755330726819178566
0.549000000000000377,0.760026234480159268
0.550000000000000266,0.764533034806310186
0.551000000000000378,0.768852091138321980
0.552000000000000268,0.772984430978973291
0.553000000000000380,0.776931143823156867
0.554000000000000270,0.780693379014269717
0.555000000000000382,0.784272343627644863
0.556000000000000272,0.787669300381582560
0.557000000000000384,0.790885565576587957
0.558000000000000274,0.793922507063267391
0.559000000000000385,0.796781542239401563
0.560000000000000275,0.799464136076578624
0.561000000000000387,0.801971799176791733
0.562000000000000277,0.804306085859344710
0.563000000000000389,0.806468592278356433
0.564000000000000279,0.808460954571150636
0.565000000000000391,0.810284847037750167
0.566000000000000281,0.811941980351690296
0.567000000000000393,0.813434099802303079
0.568000000000000282,0.814762983568614318
0.569000000000000394,0.815930441024967812
0.570000000000000284,0.816938311078438395
0.571000000000000396,0.817788460538090733
0.572000000000000286,0.818482782516094076
0.573000000000000398,0.819023194860716841
0.574000000000000288,0.819411638621142524
0.575000000000000400,0.819650076544054640
0.576000000000000290,0.819740491601956167
0.577000000000000401,0.819684885553068066
0.578000000000000291,0.819485277532744250
0.579000000000000403,0.819143702676229934
0.580000000000000293,0.818662210772634125
0.581000000000000405,0.818042864949920956
0.582000000000000295,0.817287740390756356
0.583000000000000407,0.816398923078978433
0.584000000000000297,0.815378508576503735
0.585000000000000409,0.814228600830391946
0.586000000000000298,0.812951311009880273
0.587000000000000410,0.811548756373056457
0.588000000000000300,0.810023059162969239
0.589000000000000412,0.808376345532837548
0.590000000000000302,0.806610744500106946
0.591000000000000414,0.804728386929002726
0.592000000000000304,0.802731404541324522
0.593000000000000416,0.800621928955112083
0.594000000000000306,0.798402090750876647
0.595000000000000417,0.796074018565054331
0.596000000000000307,0.793639838210355886
0.597000000000000419,0.791101671822625141
0.598000000000000309,0.788461637033887941
0.599000000000000421,0.785721846171227312
0.600000000000000311,0.782884405481090284
0.601000000000000423,0.779951414378692753
0.602000000000000313,0.776924964722131350
0.603000000000000425,0.773807140110832292
0.604000000000000314,0.770600015207952183
0.605000000000000426,0.767305655086356730
0.606000000000000316,0.763926114597797912
0.607000000000000428,0.760463437764887229
0.608000000000000318,0.756919657195499918
0.609000000000000430,0.753296793519208085
0.610000000000000320,0.749596854845370086
0.611000000000000432,0.745821836242461789
0.612000000000000322,0.741973719238305685
0.613000000000000433,0.738054471340758189
0.614000000000000323,0.734066045578515958
0.615000000000000435,0.730010380061612230
0.616000000000000325,0.725889397561265914
0.617000000000000437,0.721705005108652764
0.618000000000000327,0.717459093612245580
0.619000000000000439,0.713153537493340206
0.620000000000000329,0.708790194339382396
0.621000000000000441,0.704370904574714851
0.622000000000000330,0.699897491148397499
0.623000000000000442,0.695371759238682996
0.624000000000000332,0.690795495973846152
0.625000000000000444,0.686170470168920410
0.626000000000000334,0.681498432078063598
0.627000000000000446,0.676781113162119197
0.628000000000000336,0.672020225871080235
0.629000000000000448,0.667217463441047598
0.630000000000000338,0.662374499705392639
0.631000000000000449,0.657492988919709420
0.632000000000000339,0.652574565600296252
0.633000000000000451,0.647620844375749849
0.634000000000000341,0.642633419851406984
0.635000000000000453,0.637613866486238745
0.636000000000000343,0.632563738481948690
0.637000000000000455,0.627484569683867677
0.638000000000000345,0.622377873493408229
0.639000000000000457,0.617245142791701285
0.640000000000000346,0.612087849874161649
0.641000000000000458,0.606907446395625771
0.642000000000000348,0.601705363325811149
0.643000000000000460,0.596483010914756973
0.644000000000000350,0.591241778668003759
0.645000000000000462,0.585983035331165802
0.646000000000000352,0.580708128883683949
0.647000000000000464,0.575418386541412197
0.648000000000000353,0.570115114767827280
0.649000000000000465,0.564799599293532961
0.650000000000000355,0.559473105143860838
0.651000000000000467,0.554136876674242274
0.652000000000000357,0.548792137613149267
0.653000000000000469,0.543440091112318058
0.654000000000000359,0.538081919804034969
0.655000000000000471,0.532718785865224809
0.656000000000000361,0.527351831088121115
0.657000000000000473,0.521982176957262789
0.658000000000000362,0.516610924732617827
0.659000000000000474,0.511239155538589118
0.660000000000000364,0.505867930458693715
0.661000000000000476,0.500498290635686738
0.662000000000000366,0.495131257376949740
0.663000000000000478,0.489767832264890068
0.664000000000000368,0.484408997272208097
0.665000000000000480,0.479055714881769901
0.666000000000000369,0.473708928210954117
0.667000000000000481,0.468369561140228097
0.668000000000000371,0.463038518445818448
0.669000000000000483,0.457716685936247480
0.670000000000000373,0.452404930592597787
