# TiO2-ana-100_CS-8898-AC
# h[nm],U(h)[kJ/mol]
0.149999999999999994,87.471757574953258541
0.150999999999999995,87.171389700696138902
0.151999999999999996,85.479627480194665168
0.152999999999999997,83.534087489202946131
0.153999999999999998,81.750826253970302560
0.154999999999999999,80.205393169143775367
0.156000000000000000,78.839494455667121997
0.157000000000000001,77.564578987305793589
0.158000000000000002,76.306974156440503521
0.159000000000000002,75.021825511013929599
0.160000000000000003,73.691955014948547387
0.161000000000000004,72.320748032012133422
0.162000000000000005,70.923881533118759535
0.163000000000000006,69.522154629561853767
0.164000000000000007,68.136236545518528374
0.165000000000000008,66.783384251190483383
0.166000000000000009,65.475827815521626007
0.167000000000000010,64.220401000668104530
0.168000000000000010,63.018998481193193584
0.169000000000000011,61.869503240937504529
0.170000000000000012,60.766909878823618385
0.171000000000000013,59.704450965660136319
0.172000000000000014,58.674604209417246636
0.173000000000000015,57.669914317942740922
0.174000000000000016,56.683604932904600560
0.175000000000000017,55.709984458417068254
0.176000000000000018,54.744667354683130611
0.177000000000000018,53.784641961664910070
0.178000000000000019,52.828219411544026229
0.179000000000000020,51.874897590802262926
0.180000000000000021,50.925170950616418963
0.181000000000000022,49.980312400569168574
0.182000000000000023,49.042148398070551707
0.183000000000000024,48.112843242146524858
0.184000000000000025,47.194703863835378854
0.185000000000000026,46.290012286015610243
0.186000000000000026,45.400889497242317816
0.187000000000000027,44.529191761115420434
0.188000000000000028,43.676438326525399702
0.189000000000000029,42.843768045305118619
0.190000000000000030,42.031921457121541152
0.191000000000000031,41.241244376827232543
0.192000000000000032,40.471708829409166697
0.193000000000000033,39.722947241626251014
0.194000000000000034,38.994296046498462260
0.195000000000000034,38.284845226718701383
0.196000000000000035,37.593490766243412793
0.197000000000000036,36.918987456347835518
0.198000000000000037,36.259999983049986838
0.199000000000000038,35.615150684768750011
0.200000000000000039,34.983062796925601390
0.201000000000000040,34.362398384058693068
0.202000000000000041,33.751890494501942896
0.203000000000000042,33.150369355875042743
0.204000000000000042,32.556782662229693415
0.205000000000000043,31.970210188270336005
0.206000000000000044,31.389873106446078310
0.207000000000000045,30.815138483498817124
0.208000000000000046,30.245519499243151529
0.209000000000000047,29.680671967027461022
0.210000000000000048,29.120387747439185233
0.211000000000000049,28.564585639045994014
0.212000000000000050,28.013300306600854128
0.213000000000000050,27.466669772036159003
0.214000000000000051,26.924921950109439450
0.215000000000000052,26.388360661653102568
0.216000000000000053,25.857351505471701358
0.217000000000000054,25.332307917044062151
0.218000000000000055,24.813677689947287064
0.219000000000000056,24.301930185593612066
0.220000000000000057,23.797544409410527066
0.221000000000000058,23.300998087682678772
0.222000000000000058,22.812757839354190992
0.223000000000000059,22.333270501419654863
0.224000000000000060,21.862955635201370086
0.225000000000000061,21.402199213786975207
0.226000000000000062,20.951348468050195351
0.227000000000000063,20.510707849788563095
0.228000000000000064,20.080536055322440347
0.229000000000000065,19.661044041106315206
0.230000000000000066,19.252393954187816405
0.231000000000000066,18.854698894376731744
0.232000000000000067,18.468023421427311348
0.233000000000000068,18.092384719066892274
0.234000000000000069,17.727754328014547980
0.235000000000000070,17.374060361933054253
0.236000000000000071,17.031190123276033432
0.237000000000000072,16.698993039982564568
0.238000000000000073,16.377283848709744518
0.239000000000000073,16.065845955581881555
0.240000000000000074,15.764434911094522107
0.241000000000000075,15.472781941692492325
0.242000000000000076,15.190597486509867409
0.243000000000000077,14.917574693706097122
0.244000000000000078,14.653392836663950760
0.245000000000000079,14.397720615955922341
0.246000000000000080,14.150219318376823452
0.247000000000000081,13.910545809434896825
0.248000000000000081,13.678355340458576705
0.249000000000000082,13.453304155887959581
0.250000000000000111,13.235051890364436744
0.251000000000000112,13.023263748904124526
0.252000000000000113,12.817612466739813470
0.253000000000000114,12.617780048350223154
0.254000000000000115,12.423459287772843140
0.255000000000000115,12.234355074534333241
0.256000000000000116,12.050185491444745267
0.257000000000000117,11.870682712110214752
0.258000000000000118,11.695593707342093026
0.259000000000000119,11.524680770700740595
0.260000000000000120,11.357721874231032189
0.261000000000000121,11.194510866046234909
0.262000000000000122,11.034857521818100423
0.263000000000000123,10.878587462455630686
0.264000000000000123,10.725541950322572404
0.265000000000000124,10.575577576274222125
0.266000000000000125,10.428565849605114124
0.267000000000000126,10.284392702709117984
0.268000000000000127,10.142957921876439187
0.269000000000000128,10.004174515205233931
0.270000000000000129,9.867968028100344569
0.271000000000000130,9.734275816281932947
0.272000000000000131,9.603046285643332070
0.273000000000000131,9.474238107690009514
0.274000000000000132,9.347819418669732983
0.275000000000000133,9.223767009875214029
0.276000000000000134,9.102065515972153520
0.277000000000000135,8.982706607583494929
0.278000000000000136,8.865688193749875268
0.279000000000000137,8.751013639291569390
0.280000000000000138,8.638691001521877411
0.281000000000000139,8.528732290209164901
0.282000000000000139,8.421152754156882025
0.283000000000000140,8.315970197269711761
0.284000000000000141,8.213204326501152508
0.285000000000000142,8.112876133633523779
0.286000000000000143,8.015007312427107067
0.287000000000000144,7.919619712290254299
0.288000000000000145,7.826734829266946747
0.289000000000000146,7.736373334812529201
0.290000000000000147,7.648554642530740466
0.291000000000000147,7.563296512775899316
0.292000000000000148,7.480614694781340113
0.293000000000000149,7.400522605758884431
0.294000000000000150,7.323031046222034490
0.295000000000000151,7.248147950617602753
0.296000000000000152,7.175878172204372518
0.297000000000000153,7.106223300992707159
0.298000000000000154,7.039181513453769412
0.299000000000000155,6.974747452620280619
0.300000000000000155,6.912912137131101531
0.301000000000000156,6.853662897718199254
0.302000000000000157,6.796983339595013440
0.303000000000000158,6.742853329179517630
0.304000000000000159,6.691249003571163811
0.305000000000000160,6.642142801198247071
0.306000000000000161,6.595503512058925821
0.307000000000000162,6.551296345995207382
0.308000000000000163,6.509483017462663668
0.309000000000000163,6.470021845289307016
0.310000000000000164,6.432867865953537212
0.311000000000000165,6.397972958952865774
0.312000000000000166,6.365285982881286664
0.313000000000000167,6.334752920882950278
0.314000000000000168,6.306317034202822747
0.315000000000000169,6.279919022610205737
0.316000000000000170,6.255497190528164886
0.317000000000000171,6.232987617760485932
0.318000000000000171,6.212324333767090145
0.319000000000000172,6.193439494498661269
0.320000000000000173,6.176263560861098512
0.321000000000000174,6.160725477940088624
0.322000000000000175,6.146752854174956759
0.323000000000000176,6.134272139729226581
0.324000000000000177,6.123208803362318875
0.325000000000000178,6.113487507162613355
0.326000000000000179,6.105032278556299374
0.327000000000000179,6.097766679059166250
0.328000000000000180,6.091613969289435992
0.329000000000000181,6.086497269808544885
0.330000000000000182,6.082339717404254387
0.331000000000000183,6.079064616475179150
0.332000000000000184,6.076595585219201290
0.333000000000000185,6.074856696369042020
0.334000000000000186,6.073772612257170245
0.335000000000000187,6.073268714029099513
0.336000000000000187,6.073271224858736161
0.337000000000000188,6.073707327052161986
0.338000000000000189,6.074505272956786328
0.339000000000000190,6.075594489621389371
0.340000000000000191,6.076905677179309073
0.341000000000000192,6.078370900951605371
0.342000000000000193,6.079923677290045347
0.343000000000000194,6.081499053200635885
0.344000000000000195,6.083033679808020011
0.345000000000000195,6.084465879738341521
0.346000000000000196,6.085735708514558695
0.347000000000000197,6.086785010072421009
0.348000000000000198,6.087557466518449090
0.349000000000000199,6.087998642262855142
0.350000000000000200,6.088056022670506273
0.351000000000000201,6.087679047382171582
0.352000000000000202,6.086819138465945578
0.353000000000000203,6.085429723565420446
0.354000000000000203,6.083466254216885361
0.355000000000000204,6.080886219512164459
0.356000000000000205,6.077649155287622840
0.357000000000000206,6.073716649022376401
0.358000000000000207,6.069052340630873843
0.359000000000000208,6.063621919336118715
0.360000000000000209,6.057393116810194655
0.361000000000000210,6.050335696768813776
0.362000000000000210,6.042421441205537036
0.363000000000000211,6.033624133450283367
0.364000000000000212,6.023919538234705051
0.365000000000000213,6.013285378944859261
0.366000000000000214,6.001701312238882480
0.367000000000000215,5.989148900204355641
0.368000000000000216,5.975611580226531494
0.369000000000000217,5.961074632735138934
0.370000000000000218,5.945525146993366761
0.371000000000000218,5.928951985088532162
0.372000000000000219,5.911345744279567604
0.373000000000000220,5.892698717852001167
0.374000000000000221,5.873004854626326043
0.375000000000000222,5.852259717261086180
0.376000000000000223,5.830460439486848223
0.377000000000000224,5.807605682402690483
0.378000000000000225,5.783695589961491912
0.379000000000000226,5.758731743765610922
0.380000000000000226,5.732717117289338304
0.381000000000000227,5.705656029639645688
0.382000000000000228,5.677554098961715923
0.383000000000000229,5.648418195590759971
0.384000000000000230,5.618256395046897111
0.385000000000000231,5.587077930964828631
0.386000000000000232,5.554893148045449536
0.387000000000000233,5.521713455111773250
0.388000000000000234,5.487551278346947115
0.389000000000000234,5.452420014787688451
0.390000000000000235,5.416333986141991907
0.391000000000000236,5.379308392995693744
0.392000000000000237,5.341359269468314963
0.393000000000000238,5.302503438374460032
0.394000000000000239,5.262758466943145308
0.395000000000000240,5.222142623143541940
0.396000000000000241,5.180674832661976481
0.397000000000000242,5.138374636571265697
0.398000000000000242,5.095262149730222845
0.399000000000000243,5.051358019947599587
0.400000000000000244,5.006683387941670560
0.401000000000000245,4.961259848123376948
0.402000000000000246,4.915109410228255982
0.403000000000000247,4.868254461819174317
0.404000000000000248,4.820717731679444285
0.405000000000000249,4.772522254113122919
0.406000000000000250,4.723691334166880473
0.407000000000000250,4.674248513785373760
0.408000000000000251,4.624217538909888070
0.409000000000000252,4.573622327527761655
0.410000000000000253,4.522486938678174972
0.411000000000000254,4.470835542417830766
0.412000000000000255,4.418692390748384824
0.413000000000000256,4.366081789505547484
0.414000000000000257,4.313028071208400149
0.415000000000000258,4.259555568865704522
0.416000000000000258,4.205688590734769861
0.417000000000000259,4.151451396026898166
0.418000000000000260,4.096868171552335625
0.419000000000000261,4.041963009296376974
0.420000000000000262,3.986759884917303598
0.421000000000000263,3.931282637155620652
0.422000000000000264,3.875554948143453693
0.423000000000000265,3.819600324601742702
0.424000000000000266,3.763442079912375782
0.425000000000000266,3.707103317051532176
0.426000000000000267,3.650606912369914969
0.427000000000000268,3.593975500204908968
0.428000000000000269,3.537231458309256116
0.429000000000000270,3.480396894080291847
0.430000000000000271,3.423493631573369278
0.431000000000000272,3.366543199282793886
0.432000000000000273,3.309566818673206789
0.433000000000000274,3.252585393444145545
0.434000000000000274,3.195619499510160999
0.435000000000000275,3.138689375678908711
0.436000000000000276,3.081814915009248868
0.437000000000000277,3.025015656831401945
0.438000000000000278,2.968310779411178935
0.439000000000000279,2.911719093240154876
0.440000000000000280,2.855259034933701923
0.441000000000000281,2.798948661718896336
0.442000000000000282,2.742805646494172578
0.443000000000000282,2.686847273442938722
0.444000000000000283,2.631090434183186666
0.445000000000000284,2.575551624435521880
0.446000000000000285,2.520246941191952583
0.447000000000000286,2.465192080368119321
0.448000000000000287,2.410402334921717848
0.449000000000000288,2.355892593420137793
0.450000000000000289,2.301677339040478110
0.451000000000000290,2.247770648985442765
0.452000000000000290,2.194186194298717751
0.453000000000000291,2.140937240063833347
0.454000000000000292,2.088036645970659411
0.455000000000000293,2.035496867234007468
0.456000000000000294,1.983329955849118420
0.457000000000000295,1.931547562169045662
0.458000000000000296,1.880160936789275983
0.459000000000000297,1.829180932725243069
0.460000000000000298,1.778618007868619344
0.461000000000000298,1.728482227708736385
0.462000000000000299,1.678783268305587439
0.463000000000000300,1.629530419501366456
0.464000000000000301,1.580732588357705692
0.465000000000000302,1.532398302806180723
0.466000000000000303,1.484535715499824660
0.467000000000000304,1.437152607853891428
0.468000000000000305,1.390256394264326678
0.469000000000000306,1.343854126492699308
0.470000000000000306,1.297952498206755845
0.471000000000000307,1.252557849665991041
0.472000000000000308,1.207676172541999993
0.473000000000000309,1.163313114863606446
0.474000000000000310,1.119473986077244021
0.475000000000000311,1.076163762213066644
0.476000000000000312,1.033387091148009418
0.477000000000000313,0.991148297956770952
0.478000000000000314,0.949451390342539669
0.479000000000000314,0.908300064139131891
0.480000000000000315,0.867697708876773888
0.481000000000000316,0.827647413403892029
0.482000000000000317,0.788151971557634168
0.483000000000000318,0.749213887876076012
0.484000000000000319,0.710835383345325811
0.485000000000000320,0.673018401175073278
0.486000000000000321,0.635764612596261047
0.487000000000000322,0.599075422674942959
0.488000000000000322,0.562951976136546905
0.489000000000000323,0.527395163195055638
0.490000000000000324,0.492405625381789502
0.491000000000000325,0.457983761368816744
0.492000000000000326,0.424129732782100533
0.493000000000000327,0.390843469999842263
0.494000000000000328,0.358124677931619728
0.495000000000000329,0.325972841774118838
0.496000000000000330,0.294387232739569460
0.497000000000000330,0.263366913752980658
0.498000000000000331,0.232910745114754347
0.499000000000000332,0.203017390125177222
0.500000000000000333,0.173685320667601839
0.501000000000000334,0.144912822747331221
0.502000000000000335,0.116698001983292207
0.503000000000000336,0.089038789049866104
0.504000000000000337,0.061932945066266273
0.505000000000000338,0.035378066931188543
0.506000000000000338,0.009371592600439582
0.507000000000000339,-0.016089193694513382
0.508000000000000340,-0.041007156288961746
0.509000000000000341,-0.065385302990203439
0.510000000000000342,-0.089226780047200374
0.511000000000000343,-0.112534867186265597
0.512000000000000344,-0.135312972714098922
0.513000000000000345,-0.157564628689502717
0.514000000000000346,-0.179293486164981364
0.515000000000000346,-0.200503310499197340
0.516000000000000347,-0.221197976741309782
0.517000000000000348,-0.241381465088026104
0.518000000000000349,-0.261057856414103118
0.519000000000000350,-0.280231327876969138
0.520000000000000351,-0.298906148596005672
0.521000000000000352,-0.317086675407027674
0.522000000000000353,-0.334777348692239851
0.523000000000000353,-0.351982688286121337
0.524000000000000354,-0.368707289457349485
0.525000000000000355,-0.384955818966997321
0.526000000000000356,-0.400733011203059319
0.527000000000000357,-0.416043664391330448
0.528000000000000358,-0.430892636882630353
0.529000000000000359,-0.445284843516202067
0.530000000000000360,-0.459225252059175859
0.531000000000000361,-0.472718879721861218
0.532000000000000361,-0.485770789748604215
0.533000000000000362,-0.498386088083856538
0.534000000000000363,-0.510569920113123632
0.535000000000000364,-0.522327467478369556
0.536000000000000365,-0.533663944967388448
0.537000000000000366,-0.544584597476694854
0.538000000000000367,-0.555094697047331942
0.539000000000000368,-0.565199539973108900
0.540000000000000369,-0.574904443980565949
0.541000000000000369,-0.584214745480124309
0.542000000000000370,-0.593135796887644728
0.543000000000000371,-0.601672964015819933
0.544000000000000372,-0.609831623534569989
0.545000000000000373,-0.617617160499768447
0.546000000000000374,-0.625034965949495924
0.547000000000000375,-0.632090434567030846
0.548000000000000376,-0.638788962409792438
0.549000000000000377,-0.645135944703377318
0.550000000000000377,-0.651136773699892535
0.551000000000000378,-0.656796836599654377
0.552000000000000379,-0.662121513535484318
0.553000000000000380,-0.667116175618617691
0.554000000000000381,-0.671786183045390950
0.555000000000000382,-0.676136883263825150
0.556000000000000383,-0.680173609199101747
0.557000000000000384,-0.683901677537135599
0.558000000000000385,-0.687326387065211097
0.559000000000000385,-0.690453017068828001
0.560000000000000386,-0.693286825783792637
0.561000000000000387,-0.695833048902618767
0.562000000000000388,-0.698096898134288324
0.563000000000000389,-0.700083559816488732
0.564000000000000390,-0.701798193579298291
0.565000000000000391,-0.703245931059457319
0.566000000000000392,-0.704431874664240065
0.567000000000000393,-0.705361096384022890
0.568000000000000393,-0.706038636652573937
0.569000000000000394,-0.706469503254166353
0.570000000000000395,-0.706658670276594347
0.571000000000000396,-0.706611077109101871
0.572000000000000397,-0.706331627484408475
0.573000000000000398,-0.705825188563824479
0.574000000000000399,-0.705096590064599793
0.575000000000000400,-0.704150623428588140
0.576000000000000401,-0.702992041031322290
0.577000000000000401,-0.701625555430654857
0.578000000000000402,-0.700055838654012108
0.579000000000000403,-0.698287521523449195
0.580000000000000404,-0.696325193017633071
0.581000000000000405,-0.694173399669847924
0.582000000000000406,-0.691836645001260742
0.583000000000000407,-0.689319388988501869
0.584000000000000408,-0.686626047564849351
0.585000000000000409,-0.683760992154092806
0.586000000000000409,-0.680728549236320646
0.587000000000000410,-0.677532999944848058
0.588000000000000411,-0.674178579693414326
0.589000000000000412,-0.670669477832984584
0.590000000000000413,-0.667009837337274814
0.591000000000000414,-0.663203754516311195
0.592000000000000415,-0.659255278757270968
0.593000000000000416,-0.655168412291814106
0.594000000000000417,-0.650947109989237438
0.595000000000000417,-0.646595279174733362
0.596000000000000418,-0.642116779471968990
0.597000000000000419,-0.637515422669423071
0.598000000000000420,-0.632794972609658002
0.599000000000000421,-0.627959145100971172
0.600000000000000422,-0.623011607850685878
0.601000000000000423,-0.617955980419463535
0.602000000000000424,-0.612795834196004252
0.603000000000000425,-0.607534692391503373
0.604000000000000425,-0.602176030053212408
0.605000000000000426,-0.596723274096560230
0.606000000000000427,-0.591179803355205036
0.607000000000000428,-0.585548948648396683
0.608000000000000429,-0.579833992865182890
0.609000000000000430,-0.574038171064754299
0.610000000000000431,-0.568164670592518517
0.611000000000000432,-0.562216631211251316
0.612000000000000433,-0.556197145246854374
0.613000000000000433,-0.550109257748195080
0.614000000000000434,-0.543955966660501167
0.615000000000000435,-0.537740223011811791
0.616000000000000436,-0.531464931112009986
0.617000000000000437,-0.525132948763977647
0.618000000000000438,-0.518747087486351233
