# TiO2-ana-100_CS-12814-AC
# h[nm],U(h)[kJ/mol]
0.200000000000000011,75.726750151247145482
0.201000000000000012,74.237557799968030281
0.202000000000000013,72.888387488114972257
0.203000000000000014,71.624214731201860218
0.204000000000000015,70.411298912808703676
0.205000000000000016,69.229979656867485005
0.206000000000000016,68.069624819353450107
0.207000000000000017,66.925152375991928011
0.208000000000000018,65.794690635850486160
0.209000000000000019,64.678050755966452812
0.210000000000000020,63.575769543310386211
0.211000000000000021,62.488544613003249140
0.212000000000000022,61.416932557404422255
0.213000000000000023,60.361217364034587263
0.214000000000000024,59.321383649281301587
0.215000000000000024,58.297149503825906436
0.216000000000000025,57.288028558078792685
0.217000000000000026,56.293401582133057559
0.218000000000000027,55.312585550936923084
0.219000000000000028,54.344893415817047355
0.220000000000000029,53.389681430413432395
0.221000000000000030,52.446383242348744602
0.222000000000000031,51.514531430342266560
0.223000000000000032,50.593768002557496288
0.224000000000000032,49.683845771657026091
0.225000000000000033,48.784622629980148645
0.226000000000000034,47.896050669913776687
0.227000000000000035,47.018161905581642657
0.228000000000000036,46.151052105669783998
0.229000000000000037,45.294863980018405414
0.230000000000000038,44.449770698633997768
0.231000000000000039,43.615960476063946771
0.232000000000000040,42.793622735207279106
0.233000000000000040,41.982936176625102576
0.234000000000000041,41.184058923173573419
0.235000000000000042,40.397120784176948405
0.236000000000000043,39.622217585994818023
0.237000000000000044,38.859407443625613610
0.238000000000000045,38.108708797532884205
0.239000000000000046,37.370100007758651373
0.240000000000000047,36.643520280317865456
0.241000000000000048,35.928871695829869282
0.242000000000000048,35.226022114628655402
0.243000000000000049,34.534808743838411260
0.244000000000000050,33.855042168088111509
0.245000000000000051,33.186510664969965489
0.246000000000000052,32.528984647643518713
0.247000000000000053,31.882221099031333722
0.248000000000000054,31.245967883980682700
0.249000000000000055,30.619967846918449084
0.250000000000000056,30.003962622426307405
0.251000000000000056,29.397696104481202184
0.252000000000000057,28.800917536638184657
0.253000000000000058,28.213384200072447072
0.254000000000000059,27.634863689118486008
0.255000000000000060,27.065135774780674893
0.256000000000000061,26.503993865720012479
0.257000000000000062,25.951246083557879984
0.258000000000000063,25.406715975112597050
0.259000000000000064,24.870242888544662918
0.260000000000000064,24.341682043484386355
0.261000000000000065,23.820904327204722506
0.262000000000000066,23.307795849930762699
0.263000000000000067,22.802257292591281868
0.264000000000000068,22.304203079849514779
0.265000000000000069,21.813560410224578590
0.266000000000000070,21.330268173646842911
0.267000000000000071,20.854275784978916874
0.268000000000000071,20.385541959972712789
0.269000000000000072,19.924033457898882915
0.270000000000000073,19.469723812747709246
0.271000000000000074,19.022592072519245221
0.272000000000000075,18.582621563742698356
0.273000000000000076,18.149798696033460743
0.274000000000000077,17.724111819241500143
0.275000000000000078,17.305550143594924606
0.276000000000000079,16.894102731215475899
0.277000000000000079,16.489757565493256664
0.278000000000000080,16.092500703066942691
0.279000000000000081,15.702315511565876349
0.280000000000000082,15.319181994836981175
0.281000000000000083,14.943076206099206615
0.282000000000000084,14.573969748339738572
0.283000000000000085,14.211829360283758206
0.284000000000000086,13.856616585426365873
0.285000000000000087,13.508287520905492229
0.286000000000000087,13.166792642407562752
0.287000000000000088,12.832076700826357651
0.288000000000000089,12.504078686030011269
0.289000000000000090,12.182731852821545360
0.290000000000000091,11.867963803997282568
0.291000000000000092,11.559696625302931849
0.292000000000000093,11.257847067053607049
0.293000000000000094,10.962326767210194944
0.294000000000000095,10.673042510784460646
0.295000000000000095,10.389896520569431360
0.296000000000000096,10.112786774355289054
0.297000000000000097,9.841607343985188550
0.298000000000000098,9.576248751826028638
0.299000000000000099,9.316598340469463224
0.300000000000000100,9.062540651734137143
0.301000000000000101,8.813957811306122991
0.302000000000000102,8.570729915627797624
0.303000000000000103,8.332735417920531518
0.304000000000000103,8.099851510503253138
0.305000000000000104,7.871954500841448876
0.306000000000000105,7.648920179029341959
0.307000000000000106,7.430624174669125281
0.308000000000000107,7.216942301363090451
0.309000000000000108,7.007750887277150120
0.310000000000000109,6.802927090464791604
0.311000000000000110,6.602349197860602814
0.312000000000000111,6.405896907058118650
0.313000000000000111,6.213451590181324313
0.314000000000000112,6.024896539339215984
0.315000000000000113,5.840117193320152111
0.316000000000000114,5.659001345336740485
0.317000000000000115,5.481439331773000134
0.318000000000000116,5.307324202013525394
0.319000000000000117,5.136551869550215699
0.320000000000000118,4.969021244665633219
0.321000000000000119,4.804634349083965361
0.322000000000000119,4.643296413061686501
0.323000000000000120,4.484915955460347270
0.324000000000000121,4.329404847404132006
0.325000000000000122,4.176678360176039106
0.326000000000000123,4.026655198048727513
0.327000000000000124,3.879257516779962778
0.328000000000000125,3.734410928528981266
0.329000000000000126,3.592044493969596353
0.330000000000000127,3.452090702388464827
0.331000000000000127,3.314485440564162388
0.332000000000000128,3.179167951224116884
0.333000000000000129,3.046080781873245602
0.334000000000000130,2.915169724780635185
0.335000000000000131,2.786383748898729529
0.336000000000000132,2.659674924475125213
0.337000000000000133,2.534998341098602559
0.338000000000000134,2.412312019900622939
0.339000000000000135,2.291576820611028964
0.340000000000000135,2.172756344141435925
0.341000000000000136,2.055816831344125628
0.342000000000000137,1.940727058566366070
0.343000000000000138,1.827458230591949118
0.344000000000000139,1.715983871532180460
0.345000000000000140,1.606279714199208453
0.346000000000000141,1.498323588464422595
0.347000000000000142,1.392095309074728560
0.348000000000000143,1.287576563369437377
0.349000000000000143,1.184750799310953173
0.350000000000000144,1.083603114212906338
0.351000000000000145,0.984120144520869267
0.352000000000000146,0.886289956972188597
0.353000000000000147,0.790101941434334321
0.354000000000000148,0.695546705694165324
0.355000000000000149,0.602615972444741632
0.356000000000000150,0.511302478691350926
0.357000000000000151,0.421599877774327336
0.358000000000000151,0.333502644183221175
0.359000000000000152,0.247005981314875112
0.360000000000000153,0.162105732306788208
0.361000000000000154,0.078798294057493307
0.362000000000000155,-0.002919465473628158
0.363000000000000156,-0.083050286612291482
0.364000000000000157,-0.161596593903076513
0.365000000000000158,-0.238560568589182870
0.366000000000000159,-0.313944217610645615
0.367000000000000159,-0.387749439107877847
0.368000000000000160,-0.459978084429782719
0.369000000000000161,-0.530632016657872740
0.370000000000000162,-0.599713165668753101
0.371000000000000163,-0.667223579767351693
0.372000000000000164,-0.733165473932638312
0.373000000000000165,-0.797541274725887539
0.374000000000000166,-0.860353661919374013
0.375000000000000167,-0.921605606909837838
0.376000000000000167,-0.981300407987725665
0.377000000000000168,-1.039441722538273494
0.378000000000000169,-1.096033596255405085
0.379000000000000170,-1.151080489453624178
0.380000000000000171,-1.204587300566669850
0.381000000000000172,-1.256559386924565924
0.382000000000000173,-1.307002582903390886
0.383000000000000174,-1.355923215543994420
0.384000000000000175,-1.403328117737412839
0.385000000000000175,-1.449224639075848309
0.386000000000000176,-1.493620654468936548
0.387000000000000177,-1.536524570625034780
0.388000000000000178,-1.577945330497687371
0.389000000000000179,-1.617892415796675420
0.390000000000000180,-1.656375847662741929
0.391000000000000181,-1.693406185604128478
0.392000000000000182,-1.728994524791767962
0.393000000000000183,-1.763152491808896327
0.394000000000000183,-1.795892238949086561
0.395000000000000184,-1.827226437155084593
0.396000000000000185,-1.857168267688920293
0.397000000000000186,-1.885731412621665770
0.398000000000000187,-1.912930044229238291
0.399000000000000188,-1.938778813378195354
0.400000000000000189,-1.963292836983161704
0.401000000000000190,-1.986487684615253269
0.402000000000000191,-2.008379364338129136
0.403000000000000191,-2.028984307845921986
0.404000000000000192,-2.048319354974695194
0.405000000000000193,-2.066401737656357263
0.406000000000000194,-2.083249063381473754
0.407000000000000195,-2.098879298234700208
0.408000000000000196,-2.113310749563872548
0.409000000000000197,-2.126562048341257949
0.410000000000000198,-2.138652131272845036
0.411000000000000199,-2.149600222708763386
0.412000000000000199,-2.159425816405703635
0.413000000000000200,-2.168148657189287842
0.414000000000000201,-2.175788722562173927
0.415000000000000202,-2.182366204300959289
0.416000000000000203,-2.187901490082732714
0.417000000000000204,-2.192415145179665181
0.418000000000000205,-2.195927894257724056
0.419000000000000206,-2.198460603313431072
0.420000000000000207,-2.200034261780245082
0.421000000000000207,-2.200669964834226278
0.422000000000000208,-2.200388895926300492
0.423000000000000209,-2.199212309566746626
0.424000000000000210,-2.197161514385312042
0.425000000000000211,-2.194257856488630143
0.426000000000000212,-2.190522703134831328
0.427000000000000213,-2.185977426743318741
0.428000000000000214,-2.180643389256223585
0.429000000000000214,-2.174541926866265129
0.430000000000000215,-2.167694335124251914
0.431000000000000216,-2.160121854438028954
0.432000000000000217,-2.151845655973144922
0.433000000000000218,-2.142886827964206820
0.434000000000000219,-2.133266362444639075
0.435000000000000220,-2.123005142401269918
0.436000000000000221,-2.112123929358975083
0.437000000000000222,-2.100643351399550163
0.438000000000000222,-2.088583891617896704
0.439000000000000223,-2.075965877017615036
0.440000000000000224,-2.062809467847122935
0.441000000000000225,-2.049134647376518181
0.442000000000000226,-2.034961212114689832
0.443000000000000227,-2.020308762465131913
0.444000000000000228,-2.005196693818495302
0.445000000000000229,-1.989644188078933951
0.446000000000000230,-1.973670205620801976
0.447000000000000230,-1.957293477671689486
0.448000000000000231,-1.940532499117093579
0.449000000000000232,-1.923405521721565536
0.450000000000000233,-1.905930547760803506
0.451000000000000234,-1.888125324058482546
0.452000000000000235,-1.870007336421490418
0.453000000000000236,-1.851593804466590054
0.454000000000000237,-1.832901676831478088
0.455000000000000238,-1.813947626762648424
0.456000000000000238,-1.794748048072391411
0.457000000000000239,-1.775319051456917707
0.458000000000000240,-1.755676461167441360
0.459000000000000241,-1.735835812025770419
0.460000000000000242,-1.715812346776001363
0.461000000000000243,-1.695621013763488616
0.462000000000000244,-1.675276464932491605
0.463000000000000245,-1.654793054133400387
0.464000000000000246,-1.634184835730844387
0.465000000000000246,-1.613465563503525546
0.466000000000000247,-1.592648689826830388
0.467000000000000248,-1.571747365129165797
0.468000000000000249,-1.550774437613029688
0.469000000000000250,-1.529742453231762500
0.470000000000000251,-1.508663655913044410
0.471000000000000252,-1.487549988020157032
0.472000000000000253,-1.466413091042252592
0.473000000000000254,-1.445264306504670859
0.474000000000000254,-1.424114677090765557
0.475000000000000255,-1.402974947966463715
0.476000000000000256,-1.381855568299141579
0.477000000000000257,-1.360766692962364743
0.478000000000000258,-1.339718184418182911
0.479000000000000259,-1.318719614768843140
0.480000000000000260,-1.297780267969878221
0.481000000000000261,-1.276909142196614111
0.482000000000000262,-1.256114952356419234
0.483000000000000262,-1.235406132739038210
0.484000000000000263,-1.214790839797523780
0.485000000000000264,-1.194276955052515188
0.486000000000000265,-1.173872088112690948
0.487000000000000266,-1.153583579804364545
0.488000000000000267,-1.133418505403469778
0.489000000000000268,-1.113383677963230678
0.490000000000000269,-1.093485651731013863
0.491000000000000270,-1.073730725648074591
0.492000000000000270,-1.054124946925980577
0.493000000000000271,-1.034674114693786340
0.494000000000000272,-1.015383783710082755
0.495000000000000273,-0.996259268134282339
0.496000000000000274,-0.977305645351687957
0.497000000000000275,-0.958527759846952598
0.498000000000000276,-0.939930227120865824
0.499000000000000277,-0.921517437645419712
0.500000000000000222,-0.903293560852335475
0.501000000000000334,-0.885262549150425904
0.502000000000000224,-0.867428141967275024
0.503000000000000336,-0.849793869810859803
0.504000000000000226,-0.832363058347024065
0.505000000000000338,-0.815138832488649379
0.506000000000000227,-0.798124120492787248
0.507000000000000339,-0.781321658061900792
0.508000000000000229,-0.764733992445746358
0.509000000000000341,-0.748363486540357448
0.510000000000000231,-0.732212322980992480
0.511000000000000343,-0.716282508225715264
0.512000000000000233,-0.700575876626762906
0.513000000000000345,-0.685094094486707994
0.514000000000000234,-0.669838664096786274
0.515000000000000346,-0.654810927754634231
0.516000000000000236,-0.640012071759090251
0.517000000000000348,-0.625443130379598644
0.518000000000000238,-0.611104989798040621
0.519000000000000350,-0.596998392020789304
0.520000000000000240,-0.583123938759053329
0.521000000000000352,-0.569482095275576361
0.522000000000000242,-0.556073194195887299
0.523000000000000353,-0.542897439282439498
0.524000000000000243,-0.529954909170035404
0.525000000000000355,-0.517245561061078885
0.526000000000000245,-0.504769234379247367
0.527000000000000357,-0.492525654380281341
0.528000000000000247,-0.480514435718737698
0.529000000000000359,-0.468735085969521570
0.530000000000000249,-0.457187009103240782
0.531000000000000361,-0.445869508914385537
0.532000000000000250,-0.434781792401497391
0.533000000000000362,-0.423922973098527389
0.534000000000000252,-0.413292074356663375
0.535000000000000364,-0.402888032576002142
0.536000000000000254,-0.392709700386502436
0.537000000000000366,-0.382755849777652035
0.538000000000000256,-0.373025175176510626
0.539000000000000368,-0.363516296473644918
0.540000000000000258,-0.354227761996732060
0.541000000000000369,-0.345158051431472379
0.542000000000000259,-0.336305578689713225
0.543000000000000371,-0.327668694724526699
0.544000000000000261,-0.319245690292209450
0.545000000000000373,-0.311034798661125933
0.546000000000000263,-0.303034198267387200
0.547000000000000375,-0.295242015317373763
0.548000000000000265,-0.287656326337266788
0.549000000000000377,-0.280275160669585355
0.550000000000000266,-0.273096502916998218
0.551000000000000378,-0.266118295333527932
0.552000000000000268,-0.259338440163417061
0.553000000000000380,-0.252754801927898343
0.554000000000000270,-0.246365209660188544
0.555000000000000382,-0.240167459088971025
0.556000000000000272,-0.234159314770818389
0.557000000000000384,-0.228338512171799846
0.558000000000000274,-0.222702759698821667
0.559000000000000385,-0.217249740680992259
0.560000000000000275,-0.211977115301568375
0.561000000000000387,-0.206882522480888842
0.562000000000000277,-0.201963581710794843
0.563000000000000389,-0.197217894841069358
0.564000000000000279,-0.192643047818400165
0.565000000000000391,-0.188236612378398227
0.566000000000000281,-0.183996147691249862
0.567000000000000393,-0.179919201961551950
0.568000000000000282,-0.176003313982930620
0.569000000000000394,-0.172246014648004403
0.570000000000000284,-0.168644828414320713
0.571000000000000396,-0.165197274726871068
0.572000000000000286,-0.161900869397819752
0.573000000000000398,-0.158753125944013529
0.574000000000000288,-0.155751556882992748
0.575000000000000400,-0.152893674988092781
0.576000000000000290,-0.150176994503275901
0.577000000000000401,-0.147599032318377177
0.578000000000000291,-0.145157309105385129
0.579000000000000403,-0.142849350416438814
0.580000000000000293,-0.140672687744178682
0.581000000000000405,-0.138624859545126794
0.582000000000000295,-0.136703412226749588
0.583000000000000407,-0.134905901098875181
0.584000000000000297,-0.133229891290092439
0.585000000000000409,-0.131672958629855341
0.586000000000000298,-0.130232690496875303
0.587000000000000410,-0.128906686634534390
0.588000000000000300,-0.127692559933912264
0.589000000000000412,-0.126587937185117461
0.590000000000000302,-0.125590459797546655
0.591000000000000414,-0.124697784489770494
0.592000000000000304,-0.123907583949604744
0.593000000000000416,-0.123217547465074254
0.594000000000000306,-0.122625381526890814
0.595000000000000417,-0.122128810403048599
0.596000000000000307,-0.121725576686170373
0.597000000000000419,-0.121413441814257700
0.598000000000000309,-0.121190186565415733
0.599000000000000421,-0.121053611527160404
0.600000000000000311,-0.121001537540954371
0.601000000000000423,-0.121031806122518321
0.602000000000000313,-0.121142279858530613
0.603000000000000425,-0.121330842780283638
0.604000000000000314,-0.121595400714904406
0.605000000000000426,-0.121933881614653836
0.606000000000000316,-0.122344235864915246
0.607000000000000428,-0.122824436571399964
0.608000000000000318,-0.123372479827132689
0.609000000000000430,-0.123986384959729884
0.610000000000000320,-0.124664194759541047
0.611000000000000432,-0.125403975689141939
0.612000000000000322,-0.126203818074708263
0.613000000000000433,-0.127061836279797113
0.614000000000000323,-0.127976168861999001
0.615000000000000435,-0.128944978713001202
0.616000000000000325,-0.129966453182491282
0.617000000000000437,-0.131038804186432156
0.618000000000000327,-0.132160268300150985
0.619000000000000439,-0.133329106836690858
0.620000000000000329,-0.134543605910911884
0.621000000000000441,-0.135802076489766860
0.622000000000000330,-0.137102854429178411
0.623000000000000442,-0.138444300497988781
0.624000000000000332,-0.139824800389336451
0.625000000000000444,-0.141242764719957059
0.626000000000000334,-0.142696629017735693
0.627000000000000446,-0.144184853697963355
0.628000000000000336,-0.145705924028658312
0.629000000000000448,-0.147258350085357786
0.630000000000000338,-0.148840666695719326
0.631000000000000449,-0.150451433374358207
0.632000000000000339,-0.152089234248200839
0.633000000000000451,-0.153752677972791713
0.634000000000000341,-0.155440397639819011
0.635000000000000453,-0.157151050676278936
0.636000000000000343,-0.158883318735511120
0.637000000000000455,-0.160635907580530674
0.638000000000000345,-0.162407546959891569
0.639000000000000457,-0.164196990476432270
0.640000000000000346,-0.166003015449195768
0.641000000000000458,-0.167824422768808879
0.642000000000000348,-0.169660036746624998
0.643000000000000460,-0.171508704957903380
0.644000000000000350,-0.173369298079284168
0.645000000000000462,-0.175240709720861254
0.646000000000000352,-0.177121856253074972
0.647000000000000464,-0.179011676628710814
0.648000000000000353,-0.180909132200235329
0.649000000000000465,-0.182813206532712436
0.650000000000000355,-0.184722905212544586
0.651000000000000467,-0.186637255652252199
0.652000000000000357,-0.188555306891542956
0.653000000000000469,-0.190476129394851645
0.654000000000000359,-0.192398814845599730
0.655000000000000471,-0.194322475937347416
0.656000000000000361,-0.196246246162071480
0.657000000000000473,-0.198169279595729442
0.658000000000000362,-0.200090750681337998
0.659000000000000474,-0.202009854009709222
0.660000000000000364,-0.203925804098060659
0.661000000000000476,-0.205837835166650773
0.662000000000000366,-0.207745200913608319
0.663000000000000478,-0.209647174288141919
0.664000000000000368,-0.211543047262250983
