# TiO2-ana-100_CS-61465-AC
# h[nm],U(h)[kJ/mol]
0.149999999999999994,101.831855599373426458
0.150999999999999995,101.100264595195923789
0.151999999999999996,99.215472637594828598
0.152999999999999997,97.123956731040337331
0.153999999999999998,95.176294961044987986
0.154999999999999999,93.439190600853194724
0.156000000000000000,91.865812171685860221
0.157000000000000001,90.381993232765665880
0.158000000000000002,88.924430611366062749
0.159000000000000002,87.453043670928352071
0.160000000000000003,85.950668822650072798
0.161000000000000004,84.417590101069777120
0.162000000000000005,82.864910085855669308
0.163000000000000006,81.308677590385173062
0.164000000000000007,79.765495836233455407
0.165000000000000008,78.249697908152924697
0.166000000000000009,76.771873927550629446
0.167000000000000010,75.338424870627022756
0.168000000000000010,73.951812464648085665
0.169000000000000011,72.611219049207718967
0.170000000000000012,71.313394086266725935
0.171000000000000013,70.053527778582321162
0.172000000000000014,68.826048430409557000
0.173000000000000015,67.625285399948182885
0.174000000000000016,66.445973333319074072
0.175000000000000017,65.283596929703662681
0.176000000000000018,64.134590506753511363
0.177000000000000018,62.996414998960077014
0.178000000000000019,61.867538489419793279
0.179000000000000020,60.747346457569072697
0.180000000000000021,59.636005842219638851
0.181000000000000022,58.534303708297485969
0.182000000000000023,57.443477453832734625
0.183000000000000024,56.365049577973728390
0.184000000000000025,55.300676360898968653
0.185000000000000026,54.252016564324279102
0.186000000000000026,53.220623534740866489
0.187000000000000027,52.207861902492801676
0.188000000000000028,51.214848396476007508
0.189000000000000029,50.242415088014709568
0.190000000000000030,49.291092575561705758
0.191000000000000031,48.361110156242254732
0.192000000000000032,47.452409833717346999
0.193000000000000033,46.564671021865351008
0.194000000000000034,45.697342964776254348
0.195000000000000034,44.849682157859575682
0.196000000000000035,44.020792382976601687
0.197000000000000036,43.209665330719801091
0.198000000000000037,42.415220150714226577
0.199000000000000038,41.636340627830826122
0.200000000000000039,40.871909015576264323
0.201000000000000040,40.120835859201847029
0.202000000000000041,39.382085405403195466
0.203000000000000042,38.654696420819995240
0.204000000000000042,37.937798427987168282
0.205000000000000043,37.230623516585851007
0.206000000000000044,36.532514002508115425
0.207000000000000045,35.842926290777199938
0.208000000000000046,35.161431354508351887
0.209000000000000047,34.487712274728565376
0.210000000000000048,33.821559298816183059
0.211000000000000049,33.162862872202495623
0.212000000000000050,32.511605082155980995
0.213000000000000050,31.867849926977601882
0.214000000000000051,31.231732791448244768
0.215000000000000052,30.603449472205433324
0.216000000000000053,29.983245056849444410
0.217000000000000054,29.371402919617473515
0.218000000000000055,28.768234055737188726
0.219000000000000056,28.174066937120187504
0.220000000000000057,27.589238034665385157
0.221000000000000058,27.014083117693484581
0.222000000000000058,26.448929409304334115
0.223000000000000059,25.894088647978509954
0.224000000000000060,25.349851080626528699
0.225000000000000061,24.816480390526287181
0.226000000000000062,24.294209545092563474
0.227000000000000063,23.783237533044903955
0.228000000000000064,23.283726948089004338
0.229000000000000065,22.795802366472024403
0.230000000000000066,22.319549458473744608
0.231000000000000066,21.855014768793182611
0.232000000000000067,21.402206097630831039
0.233000000000000068,20.961093412794898683
0.234000000000000069,20.531610223135047022
0.235000000000000070,20.113655344798463176
0.236000000000000071,19.707094993996239651
0.237000000000000072,19.311765142966816455
0.238000000000000073,18.927474079448622035
0.239000000000000073,18.554005114066448812
0.240000000000000074,18.191119384452370866
0.241000000000000075,17.838558709540237146
0.242000000000000076,17.496048452184510325
0.243000000000000077,17.163300352968839491
0.244000000000000078,16.840015302711648815
0.245000000000000079,16.525886025682392955
0.246000000000000080,16.220599649863068237
0.247000000000000081,15.923840144685692977
0.248000000000000081,15.635290610519509968
0.249000000000000082,15.354635407750365061
0.250000000000000111,15.081562116576776589
0.251000000000000112,14.815763321635538219
0.252000000000000113,14.556938218264027896
0.253000000000000114,14.304794039610118972
0.254000000000000115,14.059047305920435278
0.255000000000000115,13.819424899185330347
0.256000000000000116,13.585664967905426437
0.257000000000000117,13.357517668086160256
0.258000000000000118,13.134745747677758487
0.259000000000000119,12.917124982576154935
0.260000000000000120,12.704444473001309746
0.261000000000000121,12.496506809592315079
0.262000000000000122,12.293128118918311031
0.263000000000000123,12.094137998319215654
0.264000000000000123,11.899379350075573569
0.265000000000000124,11.708708124878487666
0.266000000000000125,11.521992984442988472
0.267000000000000126,11.339114892895787889
0.268000000000000127,11.159966646282995839
0.269000000000000128,10.984452349198610577
0.270000000000000129,10.812486847140052149
0.271000000000000130,10.643995122763655559
0.272000000000000131,10.478911663750064776
0.273000000000000131,10.317179809504791521
0.274000000000000132,10.158751083420455075
0.275000000000000133,10.003584516921225855
0.276000000000000134,9.851645971002040980
0.277000000000000135,9.702907460470964196
0.278000000000000136,9.557346485606254660
0.279000000000000137,9.414945375454689014
0.280000000000000138,9.275690646527277039
0.281000000000000139,9.139572380194994849
0.282000000000000139,9.006583621653433624
0.283000000000000140,8.876719802911944512
0.284000000000000141,8.749978191872145317
0.285000000000000142,8.626357369192561464
0.286000000000000143,8.505856734291896259
0.287000000000000144,8.388476041522933357
0.288000000000000145,8.274214967252113695
0.289000000000000146,8.163072708307044678
0.290000000000000147,8.055047612003930269
0.291000000000000147,7.950136837740066298
0.292000000000000148,7.848336049930898284
0.293000000000000149,7.749639141887598726
0.294000000000000150,7.654037990067086739
0.295000000000000151,7.561522237982368999
0.296000000000000152,7.472079108935207437
0.297000000000000153,7.385693246624756014
0.298000000000000154,7.302346582593704838
0.299000000000000155,7.222018229396864442
0.300000000000000155,7.144684398314528728
0.301000000000000156,7.070318340383963118
0.302000000000000157,6.998890309485160444
0.303000000000000158,6.930367546191403605
0.304000000000000159,6.864714281079481673
0.305000000000000160,6.801891756188451765
0.306000000000000161,6.741858263317746847
0.307000000000000162,6.684569197865383394
0.308000000000000163,6.629977126923546571
0.309000000000000163,6.578031870371143341
0.310000000000000164,6.528680593730794790
0.311000000000000165,6.481867911589873188
0.312000000000000166,6.437536000421407500
0.313000000000000167,6.395624719680085057
0.314000000000000168,6.356071740090873057
0.315000000000000169,6.318812678092138313
0.316000000000000170,6.283781235441303181
0.317000000000000171,6.250909343038729027
0.318000000000000171,6.220127308073799099
0.319000000000000172,6.191363963646217883
0.320000000000000173,6.164546820064709998
0.321000000000000174,6.139602217074598300
0.322000000000000175,6.116455476314311746
0.323000000000000176,6.095031053349344141
0.324000000000000177,6.075252688679551483
0.325000000000000178,6.057043557162241854
0.326000000000000179,6.040326415338897803
0.327000000000000179,6.025023746197509134
0.328000000000000180,6.011057900945489862
0.329000000000000181,5.998351237409129233
0.330000000000000182,5.986826254715777118
0.331000000000000183,5.976405723952839644
0.332000000000000184,5.967012814534408349
0.333000000000000185,5.958571216041255170
0.334000000000000186,5.951005255333019051
0.335000000000000187,5.944240008763046923
0.336000000000000187,5.938201409356043570
0.337000000000000188,5.932816348836888132
0.338000000000000189,5.928012774425285514
0.339000000000000190,5.923719780335753526
0.340000000000000191,5.919867693945668918
0.341000000000000192,5.916388156615420613
0.342000000000000193,5.913214199165013341
0.343000000000000194,5.910280312029660976
0.344000000000000195,5.907522510134286975
0.345000000000000195,5.904878392542082466
0.346000000000000196,5.902287196946896408
0.347000000000000197,5.899689849092010441
0.348000000000000198,5.897029007209514617
0.349000000000000199,5.894249101585246287
0.350000000000000200,5.891296369363301366
0.351000000000000201,5.888118884712753243
0.352000000000000202,5.884666584486203611
0.353000000000000203,5.880891289506207542
0.354000000000000203,5.876746721620968117
0.355000000000000204,5.872188516675175940
0.356000000000000205,5.867174233545503270
0.357000000000000206,5.861663359393253003
0.358000000000000207,5.855617311288829896
0.359000000000000208,5.848999434364263728
0.360000000000000209,5.841774996650806351
0.361000000000000210,5.833911180759248971
0.362000000000000210,5.825377072560046443
0.363000000000000211,5.816143647019999641
0.364000000000000212,5.806183751350927125
0.365000000000000213,5.795472085624290060
0.366000000000000214,5.783985181003834519
0.367000000000000215,5.771701375746081553
0.368000000000000216,5.758600789115922325
0.369000000000000217,5.744665293361810754
0.370000000000000218,5.729878483891954311
0.371000000000000218,5.714225647789676010
0.372000000000000219,5.697693730802606993
0.373000000000000220,5.680271302936818145
0.374000000000000221,5.661948522783217363
0.375000000000000222,5.642717100699721655
0.376000000000000223,5.622570260968606348
0.377000000000000224,5.601502703044667797
0.378000000000000225,5.579510562005434160
0.379000000000000226,5.556591368310811241
0.380000000000000226,5.532744006975172546
0.381000000000000227,5.507968676250896145
0.382000000000000228,5.482266845918142728
0.383000000000000229,5.455641215271464617
0.384000000000000230,5.428095670889835134
0.385000000000000231,5.399635244272518619
0.386000000000000232,5.370266069419173505
0.387000000000000233,5.339995340428699500
0.388000000000000234,5.308831269187289870
0.389000000000000234,5.276783043212373236
0.390000000000000235,5.243860783715390106
0.391000000000000236,5.210075503942567465
0.392000000000000237,5.175439067849337604
0.393000000000000238,5.139964149160446638
0.394000000000000239,5.103664190864440009
0.395000000000000240,5.066553365187841607
0.396000000000000241,5.028646534091121723
0.397000000000000242,4.989959210325366712
0.398000000000000242,4.950507519085619812
0.399000000000000243,4.910308160293842761
0.400000000000000244,4.869378371541652761
0.401000000000000245,4.827735891720192463
0.402000000000000246,4.785398925362049027
0.403000000000000247,4.742386107717313060
0.404000000000000248,4.698716470583733873
0.405000000000000249,4.654409408908391832
0.406000000000000250,4.609484648176249699
0.407000000000000250,4.563962212598613455
0.408000000000000251,4.517862394112733604
0.409000000000000252,4.471205722201643695
0.410000000000000253,4.424012934541623920
0.411000000000000254,4.376304948482824031
0.412000000000000255,4.328102833367042379
0.413000000000000256,4.279427783684893072
0.414000000000000257,4.230301093073352448
0.415000000000000258,4.180744129153016964
0.416000000000000258,4.130778309203291698
0.417000000000000259,4.080425076672324458
0.418000000000000260,4.029705878517441775
0.419000000000000261,3.978642143370682671
0.420000000000000262,3.927255260523031755
0.421000000000000263,3.875566559719948678
0.422000000000000264,3.823597291760050698
0.423000000000000265,3.771368609887740142
0.424000000000000266,3.718901551970041020
0.425000000000000266,3.666217023447082113
0.426000000000000267,3.613335781045043937
0.427000000000000268,3.560278417239800319
0.428000000000000269,3.507065345458973749
0.429000000000000270,3.453716786009632500
0.430000000000000271,3.400252752718350369
0.431000000000000272,3.346693040270088293
0.432000000000000273,3.293057212231912168
0.433000000000000274,3.239364589747310674
0.434000000000000274,3.185634240886546120
0.435000000000000275,3.131884970638373566
0.436000000000000276,3.078135311528144236
0.437000000000000277,3.024403514847214147
0.438000000000000278,2.970707542478488783
0.439000000000000279,2.917065059302783148
0.440000000000000280,2.863493426170631295
0.441000000000000281,2.810009693424229571
0.442000000000000282,2.756630594954014413
0.443000000000000282,2.703372542774619802
0.444000000000000283,2.650251622104762728
0.445000000000000284,2.597283586935896338
0.446000000000000285,2.544483856074349681
0.447000000000000286,2.491867509641920719
0.448000000000000287,2.439449286019925278
0.449000000000000288,2.387243579221892453
0.450000000000000289,2.335264436680168476
0.451000000000000290,2.283525557431978825
0.452000000000000290,2.232040290690516571
0.453000000000000291,2.180821634786972218
0.454000000000000292,2.129882236469502033
0.455000000000000293,2.079234390545360078
0.456000000000000294,2.028890039852735416
0.457000000000000295,1.978860775548879403
0.458000000000000296,1.929157837701527711
0.459000000000000297,1.879792116170737826
0.460000000000000298,1.830774151768511215
0.461000000000000298,1.782114137683945554
0.462000000000000299,1.733821921161701640
0.463000000000000300,1.685907005422036420
0.464000000000000301,1.638378551810761863
0.465000000000000302,1.591245382167872924
0.466000000000000303,1.544515981403700833
0.467000000000000304,1.498198500271869404
0.468000000000000305,1.452300758328523234
0.469000000000000306,1.406830247067520023
0.470000000000000306,1.361794133221645442
0.471000000000000307,1.317199262220086098
0.472000000000000308,1.273052161792731951
0.473000000000000309,1.229359045712034915
0.474000000000000310,1.186125817663613136
0.475000000000000311,1.143358075236729166
0.476000000000000312,1.101061114026480103
0.477000000000000313,1.059239931839230930
0.478000000000000314,1.017899232993659142
0.479000000000000314,0.977043432709546189
0.480000000000000315,0.936676661577021563
0.481000000000000316,0.896802770099011104
0.482000000000000317,0.857425333300018466
0.483000000000000318,0.818547655394498364
0.484000000000000319,0.780172774508385736
0.485000000000000320,0.742303467447560372
0.486000000000000321,0.704942254507203048
0.487000000000000322,0.668091404316294324
0.488000000000000322,0.631752938711682921
0.489000000000000323,0.595928637636368830
0.490000000000000324,0.560620044056842737
0.491000000000000325,0.525828468894578238
0.492000000000000326,0.491554995966906549
0.493000000000000327,0.457800486932750939
0.494000000000000328,0.424565586238873582
0.495000000000000329,0.391850726062449473
0.496000000000000330,0.359656131246050781
0.497000000000000330,0.327981824221131257
0.498000000000000331,0.296827629916524394
0.499000000000000332,0.266193180648405581
0.500000000000000333,0.236077920988434109
0.501000000000000334,0.206481112607011325
0.502000000000000335,0.177401839088604962
0.503000000000000336,0.148839010716402043
0.504000000000000337,0.120791369223531800
0.505000000000000338,0.093257492508429990
0.506000000000000338,0.066235799311888541
0.507000000000000339,0.039724553853559108
0.508000000000000340,0.013721870425836214
0.509000000000000341,-0.011774282056946106
0.510000000000000342,-0.036766075555774692
0.511000000000000343,-0.061255818452522169
0.512000000000000344,-0.085245951145345028
0.513000000000000345,-0.108739041695483249
0.514000000000000346,-0.131737781526901770
0.515000000000000346,-0.154244981179973401
0.516000000000000347,-0.176263566120499593
0.517000000000000348,-0.197796572605128368
0.518000000000000349,-0.218847143604183891
0.519000000000000350,-0.239418524782818970
0.520000000000000351,-0.259514060541316927
0.521000000000000352,-0.279137190115324840
0.522000000000000353,-0.298291443736591166
0.523000000000000353,-0.316980438854913060
0.524000000000000354,-0.335207876421689199
0.525000000000000355,-0.352977537235597716
0.526000000000000356,-0.370293278350701194
0.527000000000000357,-0.387159029547325728
0.528000000000000358,-0.403578789865955467
0.529000000000000359,-0.419556624204258211
0.530000000000000360,-0.435096659977415812
0.531000000000000361,-0.450203083841811402
0.532000000000000361,-0.464880138482066996
0.533000000000000362,-0.479132119461383066
0.534000000000000363,-0.492963372135102218
0.535000000000000364,-0.506378288627371220
0.536000000000000365,-0.519381304870669580
0.537000000000000366,-0.531976897708043461
0.538000000000000367,-0.544169582057704715
0.539000000000000368,-0.555963908139787577
0.540000000000000369,-0.567364458764817114
0.541000000000000369,-0.578375846683623740
0.542000000000000370,-0.589002711998182549
0.543000000000000371,-0.599249719633060729
0.544000000000000372,-0.609121556866916158
0.545000000000000373,-0.618622930923600878
0.546000000000000374,-0.627758566622352410
0.547000000000000375,-0.636533204086501492
0.548000000000000376,-0.644951596510175307
0.549000000000000377,-0.653018507982369378
0.550000000000000377,-0.660738711367842901
0.551000000000000378,-0.668116986244125632
0.552000000000000379,-0.675158116894112315
0.553000000000000380,-0.681866890353486577
0.554000000000000381,-0.688248094512363906
0.555000000000000382,-0.694306516270489449
0.556000000000000383,-0.700046939745212482
0.557000000000000384,-0.705474144531655245
0.558000000000000385,-0.710592904014241911
0.559000000000000385,-0.715407983728957086
0.560000000000000386,-0.719924139775563909
0.561000000000000387,-0.724146117279040658
0.562000000000000388,-0.728078648899494696
0.563000000000000389,-0.731726453389855092
0.564000000000000390,-0.735094234200497354
0.565000000000000391,-0.738186678130132057
0.566000000000000392,-0.741008454022152208
0.567000000000000393,-0.743564211505706507
0.568000000000000393,-0.745858579780694475
0.569000000000000394,-0.747896166445966792
0.570000000000000395,-0.749681556369963364
0.571000000000000396,-0.751219310602966317
0.572000000000000397,-0.752513965330309675
0.573000000000000398,-0.753570030865695184
0.574000000000000399,-0.754391990683901836
0.575000000000000400,-0.754984300492126392
0.576000000000000401,-0.755351387339188385
0.577000000000000401,-0.755497648761902840
0.578000000000000402,-0.755427451967791042
0.579000000000000403,-0.755145133053460871
0.580000000000000404,-0.754654996257915434
0.581000000000000405,-0.753961313249999820
0.582000000000000406,-0.753068322449357730
0.583000000000000407,-0.751980228380065507
0.584000000000000408,-0.750701201056353296
0.585000000000000409,-0.749235375399599168
0.586000000000000409,-0.747586850685949544
0.587000000000000410,-0.745759690023899302
0.588000000000000411,-0.743757919861045669
0.589000000000000412,-0.741585529519477094
0.590000000000000413,-0.739246470758984087
0.591000000000000414,-0.736744657367526701
0.592000000000000415,-0.734083964778277309
0.593000000000000416,-0.731268229712549567
0.594000000000000417,-0.728301249848019583
0.595000000000000417,-0.725186783511622912
0.596000000000000418,-0.721928549396401609
0.597000000000000419,-0.718530226301837716
0.598000000000000420,-0.714995452896912242
0.599000000000000421,-0.711327827505414012
0.600000000000000422,-0.707530907912827578
0.601000000000000423,-0.703608211194245436
0.602000000000000424,-0.699563213562748309
0.603000000000000425,-0.695399350237672853
0.604000000000000425,-0.691120015332183479
0.605000000000000426,-0.686728561759657463
0.606000000000000427,-0.682228301158319672
0.607000000000000428,-0.677622503833548162
0.608000000000000429,-0.672914398717449402
0.609000000000000430,-0.668107173345035221
0.610000000000000431,-0.663203973846656525
0.611000000000000432,-0.658207904956068068
0.612000000000000433,-0.653122030033716827
0.613000000000000433,-0.647949371104755811
0.614000000000000434,-0.642692908911312699
0.615000000000000435,-0.637355582978539448
0.616000000000000436,-0.631940291694009226
0.617000000000000437,-0.626449892400047559
0.618000000000000438,-0.620887201498489860
