# TiO2-ana-100_CS-8009726-AC
# h[nm],U(h)[kJ/mol]
0.149999999999999994,88.355069840729782982
0.150999999999999995,87.474180627542210686
0.151999999999999996,86.057320923892220321
0.152999999999999997,84.549937094296382156
0.153999999999999998,83.113591229837851415
0.154999999999999999,81.776465416847386791
0.156000000000000000,80.514879312724602300
0.157000000000000001,79.294011235233938351
0.158000000000000002,78.085491493796453710
0.159000000000000002,76.872671400598306946
0.160000000000000003,75.649961221997813254
0.161000000000000004,74.419851750951835356
0.162000000000000005,73.189526555729543134
0.163000000000000006,71.967956760851848230
0.164000000000000007,70.763794362649662162
0.165000000000000008,69.584076337261194567
0.166000000000000009,68.433611217205651656
0.167000000000000010,67.314872670672656341
0.168000000000000010,66.228227299115900450
0.169000000000000011,65.172349906373852946
0.170000000000000012,64.144713500647000615
0.171000000000000013,63.142074896198550960
0.172000000000000014,62.160905928203384008
0.173000000000000015,61.197743481892999284
0.174000000000000016,60.249448695049714786
0.175000000000000017,59.313377473912929361
0.176000000000000018,58.387471817329490875
0.177000000000000018,57.470285375663024752
0.178000000000000019,56.560958104831527749
0.179000000000000020,55.659154599760782389
0.180000000000000021,54.764979338569887091
0.181000000000000022,53.878880123037426131
0.182000000000000023,53.001548815037054396
0.183000000000000024,52.133826286040950038
0.184000000000000025,51.276616473947875363
0.185000000000000026,50.430812668576891156
0.186000000000000026,49.597237665811370277
0.187000000000000027,48.776598248256341606
0.188000000000000028,47.969453552654947259
0.189000000000000029,47.176196242902470601
0.190000000000000030,46.397044986961816448
0.191000000000000031,45.632046498582226945
0.192000000000000032,44.881085313454910590
0.193000000000000033,44.143899490030733546
0.194000000000000034,43.420100527277540436
0.195000000000000034,42.709195949136088188
0.196000000000000035,42.010613196790167478
0.197000000000000036,41.323723677800344944
0.198000000000000037,40.647866032264190039
0.199000000000000038,39.982367880486876288
0.200000000000000039,39.326565507135072153
0.201000000000000040,38.679821108893371218
0.202000000000000041,38.041537383608030609
0.203000000000000042,37.411169367687165277
0.204000000000000042,36.788233535207957914
0.205000000000000043,36.172314257691382977
0.206000000000000044,35.563067789366435534
0.207000000000000045,34.960223990859333298
0.208000000000000046,34.363586036712462146
0.209000000000000047,33.773028371138067882
0.210000000000000048,33.188493184091079513
0.211000000000000049,32.609985678152277444
0.212000000000000050,32.037568387745551490
0.213000000000000050,31.471354797593971142
0.214000000000000051,30.911502488571699132
0.215000000000000052,30.358206017560071643
0.216000000000000053,29.811689714694750819
0.217000000000000054,29.272200557438093682
0.218000000000000055,28.740001256996329460
0.219000000000000056,28.215363669332852226
0.220000000000000057,27.698562620876266749
0.221000000000000058,27.189870218331691376
0.222000000000000058,26.689550693010460236
0.223000000000000059,26.197855812950287202
0.224000000000000060,25.715020880873726838
0.225000000000000061,25.241261322742538198
0.226000000000000062,24.776769860270864143
0.227000000000000063,24.321714251187220412
0.228000000000000064,23.876235573182391647
0.229000000000000065,23.440447021222933444
0.230000000000000066,23.014433183115791337
0.231000000000000066,22.598249754733064520
0.232000000000000067,22.191923654005126565
0.233000000000000068,21.795453491518713918
0.234000000000000069,21.408810355177543272
0.235000000000000070,21.031938866761784368
0.236000000000000071,20.664758469235724903
0.237000000000000072,20.307164905183689996
0.238000000000000073,19.959031848698348455
0.239000000000000073,19.620212655306509930
0.240000000000000074,19.290542197009877157
0.241000000000000075,18.969838752168463714
0.242000000000000076,18.657905922694521195
0.243000000000000077,18.354534553800458951
0.244000000000000078,18.059504634306403403
0.245000000000000079,17.772587158221746506
0.246000000000000080,17.493545930939024657
0.247000000000000081,17.222139305888983785
0.248000000000000081,16.958121839885286875
0.249000000000000082,16.701245857619461788
0.250000000000000111,16.451262917840846711
0.251000000000000112,16.207925175666659356
0.252000000000000113,15.970986637210691228
0.253000000000000114,15.740204304295199123
0.254000000000000115,15.515339208421337958
0.255000000000000115,15.296157334424179908
0.256000000000000116,15.082430435333460395
0.257000000000000117,14.873936740909082133
0.258000000000000118,14.670461563128370130
0.259000000000000119,14.471797802579093428
0.260000000000000120,14.277746360267096648
0.261000000000000121,14.088116459790549939
0.262000000000000122,13.902725885172070974
0.263000000000000123,13.721401139886628684
0.264000000000000123,13.543977532784577278
0.265000000000000124,13.370299196696146637
0.266000000000000125,13.200219045522956662
0.267000000000000126,13.033598675583935034
0.268000000000000127,12.870308216892755837
0.269000000000000128,12.710226139911144472
0.270000000000000129,12.553239023152169551
0.271000000000000130,12.399241286807036744
0.272000000000000131,12.248134897343462058
0.273000000000000131,12.099829047778651869
0.274000000000000132,11.954239818070048429
0.275000000000000133,11.811289819796481737
0.276000000000000134,11.670907829025056301
0.277000000000000135,11.533028410978790390
0.278000000000000136,11.397591539838670016
0.279000000000000137,11.264542216735165425
0.280000000000000138,11.133830088710102046
0.281000000000000139,11.005409071161375678
0.282000000000000139,10.879236976023459960
0.283000000000000140,10.755275147685457782
0.284000000000000141,10.633488108408519324
0.285000000000000142,10.513843214774881929
0.286000000000000143,10.396310326483639841
0.287000000000000144,10.280861488603269649
0.288000000000000145,10.167470628198188365
0.289000000000000146,10.056113266067217893
0.290000000000000147,9.946766244164143345
0.291000000000000147,9.839407469116590477
0.292000000000000148,9.734015672116878903
0.293000000000000149,9.630570185328796384
0.294000000000000150,9.529050734835973202
0.295000000000000151,9.429437250050707320
0.296000000000000152,9.331709689406267216
0.297000000000000153,9.235847882070311599
0.298000000000000154,9.141831385341699701
0.299000000000000155,9.049639357326881850
0.300000000000000155,8.959250444435063798
0.301000000000000156,8.870642683182685673
0.302000000000000157,8.783793415756708356
0.303000000000000158,8.698679218752779718
0.304000000000000159,8.615275844477332967
0.305000000000000160,8.533558174182211076
0.306000000000000161,8.453500182585404588
0.307000000000000162,8.375074913021810730
0.308000000000000163,8.298254462563226852
0.309000000000000163,8.223009976445915470
0.310000000000000164,8.149311651147645108
0.311000000000000165,8.077128745462752946
0.312000000000000166,8.006429598933596736
0.313000000000000167,7.937181657009439562
0.314000000000000168,7.869351502318687963
0.315000000000000169,7.802904891457343339
0.316000000000000170,7.737806796715330115
0.317000000000000171,7.674021452182493874
0.318000000000000171,7.611512403697500595
0.319000000000000172,7.550242562125232482
0.320000000000000173,7.490174259471285900
0.321000000000000174,7.431269307365994337
0.322000000000000175,7.373489057474278852
0.323000000000000176,7.316794463411879335
0.324000000000000177,7.261146143772785777
0.325000000000000178,7.206504445896857014
0.326000000000000179,7.152829510030514371
0.327000000000000179,7.100081333557108465
0.328000000000000180,7.048219834996720223
0.329000000000000181,6.997204917497913179
0.330000000000000182,6.946996531566147937
0.331000000000000183,6.897554736795048491
0.332000000000000184,6.848839762387588515
0.333000000000000185,6.800812066274542822
0.334000000000000186,6.753432392656688599
0.335000000000000187,6.706661827816127186
0.336000000000000187,6.660461854059683162
0.337000000000000188,6.614794401674569890
0.338000000000000189,6.569621898792452619
0.339000000000000190,6.524907319073558476
0.340000000000000191,6.480614227137012406
0.341000000000000192,6.436706821677168122
0.342000000000000193,6.393149976218798436
0.343000000000000194,6.349909277475871860
0.344000000000000195,6.306951061290294369
0.345000000000000195,6.264242446137214593
0.346000000000000196,6.221751364193549350
0.347000000000000197,6.179446589975400528
0.348000000000000198,6.137297766558384104
0.349000000000000199,6.095275429402685852
0.350000000000000200,6.053351027811636698
0.351000000000000201,6.011496944059079084
0.352000000000000202,5.969686510226617671
0.353000000000000203,5.927894022797058682
0.354000000000000203,5.886094755055106376
0.355000000000000204,5.844264967350481399
0.356000000000000205,5.802381915282410318
0.357000000000000206,5.760423855867463416
0.358000000000000207,5.718370051755711891
0.359000000000000208,5.676200773562339208
0.360000000000000209,5.633897300383788220
0.361000000000000210,5.591441918569263869
0.362000000000000210,5.548817918819402450
0.363000000000000211,5.506009591685009141
0.364000000000000212,5.463002221539263736
0.365000000000000213,5.419782079097128502
0.366000000000000214,5.376336412555775546
0.367000000000000215,5.332653437429641485
0.368000000000000216,5.288722325153284665
0.369000000000000217,5.244533190524712118
0.370000000000000218,5.200077078060935776
0.371000000000000218,5.155345947336636314
0.372000000000000219,5.110332657375662002
0.373000000000000220,5.065030950163868617
0.374000000000000221,5.019435433350404985
0.375000000000000222,4.973541562203172006
0.376000000000000223,4.927345620882360500
0.377000000000000224,4.880844703094712855
0.378000000000000225,4.834036692188997897
0.379000000000000226,4.786920240751738831
0.380000000000000226,4.739494749760196690
0.381000000000000227,4.691760347347791793
0.382000000000000228,4.643717867235287677
0.383000000000000229,4.595368826879012936
0.384000000000000230,4.546715405385548081
0.385000000000000231,4.497760421240262652
0.386000000000000232,4.448507309895211037
0.387000000000000233,4.398960101259810074
0.388000000000000234,4.349123397135896241
0.389000000000000234,4.299002348636742354
0.390000000000000235,4.248602633627712954
0.391000000000000236,4.197930434224326213
0.392000000000000237,4.146992414381656999
0.393000000000000238,4.095795697607131913
0.394000000000000239,4.044347844826950755
0.395000000000000240,3.992656832434661851
0.396000000000000241,3.940731030548597857
0.397000000000000242,3.888579181503220017
0.398000000000000242,3.836210378597781467
0.399000000000000243,3.783634045124100620
0.400000000000000244,3.730859913693612473
0.401000000000000245,3.677898005882414001
0.402000000000000246,3.624758612211591124
0.403000000000000247,3.571452272478462309
0.404000000000000248,3.517989756453312911
0.405000000000000249,3.464382044954585016
0.406000000000000250,3.410640311314396822
0.407000000000000250,3.356775903244881398
0.408000000000000251,3.302800325114767510
0.409000000000000252,3.248725220644411049
0.410000000000000253,3.194562356026412253
0.411000000000000254,3.140323603477914727
0.412000000000000255,3.086020925229710166
0.413000000000000256,3.031666357956197988
0.414000000000000257,2.977271997649547419
0.415000000000000258,2.922849984940290913
0.416000000000000258,2.868412490866035114
0.417000000000000259,2.813971703088893772
0.418000000000000260,2.759539812561806471
0.419000000000000261,2.705129000642939374
0.420000000000000262,2.650751426656944965
0.421000000000000263,2.596419215901009103
0.422000000000000264,2.542144448093266895
0.423000000000000265,2.487939146260384149
0.424000000000000266,2.433815266060772586
0.425000000000000266,2.379784685539352296
0.426000000000000267,2.325859195309320171
0.427000000000000268,2.272050489155974518
0.428000000000000269,2.218370155057324489
0.429000000000000270,2.164829666615774251
0.430000000000000271,2.111440374894876904
0.431000000000000272,2.058213500654881845
0.432000000000000273,2.005160126980511937
0.433000000000000274,1.952291192294151045
0.434000000000000274,1.899617483747370938
0.435000000000000275,1.847149630983648594
0.436000000000000276,1.794898100264788354
0.437000000000000277,1.742873188953510066
0.438000000000000278,1.691085020344518908
0.439000000000000279,1.639543538836231606
0.440000000000000280,1.588258505435222290
0.441000000000000281,1.537239493585470962
0.442000000000000282,1.486495885314242260
0.443000000000000282,1.436036867686628193
0.444000000000000283,1.385871429560491919
0.445000000000000284,1.336008358633770765
0.446000000000000285,1.286456238775885108
0.447000000000000286,1.237223447635163565
0.448000000000000287,1.188318154514128366
0.449000000000000288,1.139748318504535618
0.450000000000000289,1.091521686874110442
0.451000000000000290,1.043645793696972968
0.452000000000000290,0.996127958719771223
0.453000000000000291,0.948975286455674416
0.454000000000000292,0.902194665498390003
0.455000000000000293,0.855792768048458941
0.456000000000000294,0.809776049644236884
0.457000000000000295,0.764150749089957504
0.458000000000000296,0.718922888573487850
0.459000000000000297,0.674098273966400319
0.460000000000000298,0.629682495299129008
0.461000000000000298,0.585680927404153562
0.462000000000000299,0.542098730720136701
0.463000000000000300,0.498940852250212230
0.464000000000000301,0.456212026667626003
0.465000000000000302,0.413916777562178428
0.466000000000000303,0.372059418820898435
0.467000000000000304,0.330644056136644049
0.468000000000000305,0.289674588638436314
0.469000000000000306,0.249154710637365717
0.470000000000000306,0.209087913482191384
0.471000000000000307,0.169477487518794823
0.472000000000000308,0.130326524147829692
0.473000000000000309,0.091637917974987326
0.474000000000000310,0.053414369048599065
0.475000000000000311,0.015658385179138357
0.476000000000000312,-0.021627715664251479
0.477000000000000313,-0.058441802885459727
0.478000000000000314,-0.094781930725927360
0.479000000000000314,-0.130646335666862318
0.480000000000000315,-0.166033433773623507
0.481000000000000316,-0.200941817986761528
0.482000000000000317,-0.235370255363967384
0.483000000000000318,-0.269317684277142644
0.484000000000000319,-0.302783211568610267
0.485000000000000320,-0.335766109670335211
0.486000000000000321,-0.368265813690017096
0.487000000000000322,-0.400281918467634945
0.488000000000000322,-0.431814175605997774
0.489000000000000323,-0.462862490478719579
0.490000000000000324,-0.493426919218900806
0.491000000000000325,-0.523507665691664181
0.492000000000000326,-0.553105078453626775
0.493000000000000327,-0.582219647702234333
0.494000000000000328,-0.610852002217760481
0.495000000000000329,-0.639002906300742524
0.496000000000000330,-0.666673256707372541
0.497000000000000330,-0.693864079585478244
0.498000000000000331,-0.720576527413324674
0.499000000000000332,-0.746811875943675263
0.500000000000000333,-0.772571521155255292
0.501000000000000334,-0.797856976213688007
0.502000000000000335,-0.822669868443986041
0.503000000000000336,-0.847011936316417691
0.504000000000000337,-0.870885026447676958
0.505000000000000338,-0.894291090618998141
0.506000000000000338,-0.917232182812923069
0.507000000000000339,-0.939710456270291039
0.508000000000000340,-0.961728160568877888
0.509000000000000341,-0.983287638725191870
0.510000000000000342,-1.004391324320636159
0.511000000000000343,-1.025041738653422740
0.512000000000000344,-1.045241487917303758
0.513000000000000345,-1.064993260408301667
0.514000000000000346,-1.084299823760500381
0.515000000000000346,-1.103164022211794215
0.516000000000000347,-1.121588773900587199
0.517000000000000348,-1.139577068194263632
0.518000000000000349,-1.157131963050222145
0.519000000000000350,-1.174256582410215355
0.520000000000000351,-1.190954113628647226
0.521000000000000352,-1.207227804935513849
0.522000000000000353,-1.223080962934455451
0.523000000000000353,-1.238516950136554051
0.524000000000000354,-1.253539182530258200
0.525000000000000355,-1.268151127187909788
0.526000000000000356,-1.282356299909203745
0.527000000000000357,-1.296158262901967451
0.528000000000000358,-1.309560622500524740
0.529000000000000359,-1.322567026921873223
0.530000000000000360,-1.335181164059915826
0.531000000000000361,-1.347406759317910430
0.532000000000000361,-1.359247573479290150
0.533000000000000362,-1.370707400616907767
0.534000000000000363,-1.381790066040824883
0.535000000000000364,-1.392499424284677545
0.536000000000000365,-1.402839357130577280
0.537000000000000366,-1.412813771672595475
0.538000000000000367,-1.422426598418701449
0.539000000000000368,-1.431681789431164642
0.540000000000000369,-1.440583316505235523
0.541000000000000369,-1.449135169386047250
0.542000000000000370,-1.457341354023511171
0.543000000000000371,-1.465205890865128646
0.544000000000000372,-1.472732813186433010
0.545000000000000373,-1.479926165458920417
0.546000000000000374,-1.486790001755194046
0.547000000000000375,-1.493328384191083824
0.548000000000000376,-1.499545381404488342
0.549000000000000377,-1.505445067070628307
0.550000000000000377,-1.511031518453465727
0.551000000000000378,-1.516308814992883836
0.552000000000000379,-1.521281036927431440
0.553000000000000380,-1.525952263952170540
0.554000000000000381,-1.530326573911340970
0.555000000000000382,-1.534408041525516353
0.556000000000000383,-1.538200737152763509
0.557000000000000384,-1.541708725583577522
0.558000000000000385,-1.544936064869063319
0.559000000000000385,-1.547886805182068892
0.560000000000000386,-1.550564987710819853
0.561000000000000387,-1.552974643584650538
0.562000000000000388,-1.555119792831403114
0.563000000000000389,-1.557004443366126756
0.564000000000000390,-1.558632590010564645
0.565000000000000391,-1.560008213543070399
0.566000000000000392,-1.561135279778474994
0.567000000000000393,-1.562017738677499601
0.568000000000000393,-1.562659523485223856
0.569000000000000394,-1.563064549898202316
0.570000000000000395,-1.563236715259798348
0.571000000000000396,-1.563179897783209205
0.572000000000000397,-1.562897955801829664
0.573000000000000398,-1.562394727046436005
0.574000000000000399,-1.561674027948757759
0.575000000000000400,-1.560739652970998481
0.576000000000000401,-1.559595373960815934
0.577000000000000401,-1.558244939531384432
0.578000000000000402,-1.556692074465993336
0.579000000000000403,-1.554940479146796672
0.580000000000000404,-1.552993829007274229
0.581000000000000405,-1.550855774007884991
0.582000000000000406,-1.548529938134571182
0.583000000000000407,-1.546019918919555369
0.584000000000000408,-1.543329286984106208
0.585000000000000409,-1.540461585602751926
0.586000000000000409,-1.537420330288517434
0.587000000000000410,-1.534209008398824903
0.588000000000000411,-1.530831078761499819
0.589000000000000412,-1.527289971320604955
0.590000000000000413,-1.523589086801549364
0.591000000000000414,-1.519731796395135337
0.592000000000000415,-1.515721441460114560
0.593000000000000416,-1.511561333243803595
0.594000000000000417,-1.507254752620388771
0.595000000000000417,-1.502804949846545668
0.596000000000000418,-1.498215144333862936
0.597000000000000419,-1.493488524437837084
0.598000000000000420,-1.488628247262881343
0.599000000000000421,-1.483637438483112359
0.600000000000000422,-1.478519192178421315
0.601000000000000423,-1.473276570685504439
0.602000000000000424,-1.467912604463491366
0.603000000000000425,-1.462430291973784380
0.604000000000000425,-1.456832599573720355
0.605000000000000426,-1.451122461423765220
0.606000000000000427,-1.445302779407845017
0.607000000000000428,-1.439376423066431876
0.608000000000000429,-1.433346229542153960
0.609000000000000430,-1.427215003537447569
0.610000000000000431,-1.420985517284053090
0.611000000000000432,-1.414660510523927162
0.612000000000000433,-1.408242690501303240
0.613000000000000433,-1.401734731965576186
0.614000000000000434,-1.395139277184684445
0.615000000000000435,-1.388458935968683416
0.616000000000000436,-1.381696285703208016
0.617000000000000437,-1.374853871392575311
