# TiO2-ana-100_TANNIC-ARM-NEUTRAL-AC
# h[nm],U(h)[kJ/mol]
0.149999999999999994,124.065648885213818176
0.150999999999999995,122.081025182457324263
0.151999999999999996,120.035452036360908323
0.152999999999999997,118.029180055378944303
0.153999999999999998,116.082504792097168433
0.154999999999999999,114.185463617991871388
0.156000000000000000,112.321659973923672737
0.157000000000000001,110.477972269845935216
0.158000000000000002,108.647103765152252208
0.159000000000000002,106.826930174603006662
0.160000000000000003,105.018771366820232060
0.161000000000000004,103.225630646921942457
0.162000000000000005,101.450831262451160342
0.163000000000000006,99.697153260955715837
0.164000000000000007,97.966417863198884675
0.165000000000000008,96.259407379134586336
0.166000000000000009,94.576000934104769158
0.167000000000000010,92.915422731653734445
0.168000000000000010,91.276524729112537671
0.169000000000000011,89.658051146302327084
0.170000000000000012,88.058854233862660976
0.171000000000000013,86.478047788470163937
0.172000000000000014,84.915096980663946624
0.173000000000000015,83.369850785262201498
0.174000000000000016,81.842527552985160355
0.175000000000000017,80.333665933847157703
0.176000000000000018,78.844053261764159402
0.177000000000000018,77.374642296649852824
0.178000000000000019,75.926465405035912681
0.179000000000000020,74.500553213959591403
0.180000000000000021,73.097862748701942337
0.181000000000000022,71.719218221960687742
0.182000000000000023,70.365266067693283958
0.183000000000000024,69.036444542891132414
0.184000000000000025,67.732967255225389636
0.185000000000000026,66.454819291536665560
0.186000000000000026,65.201764186354040476
0.187000000000000027,63.973359740032925913
0.188000000000000028,62.768980630754143135
0.189000000000000029,61.587845823805665191
0.190000000000000030,60.429048929653319533
0.191000000000000031,59.291589868720123491
0.192000000000000032,58.174406440301467569
0.193000000000000033,57.076404645585625985
0.194000000000000034,55.996486865043138437
0.195000000000000034,54.933577227400235188
0.196000000000000035,53.886643723497698488
0.197000000000000036,52.854716808968632336
0.198000000000000037,51.836904402591720498
0.199000000000000038,50.832403321938443241
0.200000000000000039,49.840507305407484751
0.201000000000000040,48.860611851729117916
0.202000000000000041,47.892216166938410993
0.203000000000000042,46.934922547406742410
0.204000000000000042,45.988433548673270934
0.205000000000000043,45.052547296407240651
0.206000000000000044,44.127151290602242284
0.207000000000000045,43.212215039605666789
0.208000000000000046,42.307781839116621825
0.209000000000000047,41.413959984873983444
0.210000000000000048,40.530913678150035651
0.211000000000000049,39.658853851840312643
0.212000000000000050,38.798029113107951105
0.213000000000000050,37.948716967179123571
0.214000000000000051,37.111215456748119834
0.215000000000000052,36.285835323103114547
0.216000000000000053,35.472892768926463702
0.217000000000000054,34.672702879011801258
0.218000000000000055,33.885573734016517733
0.219000000000000056,33.111801233874764705
0.220000000000000057,32.351664631597593313
0.221000000000000058,31.605422764796678337
0.222000000000000058,30.873310961240456152
0.223000000000000059,30.155538585927693873
0.224000000000000060,29.452287190347000490
0.225000000000000061,28.763709219587212829
0.226000000000000062,28.089927229565198274
0.227000000000000063,27.431033564644224043
0.228000000000000064,26.787090445132285765
0.229000000000000065,26.158130414386278062
0.230000000000000066,25.544157096335261770
0.231000000000000066,24.945146216009923990
0.232000000000000067,24.361046837982382129
0.233000000000000068,23.791782780348974313
0.234000000000000069,23.237254164913089483
0.235000000000000070,22.697339067444282534
0.236000000000000071,22.171895235216815934
0.237000000000000072,21.660761842390144238
0.238000000000000073,21.163761257124797055
0.239000000000000073,20.680700797579138595
0.240000000000000074,20.211374457061406673
0.241000000000000075,19.755564581590526529
0.242000000000000076,19.313043485920154296
0.243000000000000077,18.883574996688615499
0.244000000000000078,18.466915913761145163
0.245000000000000079,18.062817383025343787
0.246000000000000080,17.671026175883408627
0.247000000000000081,17.291285872458924899
0.248000000000000081,16.923337947106002588
0.249000000000000082,16.566922756183451781
0.250000000000000111,16.221780429243757737
0.251000000000000112,15.887651665798236067
0.252000000000000113,15.564278440667010273
0.253000000000000114,15.251404621617657753
0.254000000000000115,14.948776503551902906
0.255000000000000115,14.656143263928564480
0.256000000000000116,14.373257344425255155
0.257000000000000117,14.099874764053376808
0.258000000000000118,13.835755369062848530
0.259000000000000119,13.580663025015004663
0.260000000000000120,13.334365756375660794
0.261000000000000121,13.096635838895076986
0.262000000000000122,12.867249849906395198
0.263000000000000123,12.645988681498000261
0.264000000000000123,12.432637521305350603
0.265000000000000124,12.226985805431969112
0.266000000000000125,12.028827147752693350
0.267000000000000126,11.837959249582265642
0.268000000000000127,11.654183793411574399
0.269000000000000128,11.477306324129662229
0.270000000000000129,11.307136120863161111
0.271000000000000130,11.143486062280963722
0.272000000000000131,10.986172487933282937
0.273000000000000131,10.835015057922717574
0.274000000000000132,10.689836612942940519
0.275000000000000133,10.550463036469336586
0.276000000000000134,10.416723120647057854
0.277000000000000135,10.288448437196048957
0.278000000000000136,10.165473214440387650
0.279000000000000137,10.047634221371350094
0.280000000000000138,9.934770659470176568
0.281000000000000139,9.826724062847159047
0.282000000000000139,9.723338207099185837
0.283000000000000140,9.624459027146816226
0.284000000000000141,9.529934544185275413
0.285000000000000142,9.439614801769746322
0.286000000000000143,9.353351810954325884
0.287000000000000144,9.270999504315428297
0.288000000000000145,9.192413698612549311
0.289000000000000146,9.117452065773361980
0.290000000000000147,9.045974111833368525
0.291000000000000147,8.977841163413911474
0.292000000000000148,8.912916361284052513
0.293000000000000149,8.851064660522224514
0.294000000000000150,8.792152836771123248
0.295000000000000151,8.736049498063561458
0.296000000000000152,8.682625101687932556
0.297000000000000153,8.631751975557630630
0.298000000000000154,8.583304343550352655
0.299000000000000155,8.537158354288283846
0.300000000000000155,8.493192112839789587
0.301000000000000156,8.451285714835972129
0.302000000000000157,8.411321282511048381
0.303000000000000158,8.373183002193613333
0.304000000000000159,8.336757162796132548
0.305000000000000160,8.301932194871810111
0.306000000000000161,8.268598709831271876
0.307000000000000162,8.236649538935608916
0.308000000000000163,8.205979771707452741
0.309000000000000163,8.176486793427173438
0.310000000000000164,8.148070321406869709
0.311000000000000165,8.120632439760715471
0.312000000000000166,8.094077632415658030
0.313000000000000167,8.068312814131738619
0.314000000000000168,8.043247359326112900
0.315000000000000169,8.018793128518982627
0.316000000000000170,7.994864492243111798
0.317000000000000171,7.971378352281258017
0.318000000000000171,7.948254160117779854
0.319000000000000172,7.925413932511399473
0.320000000000000173,7.902782264116003930
0.321000000000000174,7.880286337095434135
0.322000000000000175,7.857855927695780451
0.323000000000000176,7.835423409755668089
0.324000000000000177,7.812923755150634975
0.325000000000000178,7.790294531182357041
0.326000000000000179,7.767475894937088121
0.327000000000000179,7.744410584650101903
0.328000000000000180,7.721043908124610944
0.329000000000000181,7.697323728263860687
0.330000000000000182,7.673200445784919665
0.331000000000000183,7.648626979190905395
0.332000000000000184,7.623558742086305351
0.333000000000000185,7.597953617926658687
0.334000000000000186,7.571771932299775187
0.335000000000000187,7.544976422840809605
0.336000000000000187,7.517532206887798552
0.337000000000000188,7.489406746987903318
0.338000000000000189,7.460569814367438823
0.339000000000000190,7.430993450481068407
0.340000000000000191,7.400651926757231713
0.341000000000000192,7.369521702657801931
0.342000000000000193,7.337581382170713873
0.343000000000000194,7.304811668854068962
0.344000000000000195,7.271195319550199265
0.345000000000000195,7.236717096886920331
0.346000000000000196,7.201363720682292247
0.347000000000000197,7.165123818367506559
0.348000000000000198,7.127987874540648860
0.349000000000000199,7.089948179761933034
0.350000000000000200,7.050998778698550851
0.351000000000000201,7.011135417724585928
0.352000000000000202,6.970355492078716964
0.353000000000000203,6.928657992679158717
0.354000000000000203,6.886043452692350186
0.355000000000000204,6.842513893948421355
0.356000000000000205,6.798072773293105442
0.357000000000000206,6.752724928962192230
0.358000000000000207,6.706476527061141724
0.359000000000000208,6.659335008228825181
0.360000000000000209,6.611309034560514775
0.361000000000000210,6.562408436861943528
0.362000000000000210,6.512644162302143158
0.363000000000000211,6.462028222529447419
0.364000000000000212,6.410573642311177878
0.365000000000000213,6.358294408754030513
0.366000000000000214,6.305205421158535550
0.367000000000000215,6.251322441557507048
0.368000000000000216,6.196662045984806078
0.369000000000000217,6.141241576517542100
0.370000000000000218,6.085079094131314648
0.371000000000000218,6.028193332404981675
0.372000000000000219,5.970603652108181336
0.373000000000000220,5.912329996701826573
0.374000000000000221,5.853392848778787183
0.375000000000000222,5.793813187469110559
0.376000000000000223,5.733612446831169329
0.377000000000000224,5.672812475247741126
0.378000000000000225,5.611435495843103638
0.379000000000000226,5.549504067934959650
0.380000000000000226,5.487041049532461301
0.381000000000000227,5.424069560889438257
0.382000000000000228,5.360612949119614612
0.383000000000000229,5.296694753878620432
0.384000000000000230,5.232338674115544208
0.385000000000000231,5.167568535894870863
0.386000000000000232,5.102408261287927793
0.387000000000000233,5.036881838331181527
0.388000000000000234,4.971013292047204324
0.389000000000000234,4.904826656522493167
0.390000000000000235,4.838345948035103206
0.391000000000000236,4.771595139223498094
0.392000000000000237,4.704598134286963607
0.393000000000000238,4.637378745206667041
0.394000000000000239,4.569960668975388884
0.395000000000000240,4.502367465822976200
0.396000000000000241,4.434622538423647953
0.397000000000000242,4.366749112070359651
0.398000000000000242,4.298770215800783667
0.399000000000000243,4.230708664458679991
0.400000000000000244,4.162587041673767807
0.401000000000000245,4.094427683742679847
0.402000000000000246,4.026252664393140890
0.403000000000000247,3.958083780412825270
0.404000000000000248,3.889942538124240734
0.405000000000000249,3.821850140686409159
0.406000000000000250,3.753827476203979163
0.407000000000000250,3.685895106624034412
0.408000000000000251,3.618073257400773457
0.409000000000000252,3.550381807908014942
0.410000000000000253,3.482840282579387381
0.411000000000000254,3.415467842756007233
0.412000000000000255,3.348283279221428099
0.413000000000000256,3.281305005403519992
0.414000000000000257,3.214551051223239142
0.415000000000000258,3.148039057569935295
0.416000000000000258,3.081786271383363918
0.417000000000000259,3.015809541322310938
0.418000000000000260,2.950125314000142218
0.419000000000000261,2.884749630767623696
0.420000000000000262,2.819698125023657020
0.421000000000000263,2.754986020034607463
0.422000000000000264,2.690628127243440026
0.423000000000000265,2.626638845049753535
0.424000000000000266,2.563032158042381159
0.425000000000000266,2.499821636666339053
0.426000000000000267,2.437020437306244069
0.427000000000000268,2.374641302768599971
0.428000000000000269,2.312696563145740125
0.429000000000000270,2.251198137044446490
0.430000000000000271,2.190157533162628845
0.431000000000000272,2.129585852197826590
0.432000000000000273,2.069493789071609857
0.433000000000000274,2.009891635454286618
0.434000000000000274,1.950789282574686867
0.435000000000000275,1.892196224300243257
0.436000000000000276,1.834121560472781409
0.437000000000000277,1.776574000485937388
0.438000000000000278,1.719561867090442009
0.439000000000000279,1.663093100413846726
0.440000000000000280,1.607175262181649300
0.441000000000000281,1.551815540127216009
0.442000000000000282,1.497020752578065439
0.443000000000000282,1.442797353206720867
0.444000000000000283,1.389151435934409262
0.445000000000000284,1.336088739976478923
0.446000000000000285,1.283614655018586959
0.447000000000000286,1.231734226513172104
0.448000000000000287,1.180452161086026575
0.449000000000000288,1.129772832043123509
0.450000000000000289,1.079700284968188706
0.451000000000000290,1.030238243401901510
0.452000000000000290,0.981390114593803986
0.453000000000000291,0.933158995318487117
0.454000000000000292,0.885547677747810069
0.455000000000000293,0.838558655371260064
0.456000000000000294,0.792194128956928312
0.457000000000000295,0.746456012545745784
0.458000000000000296,0.701345939472076019
0.459000000000000297,0.656865268403912794
0.460000000000000298,0.613015089396277135
0.461000000000000298,0.569796229951733180
0.462000000000000299,0.527209261082060676
0.463000000000000300,0.485254503365583012
0.464000000000000301,0.443932032994713288
0.465000000000000302,0.403241687808725047
0.466000000000000303,0.363183073306787008
0.467000000000000304,0.323755568636730662
0.468000000000000305,0.284958332555165506
0.469000000000000306,0.246790309354741805
0.470000000000000306,0.209250234754663283
0.471000000000000307,0.172336641750737873
0.472000000000000308,0.136047866421430547
0.473000000000000309,0.100382053686578307
0.474000000000000310,0.065337163015757843
0.475000000000000311,0.030910974083199916
0.476000000000000312,-0.002898907633274383
0.477000000000000313,-0.036095045312109830
0.478000000000000314,-0.068680165308829325
0.479000000000000314,-0.100657151740216166
0.480000000000000315,-0.132029041133828129
0.481000000000000316,-0.162799017144814956
0.482000000000000317,-0.192970405341783557
0.483000000000000318,-0.222546668063345721
0.484000000000000319,-0.251531399346840601
0.485000000000000320,-0.279928319930549896
0.486000000000000321,-0.307741272330694371
0.487000000000000322,-0.334974215994250257
0.488000000000000322,-0.361631222528584040
0.489000000000000323,-0.387716471008792696
0.490000000000000324,-0.413234243363500120
0.491000000000000325,-0.438188919839739566
0.492000000000000326,-0.462584974547491812
0.493000000000000327,-0.486426971084355841
0.494000000000000328,-0.509719558240648407
0.495000000000000329,-0.532467465785312122
0.496000000000000330,-0.554675500332675542
0.497000000000000330,-0.576348541290373162
0.498000000000000331,-0.597491536888229868
0.499000000000000332,-0.618109500288252400
0.500000000000000333,-0.638207505775550299
0.501000000000000334,-0.657790685029965738
0.502000000000000335,-0.676864223478267690
0.503000000000000336,-0.695433356726511076
0.504000000000000337,-0.713503367072304329
0.505000000000000338,-0.731079580096480108
0.506000000000000338,-0.748167361333774594
0.507000000000000339,-0.764772113022001099
0.508000000000000340,-0.780899270929107603
0.509000000000000341,-0.796554301257628605
0.510000000000000342,-0.811742697625760234
0.511000000000000343,-0.826469978124533156
0.512000000000000344,-0.840741682450238059
0.513000000000000345,-0.854563369111447813
0.514000000000000346,-0.867940612709874770
0.515000000000000346,-0.880879001294181174
0.516000000000000347,-0.893384133785989576
0.517000000000000348,-0.905461617477236969
0.518000000000000349,-0.917117065597957470
0.519000000000000350,-0.928356094953654898
0.520000000000000351,-0.939184323631289564
0.521000000000000352,-0.949607368773047078
0.522000000000000353,-0.959630844416810014
0.523000000000000353,-0.969260359402517202
0.524000000000000354,-0.978501515343340067
0.525000000000000355,-0.987359904660734422
0.526000000000000356,-0.995841108682367193
0.527000000000000357,-1.003950695801924198
0.528000000000000358,-1.011694219699811326
0.529000000000000359,-1.019077217623688858
0.530000000000000360,-1.026105208727863261
0.531000000000000361,-1.032783692470513381
0.532000000000000361,-1.039118147067720432
0.533000000000000362,-1.045114028003271134
0.534000000000000363,-1.050776766593218392
0.535000000000000364,-1.056111768604200307
0.536000000000000365,-1.061124412924435045
0.537000000000000366,-1.065820050286451437
0.538000000000000367,-1.070204002040439084
0.539000000000000368,-1.074281558977334905
0.540000000000000369,-1.078057980200489929
0.541000000000000369,-1.081538492045055699
0.542000000000000370,-1.084728287043953188
0.543000000000000371,-1.087632522939564250
0.544000000000000372,-1.090256321740050938
0.545000000000000373,-1.092604768819402938
0.546000000000000374,-1.094682912060199298
0.547000000000000375,-1.096495761038120964
0.548000000000000376,-1.098048286247304883
0.549000000000000377,-1.099345418365529348
0.550000000000000377,-1.100392047558373720
0.551000000000000378,-1.101193022821325140
0.552000000000000379,-1.101753151359045280
0.553000000000000380,-1.102077198000771308
0.554000000000000381,-1.102169884651010401
0.555000000000000382,-1.102035889774703126
0.556000000000000383,-1.101679847915825849
0.557000000000000384,-1.101106349248768712
0.558000000000000385,-1.100319939161461313
0.559000000000000385,-1.099325117869525581
0.560000000000000386,-1.098126340060592065
0.561000000000000387,-1.096728014567951437
0.562000000000000388,-1.095134504072741821
0.563000000000000389,-1.093350124833933235
0.564000000000000390,-1.091379146445238479
0.565000000000000391,-1.089225791618276151
0.566000000000000392,-1.086894235991166413
0.567000000000000393,-1.084388607961881856
0.568000000000000393,-1.081712988545538323
0.569000000000000394,-1.078871411254997970
0.570000000000000395,-1.075867862004050712
0.571000000000000396,-1.072706279032421772
0.572000000000000397,-1.069390552852050869
0.573000000000000398,-1.065924526213854806
0.574000000000000399,-1.062311994094402134
0.575000000000000400,-1.058556703701801549
0.576000000000000401,-1.054662354500208288
0.577000000000000401,-1.050632598252353445
0.578000000000000402,-1.046471039079412968
0.579000000000000403,-1.042181233537687879
0.580000000000000404,-1.037766690711529050
0.581000000000000405,-1.033230872321849514
0.582000000000000406,-1.028577192849781774
0.583000000000000407,-1.023809019674814191
0.584000000000000408,-1.018929673226995458
0.585000000000000409,-1.013942427152577208
0.586000000000000409,-1.008850508492635134
0.587000000000000410,-1.003657097874197657
0.588000000000000411,-0.998365329713289840
0.589000000000000412,-0.992978292429563703
0.590000000000000413,-0.987499028671887435
0.591000000000000414,-0.981930535554563555
0.592000000000000415,-0.976275764903675736
0.593000000000000416,-0.970537623513116010
0.594000000000000417,-0.964718973409884328
0.595000000000000417,-0.958822632128301544
0.596000000000000418,-0.952851372992577828
0.597000000000000419,-0.946807925407549988
0.598000000000000420,-0.940694975156996294
0.599000000000000421,-0.934515164709327606
0.600000000000000422,-0.928271093530159797
0.601000000000000423,-0.921965318401475331
0.602000000000000424,-0.915600353747024642
0.603000000000000425,-0.909178671963622898
0.604000000000000425,-0.902702703757966574
0.605000000000000426,-0.896174838488734915
0.606000000000000427,-0.889597424513619672
0.607000000000000428,-0.882972769540914748
0.608000000000000429,-0.876303140985539741
0.609000000000000430,-0.869590766328993015
0.610000000000000431,-0.862837833483164118
0.611000000000000432,-0.856046491157573919
0.612000000000000433,-0.849218849229861794
0.613000000000000433,-0.842356979119259330
0.614000000000000434,-0.835462914162775738
0.615000000000000435,-0.828538649993855736
0.616000000000000436,-0.821586144923288408
0.617000000000000437,-0.814607320322173201
