# TiO2-ana-100_PHE-AC
# h[nm],U(h)[kJ/mol]
0.149999999999999994,120.403777417806352901
0.150999999999999995,117.073176611114973866
0.151999999999999996,115.314629214068105512
0.152999999999999997,113.968892292289254442
0.153999999999999998,112.591757528630139973
0.154999999999999999,111.078913637499795186
0.156000000000000000,109.463079107034943149
0.157000000000000001,107.812391741987610772
0.158000000000000002,106.185878939766283224
0.159000000000000002,104.619209038303864645
0.160000000000000003,103.124995019269547925
0.161000000000000004,101.698835599948310460
0.162000000000000005,100.326486899307369072
0.163000000000000006,98.990032735350652615
0.164000000000000007,97.672307789558800550
0.165000000000000008,96.359547419573857496
0.166000000000000009,95.042563013902139346
0.167000000000000010,93.716844718621501897
0.168000000000000010,92.381980499762562431
0.169000000000000011,91.040715394373975755
0.170000000000000012,89.697893671499997481
0.171000000000000013,88.359448637566941898
0.172000000000000014,87.031538822865357474
0.173000000000000015,85.719878140012937706
0.174000000000000016,84.429270934760893397
0.175000000000000017,83.163338720968411621
0.176000000000000018,81.924411309546073312
0.177000000000000018,80.713548502236591276
0.178000000000000019,79.530657293492723170
0.179000000000000020,78.374671761337211251
0.180000000000000021,77.243767089491583988
0.181000000000000022,76.135584379909332142
0.182000000000000023,75.047448337566308396
0.183000000000000024,73.976565045993098124
0.184000000000000025,72.920191609543763889
0.185000000000000026,71.875773270726639907
0.186000000000000026,70.841046675665779730
0.187000000000000027,69.814110284503684056
0.188000000000000028,68.793464575242850856
0.189000000000000029,67.778025760704139202
0.190000000000000030,66.767117329062514841
0.191000000000000031,65.760443927927639152
0.192000000000000032,64.758052032277646504
0.193000000000000033,63.760281549344199448
0.194000000000000034,62.767712088364461920
0.195000000000000034,61.781107117167003651
0.196000000000000035,60.801358686279002086
0.197000000000000036,59.829434859329012397
0.198000000000000037,58.866331471296824418
0.199000000000000038,57.913029360995096795
0.200000000000000039,56.970457801895506122
0.201000000000000040,56.039464491656893586
0.202000000000000041,55.120792157076564877
0.203000000000000042,54.215061586278906702
0.204000000000000042,53.322760710272028462
0.205000000000000043,52.444239216640845314
0.206000000000000044,51.579708083378875472
0.207000000000000045,50.729243364602282895
0.208000000000000046,49.892793536018146483
0.209000000000000047,49.070189710637613700
0.210000000000000048,48.261158058830133655
0.211000000000000049,47.465333806407485895
0.212000000000000050,46.682276235567897515
0.213000000000000050,45.911484172373874912
0.214000000000000051,45.152411507715413563
0.215000000000000052,44.404482363712389770
0.216000000000000053,43.667105582046943368
0.217000000000000054,42.939688273066479951
0.218000000000000055,42.221648223360311647
0.219000000000000056,41.512425013952565678
0.220000000000000057,40.811489750645648655
0.221000000000000058,40.118353352037459558
0.222000000000000058,39.432573379172346506
0.223000000000000059,38.753759423707435872
0.224000000000000060,38.081577099045446744
0.225000000000000061,37.415750701374250298
0.226000000000000062,36.756064625307786287
0.227000000000000063,36.102363632235075386
0.228000000000000064,35.454552078981976138
0.229000000000000065,34.812592220406202159
0.230000000000000066,34.176501702524475945
0.231000000000000066,33.546350363130102323
0.232000000000000067,32.922256455013631182
0.233000000000000068,32.304382403228188991
0.234000000000000069,31.692930202699226783
0.235000000000000070,31.088136556190590909
0.236000000000000071,30.490267845494702925
0.237000000000000072,29.899615020972635904
0.238000000000000073,29.316488486457650708
0.239000000000000073,28.741213048249573347
0.240000000000000074,28.174122988630379893
0.241000000000000075,27.615557316169564217
0.242000000000000076,27.065855237169536451
0.243000000000000077,26.525351885022057985
0.244000000000000078,25.994374337077253756
0.245000000000000079,25.473237941918352334
0.246000000000000080,24.962242973728514528
0.247000000000000081,24.461671624749698140
0.248000000000000081,23.971785341682636528
0.249000000000000082,23.492822507260132880
0.250000000000000111,23.024996464136741281
0.251000000000000112,22.568493874661601950
0.252000000000000113,22.123473407018050096
0.253000000000000114,21.690064735600355306
0.254000000000000115,21.268367841325119372
0.255000000000000115,20.858452595815283104
0.256000000000000116,20.460358612015134838
0.257000000000000117,20.074095342764977090
0.258000000000000118,19.699642408151273543
0.259000000000000119,19.336950132021023308
0.260000000000000120,18.985940267875868415
0.261000000000000121,18.646506894414425659
0.262000000000000122,18.318517461239121502
0.263000000000000123,18.001813965661902728
0.264000000000000123,17.696214242104762349
0.265000000000000124,17.401513346272878380
0.266000000000000125,17.117485017058605479
0.267000000000000126,16.843883199993410216
0.268000000000000127,16.580443616983480126
0.269000000000000128,16.326885368027507894
0.270000000000000129,16.082912551606490581
0.271000000000000130,15.848215891442126946
0.272000000000000131,15.622474358331681188
0.273000000000000131,15.405356776771942151
0.274000000000000132,15.196523407075044787
0.275000000000000133,14.995627494646408095
0.276000000000000134,14.802316779034009997
0.277000000000000135,14.616234956263630451
0.278000000000000136,14.437023088841124618
0.279000000000000137,14.264320958628752933
0.280000000000000138,14.097768358584129800
0.281000000000000139,13.937006320086172906
0.282000000000000139,13.781678273261729117
0.283000000000000140,13.631431138368222733
0.284000000000000141,13.485916346882046213
0.285000000000000142,13.344790791489788973
0.286000000000000143,13.207717704680259629
0.287000000000000144,13.074367466091336709
0.288000000000000145,12.944418339177222066
0.289000000000000146,12.817557138131750349
0.290000000000000147,12.693479826331872218
0.291000000000000147,12.571892047855964591
0.292000000000000148,12.452509593884787620
0.293000000000000149,12.335058806011648613
0.294000000000000150,12.219276918674086829
0.295000000000000151,12.104912343074598624
0.296000000000000152,11.991724895084683311
0.297000000000000153,11.879485969726573558
0.298000000000000154,11.767978664902779329
0.299000000000000155,11.656997857096760285
0.300000000000000155,11.546350231800742492
0.301000000000000156,11.435854271440820895
0.302000000000000157,11.325340203566305775
0.303000000000000158,11.214649912052482961
0.304000000000000159,11.103636814034084423
0.305000000000000160,10.992165705243142071
0.306000000000000161,10.880112576370695621
0.307000000000000162,10.767364403008206963
0.308000000000000163,10.653818911653326396
0.309000000000000163,10.539384324186404029
0.310000000000000164,10.423979083140503477
0.311000000000000165,10.307531559999226545
0.312000000000000166,10.189979748664800496
0.313000000000000167,10.071270946144071701
0.314000000000000168,9.951361422403328660
0.315000000000000169,9.830216081244852688
0.316000000000000170,9.707808113959476515
0.317000000000000171,9.584118647410871716
0.318000000000000171,9.459136388109138593
0.319000000000000172,9.332857263734004150
0.320000000000000173,9.205284063472380041
0.321000000000000174,9.076426078440906764
0.322000000000000175,8.946298743372185669
0.323000000000000176,8.814923280653905735
0.324000000000000177,8.682326347722916893
0.325000000000000178,8.548539688732244457
0.326000000000000179,8.413599791327552424
0.327000000000000179,8.277547549291451645
0.328000000000000180,8.140427931738825507
0.329000000000000181,8.002289659474540073
0.330000000000000182,7.863184889056268112
0.331000000000000183,7.723168905039786480
0.332000000000000184,7.582299820822127501
0.333000000000000185,7.440638288439262560
0.334000000000000186,7.298247217619371341
0.335000000000000187,7.155191504340672637
0.336000000000000187,7.011537769093476591
0.337000000000000188,6.867354105000350373
0.338000000000000189,6.722709835905114062
0.339000000000000190,6.577675284501379949
0.340000000000000191,6.432321550534348731
0.341000000000000192,6.286720299074940677
0.342000000000000193,6.140943558833714455
0.343000000000000194,5.995063530452815925
0.344000000000000195,5.849152404687684381
0.345000000000000195,5.703282190365524862
0.346000000000000196,5.557524551985911998
0.347000000000000197,5.411950656808675930
0.348000000000000198,5.266631031256503448
0.349000000000000199,5.121635426443696737
0.350000000000000200,4.977032692628528210
0.351000000000000201,4.832890662374149215
0.352000000000000202,4.689276042192570770
0.353000000000000203,4.546254312436834866
0.354000000000000203,4.403889635198903640
0.355000000000000204,4.262244769964558699
0.356000000000000205,4.121380996771415006
0.357000000000000206,3.981358046612165857
0.358000000000000207,3.842234038822767594
0.359000000000000208,3.704065425193133532
0.360000000000000209,3.566906940537152959
0.361000000000000210,3.430811559459210791
0.362000000000000210,3.295830459054712058
0.363000000000000211,3.162012987284172905
0.364000000000000212,3.029406636762354221
0.365000000000000213,2.898057023706914315
0.366000000000000214,2.768007871794385899
0.367000000000000215,2.639301000675231546
0.368000000000000216,2.511976318903852423
0.369000000000000217,2.386071821044460251
0.370000000000000218,2.261623588718436384
0.371000000000000218,2.138665795364389499
0.372000000000000219,2.017230714487599386
0.373000000000000220,1.897348731181366377
0.374000000000000221,1.779048356708937906
0.375000000000000222,1.662356245940733057
0.376000000000000223,1.547297217447740181
0.377000000000000224,1.433894276058704786
0.378000000000000225,1.322168637694791649
0.379000000000000226,1.212139756302181182
0.380000000000000226,1.103825352709274288
0.381000000000000227,0.997241445242027402
0.382000000000000228,0.892402381937061562
0.383000000000000229,0.789320874198929601
0.384000000000000230,0.688008031754118066
0.385000000000000231,0.588473398760712807
0.386000000000000232,0.490724990939042649
0.387000000000000233,0.394769333594457428
0.388000000000000234,0.300611500409808552
0.389000000000000234,0.208255152890772205
0.390000000000000235,0.117702580353207686
0.391000000000000236,0.028954740347344087
0.392000000000000237,-0.057988700580938815
0.393000000000000238,-0.143129325885944597
0.394000000000000239,-0.226469927864108633
0.395000000000000240,-0.308014466425981570
0.396000000000000241,-0.387768027877117172
0.397000000000000242,-0.465736783781986741
0.398000000000000242,-0.541927949980362866
0.399000000000000243,-0.616349745821008321
0.400000000000000244,-0.689011353673376847
0.401000000000000245,-0.759922878773572119
0.402000000000000246,-0.829095309456856056
0.403000000000000247,-0.896540477825244708
0.404000000000000248,-0.962271020894709728
0.405000000000000249,-1.026300342263158916
0.406000000000000250,-1.088642574336719626
0.407000000000000250,-1.149312541148707734
0.408000000000000251,-1.208325721802409047
0.409000000000000252,-1.265698214565754709
0.410000000000000253,-1.321446701643208765
0.411000000000000254,-1.375588414647306745
0.412000000000000255,-1.428141100789710238
0.413000000000000256,-1.479122989809247057
0.414000000000000257,-1.528552761651815528
0.415000000000000258,-1.576449514915110317
0.416000000000000258,-1.622832736068648085
0.417000000000000259,-1.667722269457885487
0.418000000000000260,-1.711138288099057547
0.419000000000000261,-1.753101265269818132
0.420000000000000262,-1.793631946898817331
0.421000000000000263,-1.832751324756076716
0.422000000000000264,-1.870480610444146929
0.423000000000000265,-1.906841210189080815
0.424000000000000266,-1.941854700428590874
0.425000000000000266,-1.975542804193695989
0.426000000000000267,-2.007927368279081470
0.427000000000000268,-2.039030341196220064
0.428000000000000269,-2.068873751902401192
0.429000000000000270,-2.097479689297939043
0.430000000000000271,-2.124870282482897554
0.431000000000000272,-2.151067681764058381
0.432000000000000273,-2.176094040401987062
0.433000000000000274,-2.199971497087588101
0.434000000000000274,-2.222722159136840681
0.435000000000000275,-2.244368086391913319
0.436000000000000276,-2.264931275816457923
0.437000000000000277,-2.284433646772362714
0.438000000000000278,-2.302897026964931815
0.439000000000000279,-2.320343139043167913
0.440000000000000280,-2.336793587841465403
0.441000000000000281,-2.352269848248854878
0.442000000000000282,-2.366793253691760857
0.443000000000000282,-2.380384985215928673
0.444000000000000283,-2.393066061153275026
0.445000000000000284,-2.404857327359080976
0.446000000000000285,-2.415779448005047847
0.447000000000000286,-2.425852896913679224
0.448000000000000287,-2.435097949419287922
0.449000000000000288,-2.443534674741206558
0.450000000000000289,-2.451182928854546361
0.451000000000000290,-2.458062347844080620
0.452000000000000290,-2.464192341726906044
0.453000000000000291,-2.469592088729476664
0.454000000000000292,-2.474280530004940637
0.455000000000000293,-2.478276364776662799
0.456000000000000294,-2.481598045894038762
0.457000000000000295,-2.484263775786925699
0.458000000000000296,-2.486291502804985232
0.459000000000000297,-2.487698917928723663
0.460000000000000298,-2.488503451838863345
0.461000000000000298,-2.488722272331205687
0.462000000000000299,-2.488372282064119201
0.463000000000000300,-2.487470116626096406
0.464000000000000301,-2.486032142911105858
0.465000000000000302,-2.484074457789582802
0.466000000000000303,-2.481612887063190609
0.467000000000000304,-2.478662984691793802
0.468000000000000305,-2.475240032281162517
0.469000000000000306,-2.471359038820339915
0.470000000000000306,-2.467034740657825242
0.471000000000000307,-2.462281601705792689
0.472000000000000308,-2.457113813862139562
0.473000000000000309,-2.451545297640129739
0.474000000000000310,-2.445589702995774939
0.475000000000000311,-2.439260410343345509
0.476000000000000312,-2.432570531749659981
0.477000000000000313,-2.425532912298007382
0.478000000000000314,-2.418160131612832497
0.479000000000000314,-2.410464505536621171
0.480000000000000315,-2.402458087950544385
0.481000000000000316,-2.394152672730807563
0.482000000000000317,-2.385559795832769225
0.483000000000000318,-2.376690737495233297
0.484000000000000319,-2.367556524557477449
0.485000000000000320,-2.358167932881870765
0.486000000000000321,-2.348535489875154258
0.487000000000000322,-2.338669477101652738
0.488000000000000322,-2.328579932981894363
0.489000000000000323,-2.318276655570504552
0.490000000000000324,-2.307769205407184110
0.491000000000000325,-2.297066908435011268
0.492000000000000326,-2.286178858980407291
0.493000000000000327,-2.275113922789418819
0.494000000000000328,-2.263880740114966095
0.495000000000000329,-2.252487728850193882
0.496000000000000330,-2.240943087702921943
0.497000000000000330,-2.229254799406758636
0.498000000000000331,-2.217430633964165398
0.499000000000000332,-2.205478151917461993
0.500000000000000333,-2.193404707643491491
0.501000000000000334,-2.181217452668029466
0.502000000000000335,-2.168923338996274097
0.503000000000000336,-2.156529122455711267
0.504000000000000337,-2.144041366047984454
0.505000000000000338,-2.131466443306414327
0.506000000000000338,-2.118810541656098057
0.507000000000000339,-2.106079665773568532
0.508000000000000340,-2.093279640943112252
0.509000000000000341,-2.080416116407179938
0.510000000000000342,-2.067494568708114322
0.511000000000000343,-2.054520305018940896
0.512000000000000344,-2.041498466460746730
0.513000000000000345,-2.028434031404533044
0.514000000000000346,-2.015331818755481841
0.515000000000000346,-2.002196491217573815
0.516000000000000347,-1.989032558536779405
0.517000000000000348,-1.975844380721094140
0.518000000000000349,-1.962636171235671467
0.519000000000000350,-1.949412000171654613
0.520000000000000351,-1.936175797387104325
0.521000000000000352,-1.922931355618833438
0.522000000000000353,-1.909682333563734957
0.523000000000000353,-1.896432258928535841
0.524000000000000354,-1.883184531446853827
0.525000000000000355,-1.869942425862517910
0.526000000000000356,-1.856709094878260302
0.527000000000000357,-1.843487572068917446
0.528000000000000358,-1.830280774758324513
0.529000000000000359,-1.817091506859248584
0.530000000000000360,-1.803922461675628641
0.531000000000000361,-1.790776224666620120
0.532000000000000361,-1.777655276171873577
0.533000000000000362,-1.764561994097591180
0.534000000000000363,-1.751498656562954892
0.535000000000000364,-1.738467444506591963
0.536000000000000365,-1.725470444252725333
0.537000000000000366,-1.712509650036834641
0.538000000000000367,-1.699586966490510331
0.539000000000000368,-1.686704211085484628
0.540000000000000369,-1.673863116536567164
0.541000000000000369,-1.661065333163560975
0.542000000000000370,-1.648312431211966356
0.543000000000000371,-1.635605903132616223
0.544000000000000372,-1.622947165820172843
0.545000000000000373,-1.610337562810625567
0.546000000000000374,-1.597778366437834219
0.547000000000000375,-1.585270779949284226
0.548000000000000376,-1.572815939581205580
0.549000000000000377,-1.560414916593240608
0.550000000000000377,-1.548068719262877924
0.551000000000000378,-1.535778294839845737
0.552000000000000379,-1.523544531460828910
0.553000000000000380,-1.511368260024653853
0.554000000000000381,-1.499250256028334949
0.555000000000000382,-1.487191241364308691
0.556000000000000383,-1.475191886079087578
0.557000000000000384,-1.463252810093844669
0.558000000000000385,-1.451374584887131780
0.559000000000000385,-1.439557735140245764
0.560000000000000386,-1.427802740345580190
0.561000000000000387,-1.416110036378361858
0.562000000000000388,-1.404480017032205152
0.563000000000000389,-1.392913035518948517
0.564000000000000390,-1.381409405933141654
0.565000000000000391,-1.369969404681696590
0.566000000000000392,-1.358593271879102726
0.567000000000000393,-1.347281212708752118
0.568000000000000393,-1.336033398750716250
0.569000000000000394,-1.324849969276566952
0.570000000000000395,-1.313731032511688879
0.571000000000000396,-1.302676666865491217
0.572000000000000397,-1.291686922130143023
0.573000000000000398,-1.280761820648183003
0.574000000000000399,-1.269901358449611273
0.575000000000000400,-1.259105506358868531
0.576000000000000401,-1.248374211072237561
0.577000000000000401,-1.237707396206209065
0.578000000000000402,-1.227104963317200870
0.579000000000000403,-1.216566792893203797
0.580000000000000404,-1.206092745317884241
0.581000000000000405,-1.195682661807506486
0.582000000000000406,-1.185336365321333130
0.583000000000000407,-1.175053661445845998
0.584000000000000408,-1.164834339253399520
0.585000000000000409,-1.154678172135724434
0.586000000000000409,-1.144584918612757019
0.587000000000000410,-1.134554323117374253
0.588000000000000411,-1.124586116756358667
0.589000000000000412,-1.114680018048246124
0.590000000000000413,-1.104835733638365403
0.591000000000000414,-1.095052958991651781
0.592000000000000415,-1.085331379063671609
0.593000000000000416,-1.075670668950266418
0.594000000000000417,-1.066070494516330625
0.595000000000000417,-1.056530513004214411
0.596000000000000418,-1.047050373622020247
0.597000000000000419,-1.037629718112500932
0.598000000000000420,-1.028268181302720130
0.599000000000000421,-1.018965391635145545
0.600000000000000422,-1.009720971680428514
0.601000000000000423,-1.000534538632374737
0.602000000000000424,-0.991405704785525588
0.603000000000000425,-0.982334077995719368
0.604000000000000425,-0.973319262124052509
0.605000000000000426,-0.964360857464660048
0.606000000000000427,-0.955458461156718064
0.607000000000000428,-0.946611667580937288
0.608000000000000429,-0.937820068741165969
0.609000000000000430,-0.929083254631192346
0.610000000000000431,-0.920400813587373023
0.611000000000000432,-0.911772332627272974
0.612000000000000433,-0.903197397774754718
0.613000000000000433,-0.894675594371875382
0.614000000000000434,-0.886206507377908181
