# TiO2-ana-100_ACYLSYRINGYL-AC
# h[nm],U(h)[kJ/mol]
0.149999999999999994,130.545835001313008661
0.150999999999999995,128.180712389422154729
0.151999999999999996,126.378379427183787698
0.152999999999999997,124.700521615395047093
0.153999999999999998,122.973360519353576592
0.154999999999999999,121.156292967639203084
0.156000000000000000,119.266986098147754092
0.157000000000000001,117.341203659498162892
0.158000000000000002,115.413312709373400367
0.159000000000000002,113.508557771273075332
0.160000000000000003,111.641587221625769644
0.161000000000000004,109.817930009969330740
0.162000000000000005,108.036535879717149555
0.163000000000000006,106.292375518166679171
0.164000000000000007,104.578631010126017031
0.165000000000000008,102.888315458778677680
0.166000000000000009,101.215326839816611937
0.167000000000000010,99.555020197442175345
0.168000000000000010,97.904410131360634750
0.169000000000000011,96.262115143223780933
0.170000000000000012,94.628141107408353605
0.171000000000000013,93.003581476342617407
0.172000000000000014,91.390291687714352520
0.173000000000000015,89.790577126276488684
0.174000000000000016,88.206918985327973814
0.175000000000000017,86.641750709687158860
0.176000000000000018,85.097289162829611087
0.177000000000000018,83.575418808169004592
0.178000000000000019,82.077623518054124929
0.179000000000000020,80.604958623823378616
0.180000000000000021,79.158055048911265317
0.181000000000000022,77.737147448066806987
0.182000000000000023,76.342118906999559158
0.183000000000000024,74.972555705439134499
0.184000000000000025,73.627806740690587617
0.185000000000000026,72.307043326896973667
0.186000000000000026,71.009316146581539897
0.187000000000000027,69.733607086187248569
0.188000000000000028,68.478874510278870957
0.189000000000000029,67.244091210682455539
0.190000000000000030,66.028274809545720814
0.191000000000000031,64.830510808992727334
0.192000000000000032,63.649968778944597148
0.193000000000000033,62.485912375053736412
0.194000000000000034,61.337703997292045699
0.195000000000000034,60.204804952628023784
0.196000000000000035,59.086771987214241619
0.197000000000000036,57.983251017683315354
0.198000000000000037,56.893968828762595535
0.199000000000000038,55.818723424861978799
0.200000000000000039,54.757373634187459288
0.201000000000000040,53.709828471298365571
0.202000000000000041,52.676036672435387231
0.203000000000000042,51.655976730751604009
0.204000000000000042,50.649647678087106328
0.205000000000000043,49.657060787605004748
0.206000000000000044,48.678232308227300962
0.207000000000000045,47.713177287626173495
0.208000000000000046,46.761904495385728353
0.209000000000000047,45.824412421407075158
0.210000000000000048,44.900686296045272172
0.211000000000000049,43.990696057072774749
0.212000000000000050,43.094395173524709719
0.213000000000000050,42.211720226947626600
0.214000000000000051,41.342591145702172639
0.215000000000000052,40.486911986962432763
0.216000000000000053,39.644572163168987800
0.217000000000000054,38.815448014247337483
0.218000000000000055,37.999404633299249667
0.219000000000000056,37.196297861179495214
0.220000000000000057,36.405976373926947076
0.221000000000000058,35.628283796049103671
0.222000000000000058,34.863060781832757584
0.223000000000000059,34.110147015924034974
0.224000000000000060,33.369383093174739940
0.225000000000000061,32.640612246040078048
0.226000000000000062,31.923681895517564300
0.227000000000000063,31.218445008663913143
0.228000000000000064,30.524761252068589812
0.229000000000000065,29.842497936277140980
0.230000000000000066,29.171530751047253460
0.231000000000000066,28.511744295498271384
0.232000000000000067,27.863032410713607590
0.233000000000000068,27.225298325209973171
0.234000000000000069,26.598454625947027807
0.235000000000000070,25.982423069262768678
0.236000000000000071,25.377134247338553052
0.237000000000000072,24.782527126574652954
0.238000000000000073,24.198548474646990769
0.239000000000000073,23.625152193069933304
0.240000000000000074,23.062298571855087914
0.241000000000000075,22.509953482383032508
0.242000000000000076,21.968087523933203187
0.243000000000000077,21.436675138487501613
0.244000000000000078,20.915693707472790663
0.245000000000000079,20.405122643067215904
0.246000000000000080,19.904942485595046975
0.247000000000000081,19.415134017398827382
0.248000000000000081,18.935677402428861882
0.249000000000000082,18.466551359647329633
0.250000000000000111,18.007732377221820741
0.251000000000000112,17.559193973396581612
0.252000000000000113,17.120906008886464633
0.253000000000000114,16.692834054651353171
0.254000000000000115,16.274938817978622296
0.255000000000000115,15.867175628937905785
0.256000000000000116,15.469493988474614099
0.257000000000000117,15.081837178681150036
0.258000000000000118,14.704141935126381568
0.259000000000000119,14.336338180534340836
0.260000000000000120,13.978348818581221025
0.261000000000000121,13.630089586123711243
0.262000000000000122,13.291468961778031499
0.263000000000000123,12.962388128436113988
0.264000000000000123,12.642740987027831778
0.265000000000000124,12.332414218614914603
0.266000000000000125,12.031287391726973368
0.267000000000000126,11.739233111721189218
0.268000000000000127,11.456117208858874079
0.269000000000000128,11.181798961742654086
0.270000000000000129,10.916131352741635041
0.271000000000000130,10.658961352046171456
0.272000000000000131,10.410130227035280015
0.273000000000000131,10.169473873704156119
0.274000000000000132,9.936823166984540379
0.275000000000000133,9.712004326893028505
0.276000000000000134,9.494839297559309443
0.277000000000000135,9.285146136315825416
0.278000000000000136,9.082739410168576555
0.279000000000000137,8.887430597115097086
0.280000000000000138,8.699028489927385976
0.281000000000000139,8.517339600172453729
0.282000000000000139,8.342168560400661903
0.283000000000000140,8.173318522589461566
0.284000000000000141,8.010591551087546947
0.285000000000000142,7.853789008459244769
0.286000000000000143,7.702711932781393323
0.287000000000000144,7.557161405093635764
0.288000000000000145,7.416938905847013430
0.289000000000000146,7.281846659335242222
0.290000000000000147,7.151687965226258825
0.291000000000000147,7.026267516439827610
0.292000000000000148,6.905391702738121751
0.293000000000000149,6.788868899511648181
0.294000000000000150,6.676509741351226879
0.295000000000000151,6.568127380098613521
0.296000000000000152,6.463537727163743973
0.297000000000000153,6.362559679984888916
0.298000000000000154,6.265015332590254893
0.299000000000000155,6.170730170294902450
0.300000000000000155,6.079533248636089127
0.301000000000000156,5.991257356713411752
0.302000000000000157,5.905739165156904669
0.303000000000000158,5.822819358998050809
0.304000000000000159,5.742342755764134665
0.305000000000000160,5.664158409157463936
0.306000000000000161,5.588119698716340622
0.307000000000000162,5.514084405885593121
0.308000000000000163,5.441914776951170651
0.309000000000000163,5.371477573315234899
0.310000000000000164,5.302644109606620582
0.311000000000000165,5.235290280136118746
0.312000000000000166,5.169296574217088214
0.313000000000000167,5.104548080879937721
0.314000000000000168,5.040934483514062592
0.315000000000000169,4.978350044973013588
0.316000000000000170,4.916693583678555690
0.317000000000000171,4.855868441256879109
0.318000000000000171,4.795782442235715592
0.319000000000000172,4.736347846324713728
0.320000000000000173,4.677481293793486650
0.321000000000000174,4.619103744452368154
0.322000000000000175,4.561140410729898065
0.323000000000000176,4.503520685329433171
0.324000000000000177,4.446178063934119962
0.325000000000000178,4.389050063415940173
0.326000000000000179,4.332078135989847922
0.327000000000000179,4.275207579739136676
0.328000000000000180,4.218387445922642698
0.329000000000000181,4.161570443458292523
0.330000000000000182,4.104712840961672882
0.331000000000000183,4.047774366701625048
0.332000000000000184,3.990718106818655464
0.333000000000000185,3.933510402135437012
0.334000000000000186,3.876120743872218721
0.335000000000000187,3.818521668563759963
0.336000000000000187,3.760688652458124004
0.337000000000000188,3.702600005662060489
0.338000000000000189,3.644236766281624629
0.339000000000000190,3.585582594791711042
0.340000000000000191,3.526623668853031468
0.341000000000000192,3.467348578780337753
0.342000000000000193,3.407748223851571279
0.343000000000000194,3.347815709633621850
0.344000000000000195,3.287546246487238477
0.345000000000000195,3.226937049400214530
0.346000000000000196,3.165987239285954047
0.347000000000000197,3.104697745872056380
0.348000000000000198,3.043071212292237426
0.349000000000000199,2.981111901483676885
0.350000000000000200,2.918825604481209979
0.351000000000000201,2.856219550689741205
0.352000000000000202,2.793302320206440648
0.353000000000000203,2.730083758255096082
0.354000000000000203,2.666574891786216206
0.355000000000000204,2.602787848288212302
0.356000000000000205,2.538735776847064862
0.357000000000000206,2.474432771484333493
0.358000000000000207,2.409893796796684917
0.359000000000000208,2.345134615913179399
0.360000000000000209,2.280171720780477251
0.361000000000000210,2.215022264780516448
0.362000000000000210,2.149703997679471179
0.363000000000000211,2.084235202902058326
0.364000000000000212,2.018634637120371611
0.365000000000000213,1.952921472142186587
0.366000000000000214,1.887115239079634410
0.367000000000000215,1.821235774775441296
0.368000000000000216,1.755303170460489781
0.369000000000000217,1.689337722613531323
0.370000000000000218,1.623359885990781182
0.371000000000000218,1.557390228790894948
0.372000000000000219,1.491449389918230839
0.373000000000000220,1.425558038305392738
0.374000000000000221,1.359736834254229532
0.375000000000000222,1.294006392752872214
0.376000000000000223,1.228387248724711389
0.377000000000000224,1.162899824164497442
0.378000000000000225,1.097564397115200041
0.379000000000000226,1.032401072438845935
0.380000000000000226,0.967429754333449354
0.381000000000000227,0.902670120548013544
0.382000000000000228,0.838141598246843200
0.383000000000000229,0.773863341474345434
0.384000000000000230,0.709854210171314670
0.385000000000000231,0.646132750693561797
0.386000000000000232,0.582717177784055629
0.387000000000000233,0.519625357949646705
0.388000000000000234,0.456874794194021050
0.389000000000000234,0.394482612058588089
0.390000000000000235,0.332465546923709165
0.391000000000000236,0.270839932523020188
0.392000000000000237,0.209621690624236384
0.393000000000000238,0.148826321830442143
0.394000000000000239,0.088468897456596002
0.395000000000000240,0.028564052436674991
0.396000000000000241,-0.030874020782335344
0.397000000000000242,-0.089831577402541815
0.398000000000000242,-0.148295324535474282
0.399000000000000243,-0.206252424601813894
0.400000000000000244,-0.263690497910945065
0.401000000000000245,-0.320597624459653452
0.402000000000000246,-0.376962344988371556
0.403000000000000247,-0.432773661332617743
0.404000000000000248,-0.488021036105961925
0.405000000000000249,-0.542694391750198180
0.406000000000000250,-0.596784108987163942
0.407000000000000250,-0.650281024705841038
0.408000000000000251,-0.703176429317272755
0.409000000000000252,-0.755462063608862033
0.410000000000000253,-0.807130115128679604
0.411000000000000254,-0.858173214129372974
0.412000000000000255,-0.908584429100264046
0.413000000000000256,-0.958357261915430358
0.414000000000000257,-1.007485642624313282
0.415000000000000258,-1.055963923910804736
0.416000000000000258,-1.103786875245474697
0.417000000000000259,-1.150949676754995821
0.418000000000000260,-1.197447912831665073
0.419000000000000261,-1.243277565505261695
0.420000000000000262,-1.288435007598331294
0.421000000000000263,-1.332916995685502481
0.422000000000000264,-1.376720662876111945
0.423000000000000265,-1.419843511439129458
0.424000000000000266,-1.462283405288146598
0.425000000000000266,-1.504038562343601670
0.426000000000000267,-1.545107546788620834
0.427000000000000268,-1.585489261234123148
0.428000000000000269,-1.625182938808009681
0.429000000000000270,-1.664188135182693484
0.430000000000000271,-1.702504720554404383
0.431000000000000272,-1.740132871587170227
0.432000000000000273,-1.777073063333519887
0.433000000000000274,-1.813326061143569534
0.434000000000000274,-1.848892912573360192
0.435000000000000275,-1.883774939302752527
0.436000000000000276,-1.917973729072689482
0.437000000000000277,-1.951491127650985646
0.438000000000000278,-1.984329230835308433
0.439000000000000279,-2.016490376501518078
0.440000000000000280,-2.047977136704972612
0.441000000000000281,-2.078792309841940078
0.442000000000000282,-2.108938912877899252
0.443000000000000282,-2.138420173648811762
0.444000000000000283,-2.167239523241337729
0.445000000000000284,-2.195400588457247171
0.446000000000000285,-2.222907184367097777
0.447000000000000286,-2.249763306957788700
0.448000000000000287,-2.275973125878139935
0.449000000000000288,-2.301540977286511858
0.450000000000000289,-2.326471356803890167
0.451000000000000290,-2.350768912575710523
0.452000000000000290,-2.374438438445376498
0.453000000000000291,-2.397484867241974626
0.454000000000000292,-2.419913264184612611
0.455000000000000293,-2.441728820405411060
0.456000000000000294,-2.462936846592914009
0.457000000000000295,-2.483542766757552922
0.458000000000000296,-2.503552112120384976
0.459000000000000297,-2.522970515126301994
0.460000000000000298,-2.541803703582521834
0.461000000000000298,-2.560057494923105637
0.462000000000000299,-2.577737790599966328
0.463000000000000300,-2.594850570600668593
0.464000000000000301,-2.611401888093238366
0.465000000000000302,-2.627397864197871691
0.466000000000000303,-2.642844682885448826
0.467000000000000304,-2.657748586002529390
0.468000000000000305,-2.672115868422339169
0.469000000000000306,-2.685952873321227230
0.470000000000000306,-2.699265987579922754
0.471000000000000307,-2.712061637308683437
0.472000000000000308,-2.724346283495552523
0.473000000000000309,-2.736126417776678643
0.474000000000000310,-2.747408558327539829
0.475000000000000311,-2.758199245874012107
0.476000000000000312,-2.768505039821926417
0.477000000000000313,-2.778332514503860651
0.478000000000000314,-2.787688255541691973
0.479000000000000314,-2.796578856323564288
0.480000000000000315,-2.805010914593638827
0.481000000000000316,-2.812991029153177447
0.482000000000000317,-2.820525796671256913
0.483000000000000318,-2.827621808603550502
0.484000000000000319,-2.834285648217420572
0.485000000000000320,-2.840523887721631890
0.486000000000000321,-2.846343085498971970
0.487000000000000322,-2.851749783439932795
0.488000000000000322,-2.856750504375697108
0.489000000000000323,-2.861351749608632922
0.490000000000000324,-2.865559996538435072
0.491000000000000325,-2.869381696382082847
0.492000000000000326,-2.872823271985735172
0.493000000000000327,-2.875891115726776359
0.494000000000000328,-2.878591587504041538
0.495000000000000329,-2.880931012814481385
0.496000000000000330,-2.882915680914244660
0.497000000000000330,-2.884551843062526988
0.498000000000000331,-2.885845710846063561
0.499000000000000332,-2.886803454582668849
0.500000000000000333,-2.887431201801830660
0.501000000000000334,-2.887735035800528038
0.502000000000000335,-2.887720994272521047
0.503000000000000336,-2.887395068009255716
0.504000000000000337,-2.886763199670599356
0.505000000000000338,-2.885831282623612104
0.506000000000000338,-2.884605159847616562
0.507000000000000339,-2.883090622903818012
0.508000000000000340,-2.881293410967693092
0.509000000000000341,-2.879219209922573963
0.510000000000000342,-2.876873651512549479
0.511000000000000343,-2.874262312553216070
0.512000000000000344,-2.871390714198477134
0.513000000000000345,-2.868264321261857930
0.514000000000000346,-2.864888541590752347
0.515000000000000346,-2.861268725491941556
0.516000000000000347,-2.857410165206901276
0.517000000000000348,-2.853318094435406405
0.518000000000000349,-2.848997687905816534
0.519000000000000350,-2.844454060990707411
0.520000000000000351,-2.839692269366267841
0.521000000000000352,-2.834717308714188810
0.522000000000000353,-2.829534114464466121
0.523000000000000353,-2.824147561577923238
0.524000000000000354,-2.818562464366999087
0.525000000000000355,-2.812783576353519166
0.526000000000000356,-2.806815590162137219
0.527000000000000357,-2.800663137448235140
0.528000000000000358,-2.794330788858972792
0.529000000000000359,-2.787823054026334901
0.530000000000000360,-2.781144381590921366
0.531000000000000361,-2.774299159255403158
0.532000000000000361,-2.767291713866434577
0.533000000000000362,-2.760126311523956044
0.534000000000000363,-2.752807157716774533
0.535000000000000364,-2.745338397483397141
0.536000000000000365,-2.737724115597043983
0.537000000000000366,-2.729968336773880289
0.538000000000000367,-2.722075025903390788
0.539000000000000368,-2.714048088300099248
0.540000000000000369,-2.705891369975491845
0.541000000000000369,-2.697608657929431608
0.542000000000000370,-2.689203680460005241
0.543000000000000371,-2.680680107491062447
0.544000000000000372,-2.672041550916535613
0.545000000000000373,-2.663291564960746260
0.546000000000000374,-2.654433646553893134
0.547000000000000375,-2.645471235721939429
0.548000000000000376,-2.636407715990162437
0.549000000000000377,-2.627246414799619068
0.550000000000000377,-2.617990603935828275
0.551000000000000378,-2.608643499968926527
0.552000000000000379,-2.599208264704739424
0.553000000000000380,-2.589688005645983004
0.554000000000000381,-2.580085776463026725
0.555000000000000382,-2.570404577473677232
0.556000000000000383,-2.560647356131189323
0.557000000000000384,-2.550817007520188362
0.558000000000000385,-2.540916374859695903
0.559000000000000385,-2.530948250012909462
0.560000000000000386,-2.520915374003097398
0.561000000000000387,-2.510820437535175031
0.562000000000000388,-2.500666081522388673
0.563000000000000389,-2.490454897617751406
0.564000000000000390,-2.480189428749658642
0.565000000000000391,-2.469872169661309957
0.566000000000000392,-2.459505567453486474
0.567000000000000393,-2.449092022130302748
0.568000000000000393,-2.438633887147469093
0.569000000000000394,-2.428133469962747704
0.570000000000000395,-2.417593032588233548
0.571000000000000396,-2.407014792144017701
0.572000000000000397,-2.396400921413030627
0.573000000000000398,-2.385753549396597784
0.574000000000000399,-2.375074761870496154
0.575000000000000400,-2.364366601941136459
0.576000000000000401,-2.353631070601605035
0.577000000000000401,-2.342870127287330462
0.578000000000000402,-2.332085690431003222
0.579000000000000403,-2.321279638016567226
0.580000000000000404,-2.310453808132054032
0.581000000000000405,-2.299609999520920489
0.582000000000000406,-2.288749972131785437
0.583000000000000407,-2.277875447666246611
0.584000000000000408,-2.266988110124645850
0.585000000000000409,-2.256089606349539700
0.586000000000000409,-2.245181546566684894
0.587000000000000410,-2.234265504923418355
0.588000000000000411,-2.223343020024152406
0.589000000000000412,-2.212415595462957629
0.590000000000000413,-2.201484700352934976
0.591000000000000414,-2.190551769852350450
0.592000000000000415,-2.179618205687342769
0.593000000000000416,-2.168685376671032561
0.594000000000000417,-2.157754619218980707
0.595000000000000417,-2.146827237860878146
0.596000000000000418,-2.135904505748225546
0.597000000000000419,-2.124987665158122763
0.598000000000000420,-2.114077927992831896
0.599000000000000421,-2.103176476275215645
0.600000000000000422,-2.092284462639839138
0.601000000000000423,-2.081403010819701471
0.602000000000000424,-2.070533216128547238
0.603000000000000425,-2.059676145938640790
0.604000000000000425,-2.048832840153951285
0.605000000000000426,-2.038004311678711655
0.606000000000000427,-2.027191546881309758
0.607000000000000428,-2.016395506053340725
0.608000000000000429,-2.005617123864015472
0.609000000000000430,-1.994857309809581425
0.610000000000000431,-1.984116948658011026
0.611000000000000432,-1.973396900888705119
0.612000000000000433,-1.962698003127287816
0.613000000000000433,-1.952021068575476637
0.614000000000000434,-1.941366887435956201
0.615000000000000435,-1.930736227332243926
