# TiO2-ana-100_PYRIDINE-AC
# h[nm],U(h)[kJ/mol]
0.149999999999999994,104.388512067670575334
0.150999999999999995,103.641370484868119206
0.151999999999999996,101.566368978579035343
0.152999999999999997,99.267119219394771790
0.153999999999999998,97.144993160556040834
0.154999999999999999,95.270284852226296834
0.156000000000000000,93.583484189038202317
0.157000000000000001,91.996128636180998228
0.158000000000000002,90.434710095739831104
0.159000000000000002,88.854189807253078470
0.160000000000000003,87.236822909849479402
0.161000000000000004,85.585169787838125899
0.162000000000000005,83.913983923849613689
0.163000000000000006,82.243179773722431491
0.164000000000000007,80.592674984934703275
0.165000000000000008,78.979157706886098822
0.166000000000000009,77.414484481119416159
0.167000000000000010,75.905296638271735787
0.168000000000000010,74.453446827530996188
0.169000000000000011,73.056887856057883823
0.170000000000000012,71.710756088957111842
0.171000000000000013,70.408461002024054665
0.172000000000000014,69.142661311885760256
0.173000000000000015,67.906062832764661152
0.174000000000000016,66.692013664521397232
0.175000000000000017,65.494900071549182030
0.176000000000000018,64.310363738274446632
0.177000000000000018,63.135370371903789533
0.178000000000000019,61.968163060069308301
0.179000000000000020,60.808133240391121888
0.180000000000000021,59.655639088938940517
0.181000000000000022,58.511796717844426041
0.182000000000000023,57.378264609759369819
0.183000000000000024,56.257036771238304595
0.184000000000000025,55.150255517231798308
0.185000000000000026,54.060050808799381628
0.186000000000000026,52.988409747460615051
0.187000000000000027,51.937077195814779884
0.188000000000000028,50.907486507744032167
0.189000000000000029,49.900717944891518130
0.190000000000000030,48.917481446132406120
0.191000000000000031,47.958119915752419615
0.192000000000000032,47.022629018815180757
0.193000000000000033,46.110689540437093115
0.194000000000000034,45.221708610465292111
0.195000000000000034,44.354866457818317826
0.196000000000000035,43.509165791410289614
0.197000000000000036,42.683481368921341925
0.198000000000000037,41.876607781423082599
0.199000000000000038,41.087303929540382796
0.200000000000000039,40.314333080555549316
0.201000000000000040,39.556497766198774002
0.202000000000000041,38.812669102726502501
0.203000000000000042,38.081810386546763425
0.204000000000000042,37.362995040909297018
0.205000000000000043,36.655419164652457198
0.206000000000000044,35.958409066508224328
0.207000000000000045,35.271424262578136677
0.208000000000000046,34.594056475224064684
0.209000000000000047,33.926025203768084282
0.210000000000000048,33.267170445925422939
0.211000000000000049,32.617443138379215384
0.212000000000000050,31.976893859538954246
0.213000000000000050,31.345660301062871156
0.214000000000000051,30.723953970456108209
0.215000000000000052,30.112046537806293145
0.216000000000000053,29.510256187859880583
0.217000000000000054,28.918934286123185728
0.218000000000000055,28.338452616054592426
0.219000000000000056,27.769191394909647386
0.220000000000000057,27.211528229311632288
0.221000000000000058,26.665828128788188423
0.222000000000000058,26.132434656746404755
0.223000000000000059,25.611662263882170265
0.224000000000000060,25.103789818898963659
0.225000000000000061,24.609055325593015340
0.226000000000000062,24.127651793694884219
0.227000000000000063,23.659724213117325320
0.228000000000000064,23.205367567173833976
0.229000000000000065,22.764625809589176697
0.230000000000000066,22.337491722399182237
0.231000000000000066,21.923907566792820489
0.232000000000000067,21.523766436254028633
0.233000000000000068,21.136914220688396426
0.234000000000000069,20.763152091262433885
0.235000000000000070,20.402239418149594741
0.236000000000000071,20.053897036999792647
0.237000000000000072,19.717810784482253439
0.238000000000000073,19.393635228474089160
0.239000000000000073,19.080997524184247993
0.240000000000000074,18.779501333538064500
0.241000000000000075,18.488730751356250437
0.242000000000000076,18.208254188111659744
0.243000000000000077,17.937628165232613497
0.244000000000000078,17.676400984951879281
0.245000000000000079,17.424116242504577912
0.246000000000000080,17.180316153999431350
0.247000000000000081,16.944544678482095890
0.248000000000000081,16.716350417547012341
0.249000000000000082,16.495289280314064939
0.250000000000000111,16.280926905657192805
0.251000000000000112,16.072840837250844004
0.252000000000000113,15.870622450289042504
0.253000000000000114,15.673878631639922787
0.254000000000000115,15.482233217737851660
0.255000000000000115,15.295328196702618229
0.256000000000000116,15.112824683028071249
0.257000000000000117,14.934403674723219169
0.258000000000000118,14.759766604037878324
0.259000000000000119,14.588635693885535716
0.260000000000000120,14.420754132811108406
0.261000000000000121,14.255886081863934578
0.262000000000000122,14.093816527048280918
0.263000000000000123,13.934350991158117594
0.264000000000000123,13.777315118779009495
0.265000000000000124,13.622554148080087799
0.266000000000000125,13.469932282739526030
0.267000000000000126,13.319331976967982101
0.268000000000000127,13.170653146130186784
0.269000000000000128,13.023812314932609269
0.270000000000000129,12.878741714557174092
0.271000000000000130,12.735388339490810949
0.272000000000000131,12.593712974139799954
0.273000000000000131,12.453689198636036295
0.274000000000000132,12.315302382549182525
0.275000000000000133,12.178548674522081896
0.276000000000000134,12.043433995153504767
0.277000000000000135,11.909973039769239378
0.278000000000000136,11.778188297053571176
0.279000000000000137,11.648109088864163851
0.280000000000000138,11.519770635926784408
0.281000000000000139,11.393213153505680424
0.282000000000000139,11.268480980573071903
0.283000000000000140,11.145621745458445417
0.284000000000000141,11.024685570447182670
0.285000000000000142,10.905724317318462369
0.286000000000000143,10.788790875365425137
0.287000000000000144,10.673938493026216889
0.288000000000000145,10.561220153871957450
0.289000000000000146,10.450687997347509750
0.290000000000000147,10.342392784341281953
0.291000000000000147,10.236383407371270948
0.292000000000000148,10.132706444914175492
0.293000000000000149,10.031405759172683290
0.294000000000000150,9.932522136370510069
0.295000000000000151,9.836092968484791754
0.296000000000000152,9.742151975169807798
0.297000000000000153,9.650728964492575557
0.298000000000000154,9.561849630988982440
0.299000000000000155,9.475535389456918978
0.300000000000000155,9.391803242829038112
0.301000000000000156,9.310665682411030986
0.302000000000000157,9.232130618730090887
0.303000000000000158,9.156201341211462008
0.304000000000000159,9.082876504887085645
0.305000000000000160,9.012150142338509085
0.306000000000000161,8.944011699084750688
0.307000000000000162,8.878446090644015243
0.308000000000000163,8.815433779524852298
0.309000000000000163,8.754950870436303489
0.310000000000000164,8.696969222047206571
0.311000000000000165,8.641456573671018049
0.312000000000000166,8.588376685303423130
0.313000000000000167,8.537689489494999506
0.314000000000000168,8.489351253599505043
0.315000000000000169,8.443314750999212137
0.316000000000000170,8.399529439971729516
0.317000000000000171,8.357941648927070588
0.318000000000000171,8.318494766809287455
0.319000000000000172,8.281129437522809056
0.320000000000000173,8.245783757309595785
0.321000000000000174,8.212393474069212829
0.322000000000000175,8.180892187678798777
0.323000000000000176,8.151211550434414477
0.324000000000000177,8.123281466798328410
0.325000000000000178,8.097030291698500193
0.326000000000000179,8.072385026686806242
0.327000000000000179,8.049271513320936933
0.328000000000000180,8.027614623191741572
0.329000000000000181,8.007338444071946171
0.330000000000000182,7.988366461715389555
0.331000000000000183,7.970621736885649788
0.332000000000000184,7.954027077241688559
0.333000000000000185,7.938505203753857487
0.334000000000000186,7.923978911367342448
0.335000000000000187,7.910371223671782914
0.336000000000000187,7.897605541374756122
0.337000000000000188,7.885605784414110531
0.338000000000000189,7.874296527578652061
0.339000000000000190,7.863603129539410652
0.340000000000000191,7.853451855224284017
0.341000000000000192,7.843769991497028471
0.342000000000000193,7.834485956128188100
0.343000000000000194,7.825529400069714647
0.344000000000000195,7.816831303067822034
0.345000000000000195,7.808324062668954291
0.346000000000000196,7.799941576692944523
0.347000000000000197,7.791619319264421861
0.348000000000000198,7.783294410509233430
0.349000000000000199,7.774905680036607869
0.350000000000000200,7.766393724340309390
0.351000000000000201,7.757700958263226809
0.352000000000000202,7.748771660679582673
0.353000000000000203,7.739552014557466109
0.354000000000000203,7.729990141571839501
0.355000000000000204,7.720036131444214966
0.356000000000000205,7.709642066190527387
0.357000000000000206,7.698762039462765827
0.358000000000000207,7.687352171173242432
0.359000000000000208,7.675370617592790268
0.360000000000000209,7.662777577115617689
0.361000000000000210,7.649535291884618005
0.362000000000000210,7.635608045470817729
0.363000000000000211,7.620962156800423770
0.364000000000000212,7.605565970521634078
0.365000000000000213,7.589389844002009333
0.366000000000000214,7.572406131144903796
0.367000000000000215,7.554589163211143266
0.368000000000000216,7.535915226829058788
0.369000000000000217,7.516362539372832607
0.370000000000000218,7.495911221885495301
0.371000000000000218,7.474543269719053917
0.372000000000000219,7.452242521060067126
0.373000000000000220,7.428994623504808992
0.374000000000000221,7.404786998843469803
0.375000000000000222,7.379608806208399763
0.376000000000000223,7.353450903736370670
0.377000000000000224,7.326305808890215765
0.378000000000000225,7.298167657579986312
0.379000000000000226,7.269032162218961091
0.380000000000000226,7.238896568844596757
0.381000000000000227,7.207759613429546519
0.382000000000000228,7.175621477502796886
0.383000000000000229,7.142483743195752410
0.384000000000000230,7.108349347823290643
0.385000000000000231,7.073222538104540824
0.386000000000000232,7.037108824123455619
0.387000000000000233,7.000014933124103500
0.388000000000000234,6.961948763230990878
0.389000000000000234,6.922919337179862964
0.390000000000000235,6.882936756139855561
0.391000000000000236,6.842012153703239008
0.392000000000000237,6.800157650114660335
0.393000000000000238,6.757386306807298126
0.394000000000000239,6.713712081309232360
0.395000000000000240,6.669149782579151697
0.396000000000000241,6.623715026826516805
0.397000000000000242,6.577424193867419611
0.398000000000000242,6.530294384063601854
0.399000000000000243,6.482343375888525827
0.400000000000000244,6.433589584160777974
0.401000000000000245,6.384052018981674514
0.402000000000000246,6.333750245410888269
0.403000000000000247,6.282704343910438638
0.404000000000000248,6.230934871584677737
0.405000000000000249,6.178462824240774864
0.406000000000000250,6.125309599291620444
0.407000000000000250,6.071496959520219505
0.408000000000000251,6.017046997722298229
0.409000000000000252,5.961982102241267789
0.410000000000000253,5.906324923407487049
0.411000000000000254,5.850098340891537241
0.412000000000000255,5.793325431979138962
0.413000000000000256,5.736029440773315002
0.414000000000000257,5.678233748327690122
0.415000000000000258,5.619961843712778737
0.416000000000000258,5.561237296015791642
0.417000000000000259,5.502083727272553126
0.418000000000000260,5.442524786328955422
0.419000000000000261,5.382584123627760953
0.420000000000000262,5.322285366915417981
0.421000000000000263,5.261652097862208777
0.422000000000000264,5.200707829588084863
0.423000000000000265,5.139475985085285359
0.424000000000000266,5.077979876528040393
0.425000000000000266,5.016242685458642825
0.426000000000000267,4.954287443838419236
0.427000000000000268,4.892137015951280254
0.428000000000000269,4.829814081146925453
0.429000000000000270,4.767341117410103024
0.430000000000000271,4.704740385741684960
0.431000000000000272,4.642033915336939209
0.432000000000000273,4.579243489545782531
0.433000000000000274,4.516390632599504684
0.434000000000000274,4.453496597087906572
0.435000000000000275,4.390582352170786962
0.436000000000000276,4.327668572507122668
0.437000000000000277,4.264775627885219578
0.438000000000000278,4.201923573536989309
0.439000000000000279,4.139132141119186592
0.440000000000000280,4.076420730344443299
0.441000000000000281,4.013808401244899571
0.442000000000000282,3.951313867051011730
0.443000000000000282,3.888955487668332101
0.444000000000000283,3.826751263734856856
0.445000000000000284,3.764718831241753438
0.446000000000000285,3.702875456700197354
0.447000000000000286,3.641238032837263994
0.448000000000000287,3.579823074803834437
0.449000000000000288,3.518646716877682934
0.450000000000000289,3.457724709644980354
0.451000000000000290,3.397072417643722364
0.452000000000000290,3.336704817452649685
0.453000000000000291,3.276636496209546667
0.454000000000000292,3.216881650542949611
0.455000000000000293,3.157454085901481911
0.456000000000000294,3.098367216265411450
0.457000000000000295,3.039634064225100740
0.458000000000000296,2.981267261411386649
0.459000000000000297,2.923279049263190377
0.460000000000000298,2.865681280117798657
0.461000000000000298,2.808485418609785178
0.462000000000000299,2.751702543364509701
0.463000000000000300,2.695343348972704778
0.464000000000000301,2.639418148232745231
0.465000000000000302,2.583936874647679183
0.466000000000000303,2.528909085164134485
0.467000000000000304,2.474343963140823721
0.468000000000000305,2.420250321534449078
0.469000000000000306,2.366636606291168121
0.470000000000000306,2.313510899932145204
0.471000000000000307,2.260880925321920643
0.472000000000000308,2.208754049608728565
0.473000000000000309,2.157137288326067548
0.474000000000000310,2.106037309645325983
0.475000000000000311,2.055460438769254772
0.476000000000000312,2.005412662456836692
0.477000000000000313,1.955899633669776705
0.478000000000000314,1.906926676331786030
0.479000000000000314,1.858498790191594363
0.480000000000000315,1.810620655781222110
0.481000000000000316,1.763296639461169324
0.482000000000000317,1.716530798544543046
0.483000000000000318,1.670326886492354390
0.484000000000000319,1.624688358172512892
0.485000000000000320,1.579618375175345646
0.486000000000000321,1.535119811178623950
0.487000000000000322,1.491195257355470094
0.488000000000000322,1.447847027818663479
0.489000000000000323,1.405077165095169667
0.490000000000000324,1.362887445624911154
0.491000000000000325,1.321279385278097740
0.492000000000000326,1.280254244885597803
0.493000000000000327,1.239813035777106887
0.494000000000000328,1.199956525322079859
0.495000000000000329,1.160685242468578071
0.496000000000000330,1.121999483275483378
0.497000000000000330,1.083899316433563742
0.498000000000000331,1.046384588771335666
0.499000000000000332,1.009454930741606749
0.500000000000000333,0.973109761884908719
0.501000000000000334,0.937348296266242387
0.502000000000000335,0.902169547881616629
0.503000000000000336,0.867572336031195102
0.504000000000000337,0.833555290655861647
0.505000000000000338,0.800116857634366241
0.506000000000000338,0.767255304038223840
0.507000000000000339,0.734968723341758334
0.508000000000000340,0.703255040584884861
0.509000000000000341,0.672112017486249602
0.510000000000000342,0.641537257504636194
0.511000000000000343,0.611528210846527864
0.512000000000000344,0.582082179418016765
0.513000000000000345,0.553196321719251705
0.514000000000000346,0.524867657679764177
0.515000000000000346,0.497093073433232668
0.516000000000000347,0.469869326030218581
0.517000000000000348,0.443193048087616670
0.518000000000000349,0.417060752373644927
0.519000000000000350,0.391468836327300840
0.520000000000000351,0.366413586511328049
0.521000000000000352,0.341891182997778542
0.522000000000000353,0.317897703685485422
0.523000000000000353,0.294429128548635621
0.524000000000000354,0.271481343815967668
0.525000000000000355,0.249050146079981716
0.526000000000000356,0.227131246335801451
0.527000000000000357,0.205720273949285770
0.528000000000000358,0.184812780554088590
0.529000000000000359,0.164404243877529055
0.530000000000000360,0.144490071495055411
0.531000000000000361,0.125065604513241169
0.532000000000000361,0.106126121181300312
0.533000000000000362,0.087666840431169429
0.534000000000000363,0.069682925346238281
0.535000000000000364,0.052169486558860424
0.536000000000000365,0.035121585576901440
0.537000000000000366,0.018534238039501154
0.538000000000000367,0.002402416902424348
0.539000000000000368,-0.013278944446754527
0.540000000000000369,-0.028514949143158802
0.541000000000000369,-0.043310733868469030
0.542000000000000370,-0.057671465943599884
0.543000000000000371,-0.071602340489787350
0.544000000000000372,-0.085108577657488194
0.545000000000000373,-0.098195419922579116
0.546000000000000374,-0.110868129449261749
0.547000000000000375,-0.123131985519040740
0.548000000000000376,-0.134992282025172161
0.549000000000000377,-0.146454325031878219
0.550000000000000377,-0.157523430397703029
0.551000000000000378,-0.168204921462213719
0.552000000000000379,-0.178504126795436285
0.553000000000000380,-0.188426378009178830
0.554000000000000381,-0.197977007629539514
0.555000000000000382,-0.207161347029847065
0.556000000000000383,-0.215984724423154528
0.557000000000000384,-0.224452462913613898
0.558000000000000385,-0.232569878605799613
0.559000000000000385,-0.240342278771243395
0.560000000000000386,-0.247774960071321132
0.561000000000000387,-0.254873206835647514
0.562000000000000388,-0.261642289395127570
0.563000000000000389,-0.268087462468872662
0.564000000000000390,-0.274213963604032329
0.565000000000000391,-0.280027011667763115
0.566000000000000392,-0.285531805390429383
0.567000000000000393,-0.290733521959198105
0.568000000000000393,-0.295637315661124167
0.569000000000000394,-0.300248316574900975
0.570000000000000395,-0.304571629310397274
0.571000000000000396,-0.308612331795075190
0.572000000000000397,-0.312375474106501794
0.573000000000000398,-0.315866077350014818
0.574000000000000399,-0.319089132580730017
0.575000000000000400,-0.322049599769011874
0.576000000000000401,-0.324752406808550886
0.577000000000000401,-0.327202448566236259
0.578000000000000402,-0.329404585972913444
0.579000000000000403,-0.331363645154236941
0.580000000000000404,-0.333084416600787192
0.581000000000000405,-0.334571654376565442
0.582000000000000406,-0.335830075365133318
0.583000000000000407,-0.336864358552474819
0.584000000000000408,-0.337679144345885196
0.585000000000000409,-0.338279033927991968
0.586000000000000409,-0.338668588645148316
0.587000000000000410,-0.338852329429458254
0.588000000000000411,-0.338834736253541713
0.589000000000000412,-0.338620247617415771
0.590000000000000413,-0.338213260066591581
0.591000000000000414,-0.337618127740727469
0.592000000000000415,-0.336839161952069976
0.593000000000000416,-0.335880630792917079
0.594000000000000417,-0.334746758771409247
0.595000000000000417,-0.333441726474957012
0.596000000000000418,-0.331969670260502558
0.597000000000000419,-0.330334681971053368
0.598000000000000420,-0.328540808677664553
0.599000000000000421,-0.326592052446303627
0.600000000000000422,-0.324492370128857122
0.601000000000000423,-0.322245673177637970
0.602000000000000424,-0.319855827482774413
0.603000000000000425,-0.317326653231820188
0.604000000000000425,-0.314661924790923975
0.605000000000000426,-0.311865370607011694
0.606000000000000427,-0.308940673130329135
0.607000000000000428,-0.305891468756714024
0.608000000000000429,-0.302721347789118966
0.609000000000000430,-0.299433854417655632
0.610000000000000431,-0.296032486717745846
0.611000000000000432,-0.292520696665696522
0.612000000000000433,-0.288901890171224918
0.613000000000000433,-0.285179427126376006
0.614000000000000434,-0.281356621470297774
0.615000000000000435,-0.277436741269348031
0.616000000000000436,-0.273423008812042734
0.617000000000000437,-0.269318600718361778
0.618000000000000438,-0.265126648062869896
