# C-amorph-3_MAMM-AC
# h[nm],U(h)[kJ/mol]
0.149999999999999994,92.177668775224674391
0.150999999999999995,91.021988973441665394
0.151999999999999996,89.214100767864806585
0.152999999999999997,87.266466875262295844
0.153999999999999998,85.388839132200729409
0.154999999999999999,83.636565159443549078
0.156000000000000000,81.996084855334373742
0.157000000000000001,80.431341441741508902
0.158000000000000002,78.906642548184819930
0.159000000000000002,77.395950550520694833
0.160000000000000003,75.884857615076271031
0.161000000000000004,74.369042040512482572
0.162000000000000005,72.851408365607085216
0.163000000000000006,71.339104032209917250
0.164000000000000007,69.840985317154121503
0.165000000000000008,68.365740520646127720
0.166000000000000009,66.920677472908309369
0.167000000000000010,65.511083643298022139
0.168000000000000010,64.140029618187213600
0.169000000000000011,62.808483853871869940
0.170000000000000012,61.515621528576261312
0.171000000000000013,60.259232659351411598
0.172000000000000014,59.036158369643558785
0.173000000000000015,57.842706029311386828
0.174000000000000016,56.675012426363231555
0.175000000000000017,55.529338708203852093
0.176000000000000018,54.402291687281170596
0.177000000000000018,53.290973684398601051
0.178000000000000019,52.193067948338956796
0.179000000000000020,51.106869423500398852
0.180000000000000021,50.031271774062439306
0.181000000000000022,48.965721576732690323
0.182000000000000023,47.910149844817432552
0.183000000000000024,46.864889843921694990
0.184000000000000025,45.830588730797856556
0.185000000000000026,44.808119056051204154
0.186000000000000026,43.798494731593379470
0.187000000000000027,42.802794747245229701
0.188000000000000028,41.822096768886559914
0.189000000000000029,40.857421781136338268
0.190000000000000030,39.909690152454487588
0.191000000000000031,38.979688890506849930
0.192000000000000032,38.068049404484611387
0.193000000000000033,37.175234778936967928
0.194000000000000034,36.301535369238521866
0.195000000000000034,35.447071430887675092
0.196000000000000035,34.611801473457497025
0.197000000000000036,33.795535067092565384
0.198000000000000037,32.997948909070018431
0.199000000000000038,32.218605066555525696
0.200000000000000039,31.456970438017556546
0.201000000000000040,30.712436610704408224
0.202000000000000041,29.984339427996882677
0.203000000000000042,29.271977712910931757
0.204000000000000042,28.574630718619726366
0.205000000000000043,27.891573990931600946
0.206000000000000044,27.222093429562665534
0.207000000000000045,26.565497423978818858
0.208000000000000046,25.921127015390414527
0.209000000000000047,25.288364099493865211
0.210000000000000048,24.666637735452972890
0.211000000000000049,24.055428666325568088
0.212000000000000050,23.454272185747161217
0.213000000000000050,22.862759506341920002
0.214000000000000051,22.280537798220287016
0.215000000000000052,21.707309072201731226
0.216000000000000053,21.142828083175263743
0.217000000000000054,20.586899425308921252
0.218000000000000055,20.039373983585228700
0.219000000000000056,19.500144896215328316
0.220000000000000057,18.969143170614266580
0.221000000000000058,18.446333082452131436
0.222000000000000058,17.931707473375187334
0.223000000000000059,17.425283048783931861
0.224000000000000060,16.927095762934150969
0.225000000000000061,16.437196364896799139
0.226000000000000062,15.955646165807646497
0.227000000000000063,15.482513075533230307
0.228000000000000064,15.017867945501052418
0.229000000000000065,14.561781244068225050
0.230000000000000066,14.114320081479410973
0.231000000000000066,13.675545593202240724
0.232000000000000067,13.245510683217043280
0.233000000000000068,12.824258122643659163
0.234000000000000069,12.411818993866296168
0.235000000000000070,12.008211466008610557
0.236000000000000071,11.613439884150189130
0.237000000000000072,11.227494151990873306
0.238000000000000073,10.850349385687840353
0.239000000000000073,10.481965815238643458
0.240000000000000074,10.122288908985774825
0.241000000000000075,9.771249696507743110
0.242000000000000076,9.428765265267021078
0.243000000000000077,9.094739406844160712
0.244000000000000078,8.769063389340788106
0.245000000000000079,8.451616833526026440
0.246000000000000080,8.142268671482806752
0.247000000000000081,7.840878167835521495
0.248000000000000081,7.547295985070324953
0.249000000000000082,7.261365275957312626
0.250000000000000111,6.982922787618629279
0.251000000000000112,6.711799963332592434
0.252000000000000113,6.447824029696394454
0.253000000000000114,6.190819058272398756
0.254000000000000115,5.940606992296163291
0.255000000000000115,5.697008630418820552
0.256000000000000116,5.459844560779486322
0.257000000000000117,5.228936039949057424
0.258000000000000118,5.004105812449384239
0.259000000000000119,4.785178867627220889
0.260000000000000120,4.571983131649349552
0.261000000000000121,4.364350093283747789
0.262000000000000122,4.162115362941190000
0.263000000000000123,3.965119165175733595
0.264000000000000123,3.773206765481963654
0.265000000000000124,3.586228832786733989
0.266000000000000125,3.404041739515663689
0.267000000000000126,3.226507801525391184
0.268000000000000127,3.053495460534743966
0.269000000000000128,2.884879411967685048
0.270000000000000129,2.720540681341386602
0.271000000000000130,2.560366652499959983
0.272000000000000131,2.404251051112503035
0.273000000000000131,2.252093886927970523
0.274000000000000132,2.103801358313339254
0.275000000000000133,1.959285722600190294
0.276000000000000134,1.818465135732064253
0.277000000000000135,1.681263464645156747
0.278000000000000136,1.547610075731067347
0.279000000000000137,1.417439602626764827
0.280000000000000138,1.290691696456395920
0.281000000000000139,1.167310761514987139
0.282000000000000139,1.047245679238692606
0.283000000000000140,0.930449523152013569
0.284000000000000141,0.816879267322124014
0.285000000000000142,0.706495490685698946
0.286000000000000143,0.599262079446691631
0.287000000000000144,0.495145929575960042
0.288000000000000145,0.394116651276285590
0.289000000000000146,0.296146277111965006
0.290000000000000147,0.201208975339749990
0.291000000000000147,0.109280769820671669
0.292000000000000148,0.020339267738999901
0.293000000000000149,-0.065636603792412623
0.294000000000000150,-0.148666851302617864
0.295000000000000151,-0.228770657905801755
0.296000000000000152,-0.305966614942053794
0.297000000000000153,-0.380272941761379601
0.298000000000000154,-0.451707693210284422
0.299000000000000155,-0.520288954486605615
0.300000000000000155,-0.586035023127352117
0.301000000000000156,-0.648964577986005819
0.302000000000000157,-0.709096835140539783
0.303000000000000158,-0.766451690750802106
0.304000000000000159,-0.821049850954910232
0.305000000000000160,-0.872912948958135315
0.306000000000000161,-0.922063649525722617
0.307000000000000162,-0.968525741142487684
0.308000000000000163,-1.012324216147649114
0.309000000000000163,-1.053485339193501069
0.310000000000000164,-1.092036704411162962
0.311000000000000165,-1.128007281696281838
0.312000000000000166,-1.161427452552614037
0.313000000000000167,-1.192329035951813720
0.314000000000000168,-1.220745304684143218
0.315000000000000169,-1.246710992687313224
0.316000000000000170,-1.270262293849667934
0.317000000000000171,-1.291436852789457745
0.318000000000000171,-1.310273748114633374
0.319000000000000172,-1.326813468667512597
0.320000000000000173,-1.341097883255945700
0.321000000000000174,-1.353170204367730278
0.322000000000000175,-1.363074946358144413
0.323000000000000176,-1.370857878591664969
0.324000000000000177,-1.376565974008613136
0.325000000000000178,-1.380247353575620117
0.326000000000000179,-1.381951227066030352
0.327000000000000179,-1.381727830602062834
0.328000000000000180,-1.379628361375746071
0.329000000000000181,-1.375704909950136390
0.330000000000000182,-1.370010390525676636
0.331000000000000183,-1.362598469540346802
0.332000000000000184,-1.353523492954743057
0.333000000000000185,-1.342840412556222995
0.334000000000000186,-1.330604711598730727
0.335000000000000187,-1.316872330077433428
0.336000000000000187,-1.301699589920015887
0.337000000000000188,-1.285143120358958280
0.338000000000000189,-1.267259783732336942
0.339000000000000190,-1.248106601943594685
0.340000000000000191,-1.227740683794235066
0.341000000000000192,-1.206219153387382059
0.342000000000000193,-1.183599079784049657
0.343000000000000194,-1.159937408078978605
0.344000000000000195,-1.135290892047553513
0.345000000000000195,-1.109716028501392504
0.346000000000000196,-1.083268993475831943
0.347000000000000197,-1.056005580359466567
0.348000000000000198,-1.027981140062907084
0.349000000000000199,-0.999250523311615568
0.350000000000000200,-0.969868025136025658
0.351000000000000201,-0.939887331620795408
0.352000000000000202,-0.909361468964537734
0.353000000000000203,-0.878342754891233923
0.354000000000000203,-0.846882752444941600
0.355000000000000204,-0.815032226190458786
0.356000000000000205,-0.782841100834131831
0.357000000000000206,-0.750358422271065972
0.358000000000000207,-0.717632321057438016
0.359000000000000208,-0.684709978299882449
0.360000000000000209,-0.651637593947315796
0.361000000000000210,-0.618460357464645893
0.362000000000000210,-0.585222420862311465
0.363000000000000211,-0.551966874050501266
0.364000000000000212,-0.518735722482310813
0.365000000000000213,-0.485569867045790082
0.366000000000000214,-0.452509086161073715
0.367000000000000215,-0.419592020035283675
0.368000000000000216,-0.386856157024860370
0.369000000000000217,-0.354337822052151252
0.370000000000000218,-0.322072167020769795
0.371000000000000218,-0.290093163172031043
0.372000000000000219,-0.258433595323087795
0.373000000000000220,-0.227125057925751939
0.374000000000000221,-0.196197952883857635
0.375000000000000222,-0.165681489065843485
0.376000000000000223,-0.135603683448707157
0.377000000000000224,-0.105991363828682905
0.378000000000000225,-0.076870173033866687
0.379000000000000226,-0.048264574573704630
0.380000000000000226,-0.020197859660464727
0.381000000000000227,0.007307844462182134
0.382000000000000228,0.034231564947800525
0.383000000000000229,0.060553472596964933
0.384000000000000230,0.086254869991508623
0.385000000000000231,0.111318178575654778
0.386000000000000232,0.135726924745779493
0.387000000000000233,0.159465725009414860
0.388000000000000234,0.182520270273196283
0.389000000000000234,0.204877309318153733
0.390000000000000235,0.226524631519726960
0.391000000000000236,0.247451048868392365
0.392000000000000237,0.267646377345702846
0.393000000000000238,0.287101417708904183
0.394000000000000239,0.305807935736091385
0.395000000000000240,0.323758641982253237
0.396000000000000241,0.340947171095146939
0.397000000000000242,0.357368060738404825
0.398000000000000242,0.373016730167729293
0.399000000000000243,0.387889458504519280
0.400000000000000244,0.401983362749744888
0.401000000000000245,0.415296375579162824
0.402000000000000246,0.427827222959704656
0.403000000000000247,0.439575401625017848
0.404000000000000248,0.450541156446782165
0.405000000000000249,0.460725457736818833
0.406000000000000250,0.470129978513518954
0.407000000000000250,0.478757071764559616
0.408000000000000251,0.486609747736485965
0.409000000000000252,0.493691651280150690
0.410000000000000253,0.500007039279693588
0.411000000000000254,0.505560758191199500
0.412000000000000255,0.510358221715916716
0.413000000000000256,0.514405388631393956
0.414000000000000257,0.517708740802772627
0.415000000000000258,0.520275261394926303
0.416000000000000258,0.522112413305120815
0.417000000000000259,0.523228117834396267
0.418000000000000260,0.523630733614867006
0.419000000000000261,0.523329035808821064
0.420000000000000262,0.522332195594455539
0.421000000000000263,0.520649759951899882
0.422000000000000264,0.518291631762225480
0.423000000000000265,0.515268050230994423
0.424000000000000266,0.511589571646916985
0.425000000000000266,0.507267050485339488
0.426000000000000267,0.502311620865180553
0.427000000000000268,0.496734678367163229
0.428000000000000269,0.490547862220296504
0.429000000000000270,0.483763037862701029
0.430000000000000271,0.476392279882116854
0.431000000000000272,0.468447855340643482
0.432000000000000273,0.459942207487562094
0.433000000000000274,0.450887939863348741
0.434000000000000274,0.441297800797345263
0.435000000000000275,0.431184668300947371
0.436000000000000276,0.420561535357485528
0.437000000000000277,0.409441495609476180
0.438000000000000278,0.397837729443334509
0.439000000000000279,0.385763490471105031
0.440000000000000280,0.373232092408310401
0.441000000000000281,0.360256896346554278
0.442000000000000282,0.346851298418976051
0.443000000000000282,0.333028717856440060
0.444000000000000283,0.318802585431692542
0.445000000000000284,0.304186332288598815
0.446000000000000285,0.289193379153071806
0.447000000000000286,0.273837125922000935
0.448000000000000287,0.258130941626287080
0.449000000000000288,0.242088154763672569
0.450000000000000289,0.225722043996902239
0.451000000000000290,0.209045829212471113
0.452000000000000290,0.192072662934965666
0.453000000000000291,0.174815622091881534
0.454000000000000292,0.157287700123515756
0.455000000000000293,0.139501799432443507
0.456000000000000294,0.121470724166900940
0.457000000000000295,0.103207173332251517
0.458000000000000296,0.084723734224608507
0.459000000000000297,0.066032876180586023
0.460000000000000298,0.047146944636993496
0.461000000000000298,0.028078155494324041
0.462000000000000299,0.008838589777668071
0.463000000000000300,-0.010559811411227660
0.464000000000000301,-0.030105251657209987
0.465000000000000302,-0.049786083716657090
0.466000000000000303,-0.069590813730618858
0.467000000000000304,-0.089508105172585561
0.468000000000000305,-0.109526782537404305
0.469000000000000306,-0.129635834777807435
0.470000000000000306,-0.149824418495037498
0.471000000000000307,-0.170081860890017283
0.472000000000000308,-0.190397662481504970
0.473000000000000309,-0.210761499597647978
0.474000000000000310,-0.231163226647256359
0.475000000000000311,-0.251592878177206880
0.476000000000000312,-0.272040670722129008
0.477000000000000313,-0.292497004452728526
0.478000000000000314,-0.312952464628789562
0.479000000000000314,-0.333397822863043869
0.480000000000000315,-0.353824038201872526
0.481000000000000316,-0.374222258028854837
0.482000000000000317,-0.394583818796993169
0.483000000000000318,-0.414900246595471589
0.484000000000000319,-0.435163257556629879
0.485000000000000320,-0.455364758108820933
0.486000000000000321,-0.475496845080695341
0.487000000000000322,-0.495551805662374112
0.488000000000000322,-0.515522117228891963
0.489000000000000323,-0.535400447031176285
0.490000000000000324,-0.555179651759777570
0.491000000000000325,-0.574852776986408021
0.492000000000000326,-0.594413056488309999
0.493000000000000327,-0.613853911460333856
0.494000000000000328,-0.633168949619535182
0.495000000000000329,-0.652351964206981827
0.496000000000000330,-0.671396932891365816
0.497000000000000330,-0.690298016578954621
0.498000000000000331,-0.709049558134216218
0.499000000000000332,-0.727646081015467461
0.500000000000000333,-0.746082287829749613
0.501000000000000334,-0.764353058810975372
0.502000000000000335,-0.782453450225410352
0.503000000000000336,-0.800378692708336836
0.504000000000000337,-0.818124189535739177
0.505000000000000338,-0.835685514834681564
0.506000000000000338,-0.853058411736008160
0.507000000000000339,-0.870238790472864232
0.508000000000000340,-0.887222726428431918
0.509000000000000341,-0.904006458136244140
0.510000000000000342,-0.920586385236240923
0.511000000000000343,-0.936959066389755457
0.512000000000000344,-0.953121217156417067
0.513000000000000345,-0.969069707835951810
0.514000000000000346,-0.984801561277746984
0.515000000000000346,-1.000313950660900009
0.516000000000000347,-1.015604197247480300
0.517000000000000348,-1.030669768111596607
0.518000000000000349,-1.045508273846758707
0.519000000000000350,-1.060117466253973628
0.520000000000000351,-1.074495236012935173
0.521000000000000352,-1.088639610338571373
0.522000000000000353,-1.102548750625104157
0.523000000000000353,-1.116220950079796825
0.524000000000000354,-1.129654631348358418
0.525000000000000355,-1.142848344134023142
0.526000000000000356,-1.155800762812133620
0.527000000000000357,-1.168510684042100900
0.528000000000000358,-1.180977024378460083
0.529000000000000359,-1.193198817882690888
0.530000000000000360,-1.205175213737427864
0.531000000000000361,-1.216905473864609011
0.532000000000000361,-1.228388970549038950
0.533000000000000362,-1.239625184068771535
0.534000000000000363,-1.250613700333689682
0.535000000000000364,-1.261354208533580046
0.536000000000000365,-1.271846498796916691
0.537000000000000366,-1.282090459861574105
0.538000000000000367,-1.292086076758549806
0.539000000000000368,-1.301833428509834523
0.540000000000000369,-1.311332685841376522
0.541000000000000369,-1.320584108912182142
0.542000000000000370,-1.329588045060404955
0.543000000000000371,-1.338344926567350823
0.544000000000000372,-1.346855268440196429
0.545000000000000373,-1.355119666214200214
0.546000000000000374,-1.363138793775151125
0.547000000000000375,-1.370913401202731974
0.548000000000000376,-1.378444312635467961
0.549000000000000377,-1.385732424157841702
0.550000000000000377,-1.392778701710181810
0.551000000000000378,-1.399584179021803543
0.552000000000000379,-1.406149955567956411
0.553000000000000380,-1.412477194550990633
0.554000000000000381,-1.418567120906175427
0.555000000000000382,-1.424421019332600125
0.556000000000000383,-1.430040232349435669
0.557000000000000384,-1.435426158377977934
0.558000000000000385,-1.440580249849675143
0.559000000000000385,-1.445504011340492223
0.560000000000000386,-1.450198997731784178
0.561000000000000387,-1.454666812397928499
0.562000000000000388,-1.458909105420876040
0.563000000000000389,-1.462927571831817319
0.564000000000000390,-1.466723949880048172
0.565000000000000391,-1.470300019329189301
0.566000000000000392,-1.473657599780831884
0.567000000000000393,-1.476798549025676310
0.568000000000000393,-1.479724761422209101
0.569000000000000394,-1.482438166302950222
0.570000000000000395,-1.484940726408287892
0.571000000000000396,-1.487234436347848687
0.572000000000000397,-1.489321321089435157
0.573000000000000398,-1.491203434475434797
0.574000000000000399,-1.492882857766660187
0.575000000000000400,-1.494361698213543921
0.576000000000000401,-1.495642087654575736
0.577000000000000401,-1.496726181141922352
0.578000000000000402,-1.497616155594046372
0.579000000000000403,-1.498314208475239884
0.580000000000000404,-1.498822556501920866
0.581000000000000405,-1.499143434375503237
0.582000000000000406,-1.499279093541730834
0.583000000000000407,-1.499231800976219775
0.584000000000000408,-1.499003837996117472
0.585000000000000409,-1.498597499097585217
0.586000000000000409,-1.498015090818960449
0.587000000000000410,-1.497258930629376428
0.588000000000000411,-1.496331345842575988
0.589000000000000412,-1.495234672555761923
0.590000000000000413,-1.493971254613166266
0.591000000000000414,-1.492543442594153724
0.592000000000000415,-1.490953592825603025
0.593000000000000416,-1.489204066418270411
0.594000000000000417,-1.487297228326919685
0.595000000000000417,-1.485235446433961215
0.596000000000000418,-1.483021090656252650
0.597000000000000419,-1.480656532074908771
0.598000000000000420,-1.478144142087720825
0.599000000000000421,-1.475486291584000798
0.600000000000000422,-1.472685350141509586
0.601000000000000423,-1.469743685245194609
0.602000000000000424,-1.466663661527469520
0.603000000000000425,-1.463447640029726937
0.604000000000000425,-1.460097977484770215
0.605000000000000426,-1.456617025619916905
0.606000000000000427,-1.453007130480454157
0.607000000000000428,-1.449270631773103890
0.608000000000000429,-1.445409862229313669
0.609000000000000430,-1.441427146987923846
0.610000000000000431,-1.437324802997060225
0.611000000000000432,-1.433105138434833226
0.612000000000000433,-1.428770452148607095
0.613000000000000433,-1.424323033112541603
0.614000000000000434,-1.419765159903074725
0.615000000000000435,-1.415099100192053205
0.616000000000000436,-1.410327110257237671
