# C-amorph-3_PHO-AC
# h[nm],U(h)[kJ/mol]
0.149999999999999994,145.735487482653979896
0.150999999999999995,144.015719204184733826
0.151999999999999996,141.619795719714289817
0.152999999999999997,139.033567137392395807
0.153999999999999998,136.460184504079791168
0.154999999999999999,133.962554002205365578
0.156000000000000000,131.542353410074468911
0.157000000000000001,129.181097615520826594
0.158000000000000002,126.859323588275444195
0.159000000000000002,124.563801337559112881
0.160000000000000003,122.288701146030945210
0.161000000000000004,120.034128128465525265
0.162000000000000005,117.803874987055266388
0.163000000000000006,115.603306078035984683
0.164000000000000007,113.437745073017822506
0.165000000000000008,111.311445221000056449
0.166000000000000009,109.227077867649043696
0.167000000000000010,107.185618712643304207
0.168000000000000010,105.186502787308157281
0.169000000000000011,103.227934136354207340
0.170000000000000012,101.307260448461391888
0.171000000000000013,99.421348480089321242
0.172000000000000014,97.566919053626477876
0.173000000000000015,95.740819029767251891
0.174000000000000016,93.940221634725077138
0.175000000000000017,92.162756244143849926
0.176000000000000018,90.406574876687756159
0.177000000000000018,88.670366004937918092
0.178000000000000019,86.953327584153640828
0.179000000000000020,85.255111067241003298
0.180000000000000021,83.575747134500943503
0.181000000000000022,81.915562318798549768
0.182000000000000023,80.275093944002847479
0.183000000000000024,78.655009020838718925
0.184000000000000025,77.056031092008041128
0.185000000000000026,75.478877564897885577
0.186000000000000026,73.924208852183852514
0.187000000000000027,72.392589666403750925
0.188000000000000028,70.884462073404506555
0.189000000000000029,69.400129379128628671
0.190000000000000030,67.939749576033904077
0.191000000000000031,66.503336878812589816
0.192000000000000032,65.090769803692737128
0.193000000000000033,63.701804263264918404
0.194000000000000034,62.336090234387697251
0.195000000000000034,60.993190688728574855
0.196000000000000035,59.672601635996009861
0.197000000000000036,58.373772304513053655
0.198000000000000037,57.096124661283475632
0.199000000000000038,55.839071645757428541
0.200000000000000039,54.602033652189177815
0.201000000000000040,53.384452940892479944
0.202000000000000041,52.185805786580019117
0.203000000000000042,51.005612281348426507
0.204000000000000042,49.843443800752780248
0.205000000000000043,48.698928214541346904
0.206000000000000044,47.571752980220409768
0.207000000000000045,46.461666299256435764
0.208000000000000046,45.368476544125783789
0.209000000000000047,44.292050181397442543
0.210000000000000048,43.232308423364813166
0.211000000000000049,42.189222840139578352
0.212000000000000050,41.162810157168507885
0.213000000000000050,40.153126451283831955
0.214000000000000051,39.160260942926164773
0.215000000000000052,38.184329564213001618
0.216000000000000053,37.225468463019964815
0.217000000000000054,36.283827582999528261
0.218000000000000055,35.359564439143589709
0.219000000000000056,34.452838188626557780
0.220000000000000057,33.563804077652235947
0.221000000000000058,32.692608327180970207
0.222000000000000058,31.839383503938496034
0.223000000000000059,31.004244408153773804
0.224000000000000060,30.187284496106052245
0.225000000000000061,29.388572843807558854
0.226000000000000062,28.608151647986858279
0.227000000000000063,27.846034251915391167
0.228000000000000064,27.102203676460185022
0.229000000000000065,26.376611630950247189
0.230000000000000066,25.669177973909466317
0.231000000000000066,24.979790590315900545
0.232000000000000067,24.308305649680825411
0.233000000000000068,23.654548207781623148
0.234000000000000069,23.018313114215615656
0.235000000000000070,22.399366187956509577
0.236000000000000071,21.797445623686950711
0.237000000000000072,21.212263592751270380
0.238000000000000073,20.643508004032874226
0.239000000000000073,20.090844391830227522
0.240000000000000074,19.553917899806105396
0.241000000000000075,19.032355332257676395
0.242000000000000076,18.525767246237084152
0.243000000000000077,18.033750060395419723
0.244000000000000078,17.555888158785169395
0.245000000000000079,17.091755970199308479
0.246000000000000080,16.640920005920197156
0.247000000000000081,16.202940840971983505
0.248000000000000081,15.777375026098756194
0.249000000000000082,15.363776919709490443
0.250000000000000111,14.961700430930340744
0.251000000000000112,14.570700666676128066
0.252000000000000113,14.190335477290824784
0.253000000000000114,13.820166896811372226
0.254000000000000115,13.459762475276249916
0.255000000000000115,13.108696501735801476
0.256000000000000116,12.766551117725139619
0.257000000000000117,12.432917321939331856
0.258000000000000118,12.107395867709152881
0.259000000000000119,11.789598055619183725
0.260000000000000120,11.479146424246589930
0.261000000000000121,11.175675342534939105
0.262000000000000122,10.878831507759464614
0.263000000000000123,10.588274353396965211
0.264000000000000123,10.303676371490755770
0.265000000000000124,10.024723354307194967
0.266000000000000125,9.751114560221360250
0.267000000000000126,9.482562808852961211
0.268000000000000127,9.218794510504608297
0.269000000000000128,8.959549634941348373
0.270000000000000129,8.704581624496457337
0.271000000000000130,8.453657256400246567
0.272000000000000131,8.206556459111732593
0.273000000000000131,7.963072087290470336
0.274000000000000132,7.723009659883558697
0.275000000000000133,7.486187065623305159
0.276000000000000134,7.252434240038820867
0.277000000000000135,7.021592817882850390
0.278000000000000136,6.793515764665651879
0.279000000000000137,6.568066990774154235
0.280000000000000138,6.345120951439129797
0.281000000000000139,6.124562235596578752
0.282000000000000139,5.906285146475649839
0.283000000000000140,5.690193276533469735
0.284000000000000141,5.476199079150658733
0.285000000000000142,5.264223439299312801
0.286000000000000143,5.054195245200039821
0.287000000000000144,4.846050962796398132
0.288000000000000145,4.639734214694076542
0.289000000000000146,4.435195365040099702
0.290000000000000147,4.232391111652460403
0.291000000000000147,4.031284086555627866
0.292000000000000148,3.831842465929788943
0.293000000000000149,3.634039590344281923
0.294000000000000150,3.437853596015751911
0.295000000000000151,3.243267057711001655
0.296000000000000152,3.050266643802292954
0.297000000000000153,2.858842783878796201
0.298000000000000154,2.668989349221936536
0.299000000000000155,2.480703346364310224
0.300000000000000155,2.293984623871073047
0.301000000000000156,2.108835592409550319
0.302000000000000157,1.925260958105717846
0.303000000000000158,1.743267469126709601
0.304000000000000159,1.562863675374222883
0.305000000000000160,1.384059701125937014
0.306000000000000161,1.206867030419479070
0.307000000000000162,1.031298304936095533
0.308000000000000163,0.857367134108851126
0.309000000000000163,0.685087917152137238
0.310000000000000164,0.514475676685503536
0.311000000000000165,0.345545903604973836
0.312000000000000166,0.178314412838725789
0.313000000000000167,0.012797209611027238
0.314000000000000168,-0.150989634171569215
0.315000000000000169,-0.313030093805044540
0.316000000000000170,-0.473308296341625301
0.317000000000000171,-0.631808616212642837
0.318000000000000171,-0.788515762320994740
0.319000000000000172,-0.943414857002500384
0.320000000000000173,-1.096491507251753150
0.321000000000000174,-1.247731868603822791
0.322000000000000175,-1.397122702057020271
0.323000000000000176,-1.544651424414947405
0.324000000000000177,-1.690306152418000307
0.325000000000000178,-1.834075741025490869
0.326000000000000179,-1.975949816200213593
0.327000000000000179,-2.115918802536728371
0.328000000000000180,-2.253973946064292910
0.329000000000000181,-2.390107332544098462
0.330000000000000182,-2.524311901569109562
0.331000000000000183,-2.656581456763442262
0.332000000000000184,-2.786910672366222030
0.333000000000000185,-2.915295096473251579
0.334000000000000186,-3.041731151198064698
0.335000000000000187,-3.166216130002006857
0.336000000000000187,-3.288748192431716344
0.337000000000000188,-3.409326356490247178
0.338000000000000189,-3.527950488857459987
0.339000000000000190,-3.644621293163714970
0.340000000000000191,-3.759340296509966262
0.341000000000000192,-3.872109834417116758
0.342000000000000193,-3.982933034376714865
0.343000000000000194,-4.091813798165353511
0.344000000000000195,-4.198756783074921728
0.345000000000000195,-4.303767382202160263
0.346000000000000196,-4.406851703930963815
0.347000000000000197,-4.508016550732954819
0.348000000000000198,-4.607269397402776967
0.349000000000000199,-4.704618368836838371
0.350000000000000200,-4.800072217456379242
0.351000000000000201,-4.893640300368289786
0.352000000000000202,-4.985332556350009270
0.353000000000000203,-5.075159482738213157
0.354000000000000203,-5.163132112294496423
0.355000000000000204,-5.249261990115064336
0.356000000000000205,-5.333561150645794058
0.357000000000000206,-5.416042094858680045
0.358000000000000207,-5.496717767639986540
0.359000000000000208,-5.575601535436143230
0.360000000000000209,-5.652707164198514711
0.361000000000000210,-5.728048797663658931
0.362000000000000210,-5.801640936002085525
0.363000000000000211,-5.873498414864163131
0.364000000000000212,-5.943636384848732135
0.365000000000000213,-6.012070291416224066
0.366000000000000214,-6.078815855265227164
0.367000000000000215,-6.143889053188395621
0.368000000000000216,-6.207306099421051826
0.369000000000000217,-6.269083427492968319
0.370000000000000218,-6.329237672592044284
0.371000000000000218,-6.387785654445814032
0.372000000000000219,-6.444744360725273680
0.373000000000000220,-6.500130930973452514
0.374000000000000221,-6.553962641059416505
0.375000000000000222,-6.606256888156984530
0.376000000000000223,-6.657031176246190896
0.377000000000000224,-6.706303102133861493
0.378000000000000225,-6.754090341988960411
0.379000000000000226,-6.800410638386980011
0.380000000000000226,-6.845281787857096845
0.381000000000000227,-6.888721628924541207
0.382000000000000228,-6.930748030640349278
0.383000000000000229,-6.971378881589672005
0.384000000000000230,-7.010632079369450764
0.385000000000000231,-7.048525520525773302
0.386000000000000232,-7.085077090940633759
0.387000000000000233,-7.120304656657761022
0.388000000000000234,-7.154226055136559737
0.389000000000000234,-7.186859086923311324
0.390000000000000235,-7.218221507728282305
0.391000000000000236,-7.248331020897511578
0.392000000000000237,-7.277205270267773862
0.393000000000000238,-7.304861833393337278
0.394000000000000239,-7.331318215132881733
0.395000000000000240,-7.356591841585280456
0.396000000000000241,-7.380700054362688611
0.397000000000000242,-7.403660105189663554
0.398000000000000242,-7.425489150817121242
0.399000000000000243,-7.446204248239874701
0.400000000000000244,-7.465822350206977376
0.401000000000000245,-7.484360301013966321
0.402000000000000246,-7.501834832566339983
0.403000000000000247,-7.518262560703978359
0.404000000000000248,-7.533659981776158254
0.405000000000000249,-7.548043469457259569
0.406000000000000250,-7.561429271793262963
0.407000000000000250,-7.573833508469586029
0.408000000000000251,-7.585272168290927652
0.409000000000000252,-7.595761106863980316
0.410000000000000253,-7.605316044474283999
0.411000000000000254,-7.613952564148573465
0.412000000000000255,-7.621686109894261207
0.413000000000000256,-7.628531985108159219
0.414000000000000257,-7.634505351146304797
0.415000000000000258,-7.639621226047644598
0.416000000000000258,-7.643894483404008788
0.417000000000000259,-7.647339851369403974
0.418000000000000260,-7.649971911801763724
0.419000000000000261,-7.651805099530582410
0.420000000000000262,-7.652853701743976167
0.421000000000000263,-7.653131857489268164
0.422000000000000264,-7.652653557280899577
0.423000000000000265,-7.651432642810246598
0.424000000000000266,-7.649482806751828790
0.425000000000000266,-7.646817592660585028
0.426000000000000267,-7.643450394955327631
0.427000000000000268,-7.639394458983487013
0.428000000000000269,-7.634662881162536330
0.429000000000000270,-7.629268609193718298
0.430000000000000271,-7.623224442343792262
0.431000000000000272,-7.616543031790821594
0.432000000000000273,-7.609236881030071231
0.433000000000000274,-7.601318346336370269
0.434000000000000274,-7.592799637279410874
0.435000000000000275,-7.583692817288593346
0.436000000000000276,-7.574009804264281165
0.437000000000000277,-7.563762371232312987
0.438000000000000278,-7.552962147038963181
0.439000000000000279,-7.541620617083547806
0.440000000000000280,-7.529749124086033696
0.441000000000000281,-7.517358868887159318
0.442000000000000282,-7.504460911278752810
0.443000000000000282,-7.491066170861881979
0.444000000000000283,-7.477185427930838735
0.445000000000000284,-7.462829324380800600
0.446000000000000285,-7.448008364637344059
0.447000000000000286,-7.432732916606020979
0.448000000000000287,-7.417013212640114261
0.449000000000000288,-7.400859350525204050
0.450000000000000289,-7.384281294478770796
0.451000000000000290,-7.367288876163532230
0.452000000000000290,-7.349891795713152653
0.453000000000000291,-7.332099622768902591
0.454000000000000292,-7.313921797526262480
0.455000000000000293,-7.295367631790131036
0.456000000000000294,-7.276446310037689713
0.457000000000000295,-7.257166890487896538
0.458000000000000296,-7.237538306176584335
0.459000000000000297,-7.217569366036411971
0.460000000000000298,-7.197268755980671173
0.461000000000000298,-7.176645039990316555
0.462000000000000299,-7.155706661203394603
0.463000000000000300,-7.134461943006202844
0.464000000000000301,-7.112919090125567223
0.465000000000000302,-7.091086189721624855
0.466000000000000303,-7.068971212480524180
0.467000000000000304,-7.046582013706602865
0.468000000000000305,-7.023926334413450157
0.469000000000000306,-7.001011802413461105
0.470000000000000306,-6.977845933405561141
0.471000000000000307,-6.954436132060456188
0.472000000000000308,-6.930789693103325710
0.473000000000000309,-6.906913802393484403
0.474000000000000310,-6.882815538000667921
0.475000000000000311,-6.858501871277771222
0.476000000000000312,-6.833979667929705570
0.477000000000000313,-6.809255689078137941
0.478000000000000314,-6.784336592321878356
0.479000000000000314,-6.759228932792782807
0.480000000000000315,-6.733939164206839578
0.481000000000000316,-6.708473639910472741
0.482000000000000317,-6.682838613921679993
0.483000000000000318,-6.657040241966032390
0.484000000000000319,-6.631084582507334346
0.485000000000000320,-6.604977597772801801
0.486000000000000321,-6.578725154772733674
0.487000000000000322,-6.552333026314521192
0.488000000000000322,-6.525806892010834304
0.489000000000000323,-6.499152339282117552
0.490000000000000324,-6.472374864353099611
0.491000000000000325,-6.445479873243408875
0.492000000000000326,-6.418472682752113023
0.493000000000000327,-6.391358521436286466
0.494000000000000328,-6.364142530583398738
0.495000000000000329,-6.336829765177634854
0.496000000000000330,-6.309425194859967334
0.497000000000000330,-6.281933704882137093
0.498000000000000331,-6.254360097054275869
0.499000000000000332,-6.226709090686413539
0.500000000000000333,-6.198985323523675817
0.501000000000000334,-6.171193352675180321
0.502000000000000335,-6.143337655536703856
0.503000000000000336,-6.115422630707033846
0.504000000000000337,-6.087452598898047462
0.505000000000000338,-6.059431803838466024
0.506000000000000338,-6.031364413171338867
0.507000000000000339,-6.003254519345222029
0.508000000000000340,-5.975106140499031326
0.509000000000000341,-5.946923221340687959
0.510000000000000342,-5.918709634019378107
0.511000000000000343,-5.890469178991618371
0.512000000000000344,-5.862205585880992942
0.513000000000000345,-5.833922514331627340
0.514000000000000346,-5.805623554855473323
0.515000000000000346,-5.777312229673254862
0.516000000000000347,-5.748991993549222634
0.517000000000000348,-5.720666234619716128
0.518000000000000349,-5.692338275215415244
0.519000000000000350,-5.664011372677494549
0.520000000000000351,-5.635688720167474131
0.521000000000000352,-5.607373447471006855
0.522000000000000353,-5.579068621795379102
0.523000000000000353,-5.550777248560910593
0.524000000000000354,-5.522502272186226691
0.525000000000000355,-5.494246576867325871
0.526000000000000356,-5.466012987350579166
0.527000000000000357,-5.437804269699605619
0.528000000000000358,-5.409623132056017525
0.529000000000000359,-5.381472225394127840
0.530000000000000360,-5.353354144269533599
0.531000000000000361,-5.325271427561658832
0.532000000000000361,-5.297226559210252539
0.533000000000000362,-5.269221968945821288
0.534000000000000363,-5.241260033014063069
0.535000000000000364,-5.213343074894264184
0.536000000000000365,-5.185473366011697394
0.537000000000000366,-5.157653126444062153
0.538000000000000367,-5.129884525621861258
0.539000000000000368,-5.102169683022940383
0.540000000000000369,-5.074510668860924945
0.541000000000000369,-5.046909504767877586
0.542000000000000370,-5.019368164470876970
0.543000000000000371,-4.991888574462777228
0.544000000000000372,-4.964472614667043260
0.545000000000000373,-4.937122119096680528
0.546000000000000374,-4.909838876507313543
0.547000000000000375,-4.882624631044362395
0.548000000000000376,-4.855481082884434585
0.549000000000000377,-4.828409888870816680
0.550000000000000377,-4.801412663143197257
0.551000000000000378,-4.774490977761533195
0.552000000000000379,-4.747646363324187213
0.553000000000000380,-4.720880309580235412
0.554000000000000381,-4.694194266036005203
0.555000000000000382,-4.667589642555960872
0.556000000000000383,-4.641067809957702295
0.557000000000000384,-4.614630100601422313
0.558000000000000385,-4.588277808973510119
0.559000000000000385,-4.562012192264576882
0.560000000000000386,-4.535834470941777496
0.561000000000000387,-4.509745829315475518
0.562000000000000388,-4.483747416100291261
0.563000000000000389,-4.457840344970542823
0.564000000000000390,-4.432025695110072050
0.565000000000000391,-4.406304511756512277
0.566000000000000392,-4.380677806739975644
0.567000000000000393,-4.355146559016254137
0.568000000000000393,-4.329711715194438426
0.569000000000000394,-4.304374190059055749
0.570000000000000395,-4.279134867086794358
0.571000000000000396,-4.253994598957648421
0.572000000000000397,-4.228954208060764941
0.573000000000000398,-4.204014486994756439
0.574000000000000399,-4.179176199062718311
0.575000000000000400,-4.154440078761810540
0.576000000000000401,-4.129806832267500560
0.577000000000000401,-4.105277137912549001
0.578000000000000402,-4.080851646660607734
0.579000000000000403,-4.056530982574576782
0.580000000000000404,-4.032315743279752063
0.581000000000000405,-4.008206500421670704
0.582000000000000406,-3.984203800118825800
0.583000000000000407,-3.960308163410150684
0.584000000000000408,-3.936520086697394838
0.585000000000000409,-3.912840042182366140
0.586000000000000409,-3.889268478299038101
0.587000000000000410,-3.865805820140673088
0.588000000000000411,-3.842452469881801225
0.589000000000000412,-3.819208807195283217
0.590000000000000413,-3.796075189664310123
0.591000000000000414,-3.773051953189484387
0.592000000000000415,-3.750139412390986138
0.593000000000000416,-3.727337861005803887
0.594000000000000417,-3.704647572280086454
0.595000000000000417,-3.682068799356761790
0.596000000000000418,-3.659601775658161138
0.597000000000000419,-3.637246715264070396
0.598000000000000420,-3.615003813284851653
0.599000000000000421,-3.592873246229984829
0.600000000000000422,-3.570855172371835806
0.601000000000000423,-3.548949732104806465
0.602000000000000424,-3.527157048299864872
0.603000000000000425,-3.505477226654475142
0.604000000000000425,-3.483910356037959843
0.605000000000000426,-3.462456508832354451
0.606000000000000427,-3.441115741268785833
0.607000000000000428,-3.419888093759304581
0.608000000000000429,-3.398773591224435453
0.609000000000000430,-3.377772243416172326
0.610000000000000431,-3.356884045236752989
0.611000000000000432,-3.336108977053020119
0.612000000000000433,-3.315447005006510572
0.613000000000000433,-3.294898081319312944
