# C-amorph-3_SERSCA-AC
# h[nm],U(h)[kJ/mol]
0.149999999999999994,80.996599809654270530
0.150999999999999995,79.366898967940187504
0.151999999999999996,77.737100480641544209
0.152999999999999997,76.092876365655229165
0.153999999999999998,74.451795932397871525
0.154999999999999999,72.834755935857316445
0.156000000000000000,71.255645222354729640
0.157000000000000001,69.719764135620636125
0.158000000000000002,68.225789501651888713
0.159000000000000002,66.768616433535868282
0.160000000000000003,65.341864934696715750
0.161000000000000004,63.939631895001276973
0.162000000000000005,62.557466091486482185
0.163000000000000006,61.192714138352286568
0.164000000000000007,59.844432939050989262
0.165000000000000008,58.513051252434117089
0.166000000000000009,57.199925239762549722
0.167000000000000010,55.906889688512094949
0.168000000000000010,54.635867537340381261
0.169000000000000011,53.388569172848669098
0.170000000000000012,52.166290432405943989
0.171000000000000013,50.969803480634688242
0.172000000000000014,49.799326255561901178
0.173000000000000015,48.654552412400661865
0.174000000000000016,47.534723178371493191
0.175000000000000017,46.438724071149877659
0.176000000000000018,45.365192101538340808
0.177000000000000018,44.312622208362874687
0.178000000000000019,43.279464807355800815
0.179000000000000020,42.264209194697386351
0.180000000000000021,41.265449977930110492
0.181000000000000022,40.281935652222600197
0.182000000000000023,39.312599900389166407
0.183000000000000024,38.356577210933835431
0.184000000000000025,37.413205040817771874
0.185000000000000026,36.482015068244109557
0.186000000000000026,35.562716155254136652
0.187000000000000027,34.655171534998885363
0.188000000000000028,33.759372510875451212
0.189000000000000029,32.875410651746044266
0.190000000000000030,32.003450127228390443
0.191000000000000031,31.143701478752223721
0.192000000000000032,30.296397787005986402
0.193000000000000033,29.461773889088725298
0.194000000000000034,28.640049028114283658
0.195000000000000034,27.831413088752281482
0.196000000000000035,27.036016385431359765
0.197000000000000036,26.253962824409136090
0.198000000000000037,25.485306153671679397
0.199000000000000038,24.730048941635210724
0.200000000000000039,23.988143882282276564
0.201000000000000040,23.259497005873004838
0.202000000000000041,22.543972376012831660
0.203000000000000042,21.841397871187819391
0.204000000000000042,21.151571677854960285
0.205000000000000043,20.474269159231901938
0.206000000000000044,19.809249806001339778
0.207000000000000045,19.156264019674232202
0.208000000000000046,18.515059524264028568
0.209000000000000047,17.885387245583562077
0.210000000000000048,17.267006538658321801
0.211000000000000049,16.659689681580648113
0.212000000000000050,16.063225588032157276
0.213000000000000050,15.477422720359232500
0.214000000000000051,14.902111210377452011
0.215000000000000052,14.337144216056293189
0.216000000000000053,13.782398559065745403
0.217000000000000054,13.237774701114432219
0.218000000000000055,12.703196126403407007
0.219000000000000056,12.178608203726302150
0.220000000000000057,11.663976605149516175
0.221000000000000058,11.159285359200891818
0.222000000000000058,10.664534615456714661
0.223000000000000059,10.179738194716851041
0.224000000000000060,9.704920994931777400
0.225000000000000061,9.240116318007491003
0.226000000000000062,8.785363176845621069
0.227000000000000063,8.340703635723825116
0.228000000000000064,7.906180230603266246
0.229000000000000065,7.481833509347566746
0.230000000000000066,7.067699725308583147
0.231000000000000066,6.663808711400969642
0.232000000000000067,6.270181955753694858
0.233000000000000068,5.886830894366203992
0.234000000000000069,5.513755430968346083
0.235000000000000070,5.150942689522876705
0.236000000000000071,4.798366000540535303
0.237000000000000072,4.455984118607889677
0.238000000000000073,4.123740665256161897
0.239000000000000073,3.801563788513417474
0.240000000000000074,3.489366028161833277
0.241000000000000075,3.187044373845156819
0.242000000000000076,2.894480501706937936
0.243000000000000077,2.611541174157482992
0.244000000000000078,2.338078786633027928
0.245000000000000079,2.073932044789177809
0.246000000000000080,1.818926755428894371
0.247000000000000081,1.572876714567017498
0.248000000000000081,1.335584676348001043
0.249000000000000082,1.106843387027492742
0.250000000000000111,0.886436668872716105
0.251000000000000112,0.674140539603570010
0.252000000000000113,0.469724353858910759
0.253000000000000114,0.272951954109622252
0.254000000000000115,0.083582819426865337
0.255000000000000115,-0.098626798465040716
0.256000000000000116,-0.273922761386238389
0.257000000000000117,-0.442551961647899561
0.258000000000000118,-0.604761277221440130
0.259000000000000119,-0.760796571602748495
0.260000000000000120,-0.910901743874634406
0.261000000000000121,-1.055317833540764472
0.262000000000000122,-1.194282183820962073
0.263000000000000123,-1.328027666264060658
0.264000000000000123,-1.456781968755360257
0.265000000000000124,-1.580766948272299022
0.266000000000000125,-1.700198049076600215
0.267000000000000126,-1.815283786423548706
0.268000000000000127,-1.926225295319858422
0.269000000000000128,-2.033215943369004464
0.270000000000000129,-2.136441006306433188
0.271000000000000130,-2.236077404444430705
0.272000000000000131,-2.332293497915458147
0.273000000000000131,-2.425248938321174386
0.274000000000000132,-2.515094574159396412
0.275000000000000133,-2.601972407210107363
0.276000000000000134,-2.686015596911273118
0.277000000000000135,-2.767348509642698406
0.278000000000000136,-2.846086809758757052
0.279000000000000137,-2.922337589164927696
0.280000000000000138,-2.996199532216319739
0.281000000000000139,-3.067763112725645058
0.282000000000000139,-3.137110819900597924
0.283000000000000140,-3.204317410083679984
0.284000000000000141,-3.269450181238681807
0.285000000000000142,-3.332569267214842146
0.286000000000000143,-3.393727948919865955
0.287000000000000144,-3.452972979644139961
0.288000000000000145,-3.510344921899462456
0.289000000000000146,-3.565878493263049620
0.290000000000000147,-3.619602918851673845
0.291000000000000147,-3.671542288188207603
0.292000000000000148,-3.721715914363588062
0.293000000000000149,-3.770138693538880315
0.294000000000000150,-3.816821462974407275
0.295000000000000151,-3.861771355914349613
0.296000000000000152,-3.904992151794834054
0.297000000000000153,-3.946484620380952713
0.298000000000000154,-3.986246858572182639
0.299000000000000155,-4.024274618746094490
0.300000000000000155,-4.060561627636328552
0.301000000000000156,-4.095099894862236134
0.302000000000000157,-4.127880010344089357
0.303000000000000158,-4.158891429948718965
0.304000000000000159,-4.188122748816353713
0.305000000000000160,-4.215561961919085832
0.306000000000000161,-4.241196711495996752
0.307000000000000162,-4.265014521098328792
0.308000000000000163,-4.287003016060778826
0.309000000000000163,-4.307150130292171752
0.310000000000000164,-4.325444299349991084
0.311000000000000165,-4.341874639829091720
0.312000000000000166,-4.356431115155353417
0.313000000000000167,-4.369104687930033037
0.314000000000000168,-4.379887459020681995
0.315000000000000169,-4.388772793639395431
0.316000000000000170,-4.395755434689696095
0.317000000000000171,-4.400831603698951433
0.318000000000000171,-4.403999089684758061
0.319000000000000172,-4.405257326331172507
0.320000000000000173,-4.404607457874018195
0.321000000000000174,-4.402052394114303269
0.322000000000000175,-4.397596854995262206
0.323000000000000176,-4.391247405191516684
0.324000000000000177,-4.383012479169000386
0.325000000000000178,-4.372902397181526624
0.326000000000000179,-4.360929372674747562
0.327000000000000179,-4.347107511570255767
0.328000000000000180,-4.331452803902813287
0.329000000000000181,-4.313983108281903789
0.330000000000000182,-4.294718129644542692
0.331000000000000183,-4.273679390761466301
0.332000000000000184,-4.250890197951248339
0.333000000000000185,-4.226375601449065655
0.334000000000000186,-4.200162350867064909
0.335000000000000187,-4.172278846172853051
0.336000000000000187,-4.142755084601198234
0.337000000000000188,-4.111622603901624373
0.338000000000000189,-4.078914422311884280
0.339000000000000190,-4.044664975633663673
0.340000000000000191,-4.008910051772859973
0.341000000000000192,-3.971686723092747062
0.342000000000000193,-3.933033276913394438
0.343000000000000194,-3.892989144476341146
0.344000000000000195,-3.851594828678189142
0.345000000000000195,-3.808891830862369599
0.346000000000000196,-3.764922576942963950
0.347000000000000197,-3.719730343119906024
0.348000000000000198,-3.673359181430204679
0.349000000000000199,-3.625853845365048844
0.350000000000000200,-3.577259715768755566
0.351000000000000201,-3.527622727221081167
0.352000000000000202,-3.476989295090940679
0.353000000000000203,-3.425406243436059039
0.354000000000000203,-3.372920733909961832
0.355000000000000204,-3.319580195825007962
0.356000000000000205,-3.265432257507913327
0.357000000000000206,-3.210524679072213505
0.358000000000000207,-3.154905286720518287
0.359000000000000208,-3.098621908678528492
0.360000000000000209,-3.041722312851921295
0.361000000000000210,-2.984254146287066867
0.362000000000000210,-2.926264876506741608
0.363000000000000211,-2.867801734782614798
0.364000000000000212,-2.808911661397441861
0.365000000000000213,-2.749641252941296354
0.366000000000000214,-2.690036711678235104
0.367000000000000215,-2.630143797012070905
0.368000000000000216,-2.570007779072800425
0.369000000000000217,-2.509673394438352467
0.370000000000000218,-2.449184804000016147
0.371000000000000218,-2.388585552973781834
0.372000000000000219,-2.327918533054377015
0.373000000000000220,-2.267225946703371076
0.374000000000000221,-2.206549273557988577
0.375000000000000222,-2.145929238942583694
0.376000000000000223,-2.085405784460715672
0.377000000000000224,-2.025018040641769268
0.378000000000000225,-1.964804301612576243
0.379000000000000226,-1.904802001761253694
0.380000000000000226,-1.845047694357557333
0.381000000000000227,-1.785577032091280048
0.382000000000000228,-1.726424749487975419
0.383000000000000229,-1.667624647159053897
0.384000000000000230,-1.609209577841343108
0.385000000000000231,-1.551211434179758930
0.386000000000000232,-1.493661138205017558
0.387000000000000233,-1.436588632457296288
0.388000000000000234,-1.380022872705579662
0.389000000000000234,-1.323991822211708413
0.390000000000000235,-1.268522447487310689
0.391000000000000236,-1.213640715491506317
0.392000000000000237,-1.159371592216673408
0.393000000000000238,-1.105739042609615641
0.394000000000000239,-1.052766031775204780
0.395000000000000240,-1.000474527409771941
0.396000000000000241,-0.948885503411617925
0.397000000000000242,-0.898018944616334358
0.398000000000000242,-0.847893852605066001
0.399000000000000243,-0.798528252534268512
0.400000000000000244,-0.749939200936040828
0.401000000000000245,-0.702142794439024165
0.402000000000000246,-0.655154179360217137
0.403000000000000247,-0.608987562119128745
0.404000000000000248,-0.563656220426453691
0.405000000000000249,-0.519172515200341023
0.406000000000000250,-0.475547903164296237
0.407000000000000250,-0.432792950081786643
0.408000000000000251,-0.390917344583573967
0.409000000000000252,-0.349929912544985844
0.410000000000000253,-0.309838631971280587
0.411000000000000254,-0.270650648350531875
0.412000000000000255,-0.232372290434454065
0.413000000000000256,-0.195009086408875432
0.414000000000000257,-0.158565780416578594
0.415000000000000258,-0.123046349396571622
0.416000000000000258,-0.088454020204858874
0.417000000000000259,-0.054791286983099388
0.418000000000000260,-0.022059928742631667
0.419000000000000261,0.009738972867461565
0.420000000000000262,0.040605015638370649
0.421000000000000263,0.070538458754656114
0.422000000000000264,0.099540204650260339
0.423000000000000265,0.127611780794169127
0.424000000000000266,0.154755321431174458
0.425000000000000266,0.180973549302336389
0.426000000000000267,0.206269757368393758
0.427000000000000268,0.230647790558449917
0.428000000000000269,0.254112027565152165
0.429000000000000270,0.276667362706506104
0.430000000000000271,0.298319187873535729
0.431000000000000272,0.319073374581899993
0.432000000000000273,0.338936256144675985
0.433000000000000274,0.357914609982520115
0.434000000000000274,0.376015640086515890
0.435000000000000275,0.393246959648090144
0.436000000000000276,0.409616573869494682
0.437000000000000277,0.425132862967524450
0.438000000000000278,0.439804565382258539
0.439000000000000279,0.453640761201826781
0.440000000000000280,0.466650855813424470
0.441000000000000281,0.478844563790050359
0.442000000000000282,0.490231893021599252
0.443000000000000282,0.500823129098448838
0.444000000000000283,0.510628819954708768
0.445000000000000284,0.519659760777877455
0.446000000000000285,0.527926979190924128
0.447000000000000286,0.535441720712093283
0.448000000000000287,0.542215434497353432
0.449000000000000288,0.548259759369626454
0.450000000000000289,0.553586510138535326
0.451000000000000290,0.558207664213803412
0.452000000000000290,0.562135348514964273
0.453000000000000291,0.565381826679566268
0.454000000000000292,0.567959486571560479
0.455000000000000293,0.569880828091176350
0.456000000000000294,0.571158451287104074
0.457000000000000295,0.571805044771475091
0.458000000000000296,0.571833374437669906
0.459000000000000297,0.571256272480721305
0.460000000000000298,0.570086626719615297
0.461000000000000298,0.568337370220607707
0.462000000000000299,0.566021471220217398
0.463000000000000300,0.563151923346413619
0.464000000000000301,0.559741736136116108
0.465000000000000302,0.555803925846946711
0.466000000000000303,0.551351506560897042
0.467000000000000304,0.546397481577372668
0.468000000000000305,0.540954835092804287
0.469000000000000306,0.535036524163906124
0.470000000000000306,0.528655470951388540
0.471000000000000307,0.521824555240827159
0.472000000000000308,0.514556607237178221
0.473000000000000309,0.506864400629327916
0.474000000000000310,0.498760645920905965
0.475000000000000311,0.490257984023434179
0.476000000000000312,0.481368980107867661
0.477000000000000313,0.472106117710357431
0.478000000000000314,0.462481793088077908
0.479000000000000314,0.452508309820794707
0.480000000000000315,0.442197873653853712
0.481000000000000316,0.431562587578126489
0.482000000000000317,0.420614447142465597
0.483000000000000318,0.409365335994113622
0.484000000000000319,0.397827021642514045
0.485000000000000320,0.386011151441902345
0.486000000000000321,0.373929248788061108
0.487000000000000322,0.361592709524577338
0.488000000000000322,0.349012798553948400
0.489000000000000323,0.336200646648858015
0.490000000000000324,0.323167247458945650
0.491000000000000325,0.309923454708408264
0.492000000000000326,0.296479979579769626
0.493000000000000327,0.282847388279177270
0.494000000000000328,0.269036099778576898
0.495000000000000329,0.255056383730194292
0.496000000000000330,0.240918358548711742
0.497000000000000330,0.226631989656607524
0.498000000000000331,0.212207087888143742
0.499000000000000332,0.197653308047535031
0.500000000000000333,0.182980147616827737
0.501000000000000334,0.168196945609143611
0.502000000000000335,0.153312881562906289
0.503000000000000336,0.138336974672778862
0.504000000000000337,0.123278083053044107
0.505000000000000338,0.108144903129256537
0.506000000000000338,0.092945969154012473
0.507000000000000339,0.077689652842767326
0.508000000000000340,0.062384163125677031
0.509000000000000341,0.047037546011501015
0.510000000000000342,0.031657684559673639
0.511000000000000343,0.016252298956695443
0.512000000000000344,0.000828946693083832
0.513000000000000345,-0.014604977162819254
0.514000000000000346,-0.030042239597863098
0.515000000000000346,-0.045475769197440653
0.516000000000000347,-0.060898655602737217
0.517000000000000348,-0.076304148885302792
0.518000000000000349,-0.091685658842315193
0.519000000000000350,-0.107036754215829297
0.520000000000000351,-0.122351161839291928
0.521000000000000352,-0.137622765714437711
0.522000000000000353,-0.152845606021699387
0.523000000000000353,-0.168013878067167749
0.524000000000000354,-0.183121931169032776
0.525000000000000355,-0.198164267486454659
0.526000000000000356,-0.213135540793627648
0.527000000000000357,-0.228030555201858498
0.528000000000000358,-0.242844263832326795
0.529000000000000359,-0.257571767442136890
0.530000000000000360,-0.272208313006260860
0.531000000000000361,-0.286749292257836019
0.532000000000000361,-0.301190240189272762
0.533000000000000362,-0.315526833516517335
0.534000000000000363,-0.329754889108783422
0.535000000000000364,-0.343870362385999662
0.536000000000000365,-0.357869345686129825
0.537000000000000366,-0.371748066604503324
0.538000000000000367,-0.385502886307193038
0.539000000000000368,-0.399130297820453839
0.540000000000000369,-0.412626924298140352
0.541000000000000369,-0.425989517268995865
0.542000000000000370,-0.439214954865620844
0.543000000000000371,-0.452300240036894063
0.544000000000000372,-0.465242498745555455
0.545000000000000373,-0.478038978152589222
0.546000000000000374,-0.490687044790032334
0.547000000000000375,-0.503184182723726559
0.548000000000000376,-0.515527991707540711
0.549000000000000377,-0.527716185330471266
0.550000000000000377,-0.539746589158051848
0.551000000000000378,-0.551617138869389123
0.552000000000000379,-0.563325878391133239
0.553000000000000380,-0.574870958029638057
0.554000000000000381,-0.586250632602498767
0.555000000000000382,-0.597463259570647942
0.556000000000000383,-0.608507297172097394
0.557000000000000384,-0.619381302558423608
0.558000000000000385,-0.630083929935000286
0.559000000000000385,-0.640613928705996871
0.560000000000000386,-0.650970141625043408
0.561000000000000387,-0.661151502952521897
0.562000000000000388,-0.671157036620306013
0.563000000000000389,-0.680985854404823732
0.564000000000000390,-0.690637154109188245
0.565000000000000391,-0.700110217755203101
0.566000000000000392,-0.709404409785932222
0.567000000000000393,-0.718519175279540567
0.568000000000000393,-0.727454038175047168
0.569000000000000394,-0.736208599510639550
0.570000000000000395,-0.744782535675110657
0.571000000000000396,-0.753175596672995495
0.572000000000000397,-0.761387604403954921
0.573000000000000398,-0.769418450956871780
0.574000000000000399,-0.777268096919170204
0.575000000000000400,-0.784936569701786491
0.576000000000000401,-0.792423961880208361
0.577000000000000401,-0.799730429551999689
0.578000000000000402,-0.806856190711160659
0.579000000000000403,-0.813801523639663515
0.580000000000000404,-0.820566765316517843
0.581000000000000405,-0.827152309844622513
0.582000000000000406,-0.833558606895717702
0.583000000000000407,-0.839786160173666807
0.584000000000000408,-0.845835525896323381
0.585000000000000409,-0.851707311296168279
0.586000000000000409,-0.857402173139953705
0.587000000000000410,-0.862920816267497393
0.588000000000000411,-0.868263992149787334
0.589000000000000412,-0.873432497466566482
0.590000000000000413,-0.878427172703478143
0.591000000000000414,-0.883248900768914824
0.592000000000000415,-0.887898605630651816
0.593000000000000416,-0.892377250972321567
0.594000000000000417,-0.896685838869828222
0.595000000000000417,-0.900825408487717971
0.596000000000000418,-0.904797034795548405
0.597000000000000419,-0.908601827304289733
0.598000000000000420,-0.912240928822746100
0.599000000000000421,-0.915715514234007322
0.600000000000000422,-0.919026789291915280
0.601000000000000423,-0.922175989437502563
0.602000000000000424,-0.925164378635386919
0.603000000000000425,-0.927993248230074563
0.604000000000000425,-0.930663915822078636
0.605000000000000426,-0.933177724163834155
0.606000000000000427,-0.935536040075317765
0.607000000000000428,-0.937740253379246047
0.608000000000000429,-0.939791775855856160
0.609000000000000430,-0.941692040217039894
0.610000000000000431,-0.943442499099855447
0.611000000000000432,-0.945044624079199536
0.612000000000000433,-0.946499904699564132
0.613000000000000433,-0.947809847525764915
0.614000000000000434,-0.948975975212462686
0.615000000000000435,-0.949999825592367619
0.616000000000000436,-0.950882950782983016
