# C-amorph-3_ALASCA-JS
# h[nm],U(h)[kJ/mol]
0.200000000000000011,46.186742101632901836
0.201000000000000012,43.669336956662746729
0.202000000000000013,42.393264204186884569
0.203000000000000014,41.685940459435883554
0.204000000000000015,41.167353177853996726
0.205000000000000016,40.643144347810917338
0.206000000000000016,40.031810734660936646
0.207000000000000017,39.316225929431617203
0.208000000000000018,38.512279511994094605
0.209000000000000019,37.649376113802588861
0.210000000000000020,36.758993828523770730
0.211000000000000021,35.868584516928763151
0.212000000000000022,34.998898442442275325
0.213000000000000023,34.163401803570472737
0.214000000000000024,33.368881317855198176
0.215000000000000024,32.616635706956891738
0.216000000000000025,31.903870666382239563
0.217000000000000026,31.225065118494079286
0.218000000000000027,30.573179927213551821
0.219000000000000028,29.940649066513959298
0.220000000000000029,29.320137379581154846
0.221000000000000030,28.705075872302842299
0.222000000000000031,28.090000339808408825
0.223000000000000032,27.470725947851281745
0.224000000000000032,26.844392001783081270
0.225000000000000033,26.209409534941606523
0.226000000000000034,25.565340929347492249
0.227000000000000035,24.912736493901693535
0.228000000000000036,24.252948395284761318
0.229000000000000037,23.587937959665747911
0.230000000000000038,22.920088371126958293
0.231000000000000039,22.252031304551159963
0.232000000000000040,21.586493089781420451
0.233000000000000040,20.926163604080709746
0.234000000000000041,20.273589195058104195
0.235000000000000042,19.631089493311694838
0.236000000000000043,19.000696922555061263
0.237000000000000044,18.384116993045243049
0.238000000000000045,17.782707012344840081
0.239000000000000046,17.197470611325094580
0.240000000000000047,16.629065414424907488
0.241000000000000048,16.077821239648010021
0.242000000000000048,15.543766360230648615
0.243000000000000049,15.026659567113293647
0.244000000000000050,14.526026015675952863
0.245000000000000051,14.041195102979049381
0.246000000000000052,13.571338888637864528
0.247000000000000053,13.115509832742318963
0.248000000000000054,12.672676870263844151
0.249000000000000055,12.241759068010026112
0.250000000000000056,11.821656314240168939
0.251000000000000056,11.411276670966183033
0.252000000000000057,11.009560174365827123
0.253000000000000058,10.615499000170768085
0.254000000000000059,10.228154019545726783
0.255000000000000060,9.846667858480779856
0.256000000000000061,9.470274641981369257
0.257000000000000062,9.098306655412445210
0.258000000000000063,8.730198191330124757
0.259000000000000064,8.365486873080872243
0.260000000000000064,8.003812758341863898
0.261000000000000065,7.644915528471649679
0.262000000000000066,7.288630064739448855
0.263000000000000067,6.934880701748602050
0.264000000000000068,6.583674433035746176
0.265000000000000069,6.235093325118186591
0.266000000000000070,5.889286375221780112
0.267000000000000071,5.546461025438006232
0.268000000000000071,5.206874522880832856
0.269000000000000072,4.870825292155393171
0.270000000000000073,4.538644463611202440
0.271000000000000074,4.210687678825227209
0.272000000000000075,3.887327273845310849
0.273000000000000076,3.568944921144016291
0.274000000000000077,3.255924793137263684
0.275000000000000078,2.948647293606696973
0.276000000000000079,2.647483388473082844
0.277000000000000079,2.352789554105502390
0.278000000000000080,2.064903349691778356
0.279000000000000081,1.784139610084205740
0.280000000000000082,1.510787246901897918
0.281000000000000083,1.245106638428097323
0.282000000000000084,0.987327582892552513
0.283000000000000085,0.737647784972258469
0.284000000000000086,0.496231841672173601
0.285000000000000087,0.263210691055278834
0.286000000000000087,0.038681485472435731
0.287000000000000088,-0.177292150104920943
0.288000000000000089,-0.384679514419779878
0.289000000000000090,-0.583481920496002782
0.290000000000000091,-0.773731519298618720
0.291000000000000092,-0.955489894236629000
0.292000000000000093,-1.128846462803233308
0.293000000000000094,-1.293916719923697389
0.294000000000000095,-1.450840355645366175
0.295000000000000095,-1.599779277713219816
0.296000000000000096,-1.740915567375257211
0.297000000000000097,-1.874449394498628241
0.298000000000000098,-2.000596915786041929
0.299000000000000099,-2.119588177595130851
0.300000000000000100,-2.231665042607863025
0.301000000000000101,-2.337079157395906659
0.302000000000000102,-2.436089975799319074
0.303000000000000103,-2.528962850996016698
0.304000000000000103,-2.615967207198703903
0.305000000000000104,-2.697374800084797020
0.306000000000000105,-2.773458073348378239
0.307000000000000106,-2.844488617166191169
0.308000000000000107,-2.910735732894162986
0.309000000000000108,-2.972465106956989622
0.310000000000000109,-3.029937595660477712
0.311000000000000110,-3.083408121541665547
0.312000000000000111,-3.133124680872895418
0.313000000000000111,-3.179327461047865011
0.314000000000000112,-3.222248065796536221
0.315000000000000113,-3.262108845495615750
0.316000000000000114,-3.299122329257175856
0.317000000000000115,-3.333490754983444049
0.318000000000000116,-3.365405693165390399
0.319000000000000117,-3.395047759870061466
0.320000000000000118,-3.422586414100767804
0.321000000000000119,-3.448179834519248033
0.322000000000000119,-3.471974870383918610
0.323000000000000120,-3.494107061477566223
0.324000000000000121,-3.514700721766047309
0.325000000000000122,-3.533869081541360480
0.326000000000000123,-3.551714482852710741
0.327000000000000124,-3.568328623113512066
0.328000000000000125,-3.583792841886213498
0.329000000000000126,-3.598178445985582563
0.330000000000000127,-3.611547068201833355
0.331000000000000127,-3.623951055123280973
0.332000000000000128,-3.635433879731039930
0.333000000000000129,-3.646030574642797006
0.334000000000000130,-3.655768182095768370
0.335000000000000131,-3.664666216978414326
0.336000000000000132,-3.672737139443745580
0.337000000000000133,-3.679986833862392448
0.338000000000000134,-3.686415091098991237
0.339000000000000135,-3.692016091319287430
0.340000000000000135,-3.696778884756420691
0.341000000000000136,-3.700687868081675269
0.342000000000000137,-3.703723254236691353
0.343000000000000138,-3.705861533789713835
0.344000000000000139,-3.707075926077275874
0.345000000000000140,-3.707336818584040294
0.346000000000000141,-3.706612193196854754
0.347000000000000142,-3.704868038144195630
0.348000000000000143,-3.702068744598610017
0.349000000000000143,-3.698177487077348502
0.350000000000000144,-3.693156586925207652
0.351000000000000145,-3.686967858303236589
0.352000000000000146,-3.679572936237903491
0.353000000000000147,-3.670933586407225224
0.354000000000000148,-3.661011996453654493
0.355000000000000149,-3.649771048718225330
0.356000000000000150,-3.637174574386824677
0.357000000000000151,-3.623187589127728980
0.358000000000000151,-3.607776510380027446
0.359000000000000152,-3.590909356525332274
0.360000000000000153,-3.572555928241033740
0.361000000000000154,-3.552687972391870286
0.362000000000000155,-3.531279328868837553
0.363000000000000156,-3.508306060830294282
0.364000000000000157,-3.483746568839966251
0.365000000000000158,-3.457581689430970329
0.366000000000000159,-3.429794778653926901
0.367000000000000159,-3.400371781191327436
0.368000000000000160,-3.369301285639897170
0.369000000000000161,-3.336574566577731105
0.370000000000000162,-3.302185614044232942
0.371000000000000163,-3.266131151068454308
0.372000000000000164,-3.228410639885317401
0.373000000000000165,-3.189026277480456084
0.374000000000000166,-3.147982981102281030
0.375000000000000167,-3.105288364375573984
0.376000000000000167,-3.060952704644068767
0.377000000000000168,-3.014988902160541606
0.378000000000000169,-2.967412431732123768
0.379000000000000170,-2.918241287416205587
0.380000000000000171,-2.867495920848144753
0.381000000000000172,-2.815199173767005014
0.382000000000000173,-2.761376205288994079
0.383000000000000174,-2.706054414461217306
0.384000000000000175,-2.649263358610101537
0.385000000000000175,-2.591034667980277817
0.386000000000000176,-2.531401957140453796
0.387000000000000177,-2.470400733613137056
0.388000000000000178,-2.408068304165377871
0.389000000000000179,-2.344443679177400153
0.390000000000000180,-2.279567475486167005
0.391000000000000181,-2.213481818080524910
0.392000000000000182,-2.146230241004909445
0.393000000000000183,-2.077857587808387585
0.394000000000000183,-2.008409911856547048
0.395000000000000184,-1.937934376804234304
0.396000000000000185,-1.866479157508162290
0.397000000000000186,-1.794093341640015549
0.398000000000000187,-1.720826832242268178
0.399000000000000188,-1.646730251451396398
0.400000000000000189,-1.571854845596006189
0.401000000000000190,-1.496252391860422915
0.402000000000000191,-1.419975106688596833
0.403000000000000191,-1.343075556087090394
0.404000000000000192,-1.265606567971241159
0.405000000000000193,-1.187621146683936146
0.406000000000000194,-1.109172389802623782
0.407000000000000195,-1.030313407336967080
0.408000000000000196,-0.951097243406636039
0.409000000000000197,-0.871576800476841718
0.410000000000000198,-0.791804766217596545
0.411000000000000199,-0.711833543041641703
0.412000000000000199,-0.631715180365706064
0.413000000000000200,-0.551501309629929271
0.414000000000000201,-0.471243082100950172
0.415000000000000202,-0.390991109475404053
0.416000000000000203,-0.310795407292564552
0.417000000000000204,-0.230705341156833915
0.418000000000000205,-0.150769575763964464
0.419000000000000206,-0.071036026717988171
0.420000000000000207,0.008448184880459902
0.421000000000000207,0.087636775099199454
0.422000000000000208,0.166484337123468717
0.423000000000000209,0.244946378523810127
0.424000000000000210,0.322979355882681396
0.425000000000000211,0.400540706823552195
0.426000000000000212,0.477588879489981744
0.427000000000000213,0.554083359525583186
0.428000000000000214,0.629984694608692664
0.429000000000000214,0.705254516598377346
0.430000000000000215,0.779855561350714210
0.431000000000000216,0.853751686266234877
0.432000000000000217,0.926907885631520045
0.433000000000000218,0.999290303819088122
0.434000000000000219,1.070866246411268596
0.435000000000000220,1.141604189314612050
0.436000000000000221,1.211473785932274172
0.437000000000000222,1.280445872462397716
0.438000000000000222,1.348492471390826619
0.439000000000000223,1.415586793246805364
0.440000000000000224,1.481703236690258052
0.441000000000000225,1.546817386999207899
0.442000000000000226,1.610906013025432015
0.443000000000000227,1.673947062686273579
0.444000000000000228,1.735919657059785903
0.445000000000000229,1.796804083149791342
0.446000000000000230,1.856581785386660410
0.447000000000000230,1.915235355928705641
0.448000000000000231,1.972748523828169454
0.449000000000000232,2.029106143124657535
0.450000000000000233,2.084294179927811630
0.451000000000000234,2.138299698549773087
0.452000000000000235,2.191110846746758600
0.453000000000000236,2.242716840127779498
0.454000000000000237,2.293107945787106416
0.455000000000000238,2.342275465215825747
0.456000000000000238,2.390211716546228438
0.457000000000000239,2.436910016181538019
0.458000000000000240,2.482364659861736822
0.459000000000000241,2.526570903215065833
0.460000000000000242,2.569524941842941779
0.461000000000000243,2.611223890984814666
0.462000000000000244,2.651665764807693115
0.463000000000000245,2.690849455363804044
0.464000000000000246,2.728774711258085350
0.465000000000000246,2.765442116065843781
0.466000000000000247,2.800853066539367831
0.467000000000000248,2.835009750640771209
0.468000000000000249,2.867915125436811152
0.469000000000000250,2.899572894890079411
0.470000000000000251,2.929987487579349903
0.471000000000000252,2.959164034380584063
0.472000000000000253,2.987108346138571235
0.473000000000000254,3.013826891357836768
0.474000000000000254,3.039326773940115523
0.475000000000000255,3.063615710994259889
0.476000000000000256,3.086702010743281654
0.477000000000000257,3.108594550551745606
0.478000000000000258,3.129302755095694000
0.479000000000000259,3.148836574695891066
0.480000000000000260,3.167206463834043806
0.481000000000000261,3.184423359870528714
0.482000000000000262,3.200498661980894610
0.483000000000000262,3.215444210327487617
0.484000000000000263,3.229272265481294202
0.485000000000000264,3.241995488108199375
0.486000000000000265,3.253626918932741141
0.487000000000000266,3.264179958991547004
0.488000000000000267,3.273668350187660447
0.489000000000000268,3.282106156156015864
0.490000000000000269,3.289507743449531230
0.491000000000000270,3.295887763054326403
0.492000000000000270,3.301261132241850138
0.493000000000000271,3.305643016764833853
0.494000000000000272,3.309048813403305811
0.495000000000000273,3.311494132866082740
0.496000000000000274,3.312994783052527481
0.497000000000000275,3.313566752678688943
0.498000000000000276,3.313226195271188779
0.499000000000000277,3.311989413531793325
0.500000000000000222,3.309872844074824627
0.501000000000000334,3.306893042539142957
0.502000000000000224,3.303066669075813699
0.503000000000000336,3.298410474212121635
0.504000000000000226,3.292941285092053416
0.505000000000000338,3.286675992092959575
0.506000000000000227,3.279631535817608246
0.507000000000000339,3.271824894460512390
0.508000000000000229,3.263273071546952231
0.509000000000000341,3.253993084042714479
0.510000000000000231,3.244001950832370085
0.511000000000000343,3.233316681563377593
0.512000000000000233,3.221954265853188559
0.513000000000000345,3.209931662856053691
0.514000000000000234,3.197265791186139516
0.515000000000000346,3.183973519193144419
0.516000000000000236,3.170071655586538917
0.517000000000000348,3.155576940404103858
0.518000000000000238,3.140506036320567240
0.519000000000000350,3.124875520291541697
0.520000000000000240,3.108701875528222303
0.521000000000000352,3.092001483797765182
0.522000000000000242,3.074790618044439761
0.523000000000000353,3.057085435326226452
0.524000000000000243,3.038901970061707036
0.525000000000000355,3.020256127581715688
0.526000000000000245,3.001163677980363431
0.527000000000000357,2.981640250259734337
0.528000000000000247,2.961701326762721909
0.529000000000000359,2.941362237888209386
0.530000000000000249,2.920638157082867004
0.531000000000000361,2.899544096103724655
0.532000000000000250,2.878094900545755230
0.533000000000000362,2.856305245628480094
0.534000000000000252,2.834189632235891931
0.535000000000000364,2.811762383203576743
0.536000000000000254,2.789037639847414152
0.537000000000000366,2.766029358727705834
0.538000000000000256,2.742751308643085473
0.539000000000000368,2.719217067848178182
0.540000000000000258,2.695440021489344140
0.541000000000000369,2.671433359252513462
0.542000000000000259,2.647210073217587389
0.543000000000000371,2.622782955913442127
0.544000000000000261,2.598164598568023731
0.545000000000000373,2.573367389547815520
0.546000000000000263,2.548403512981185060
0.547000000000000375,2.523284947559910840
0.548000000000000265,2.498023465513709240
0.549000000000000377,2.472630631752030350
0.550000000000000266,2.447117803168116446
0.551000000000000378,2.421496128099753342
0.552000000000000268,2.395776545941788349
0.553000000000000380,2.369969786905079090
0.554000000000000270,2.344086371916996647
0.555000000000000382,2.318136612658363571
0.556000000000000272,2.292130611732092316
0.557000000000000384,2.266078262958565404
0.558000000000000274,2.239989251793159664
0.559000000000000385,2.213873055861167671
0.560000000000000275,2.187738945605642638
0.561000000000000387,2.161595985043605062
0.562000000000000277,2.135453032626334124
0.563000000000000389,2.109318742199296715
0.564000000000000279,2.083201564057656441
0.565000000000000391,2.057109746093069180
0.566000000000000281,2.031051335027895810
0.567000000000000393,2.005034177732703426
0.568000000000000282,1.979065922623345797
0.569000000000000394,1.953154021133681750
0.570000000000000284,1.927305729260439859
0.571000000000000396,1.901528109176370496
0.572000000000000286,1.875828030908419208
0.573000000000000398,1.850212174077273897
0.574000000000000288,1.824687029695110096
0.575000000000000400,1.799258902018089801
0.576000000000000290,1.773933910450651741
0.577000000000000401,1.748717991498246249
0.578000000000000291,1.723616900765724491
0.579000000000000403,1.698636214998292981
0.580000000000000293,1.673781334162292023
0.581000000000000405,1.649057483562884174
0.582000000000000295,1.624469715996171404
0.583000000000000407,1.600022913932869217
0.584000000000000297,1.575721791731257815
0.585000000000000409,1.551570897876693778
0.586000000000000298,1.527574617245566202
0.587000000000000410,1.503737173391088477
0.588000000000000300,1.480062630848980376
0.589000000000000412,1.456554897460604625
0.590000000000000302,1.433217726711686124
0.591000000000000414,1.410054720084384927
0.592000000000000304,1.387069329420944852
0.593000000000000416,1.364264859296856924
0.594000000000000306,1.341644469401849005
0.595000000000000417,1.319211176926803564
0.596000000000000307,1.296967858955055952
0.597000000000000419,1.274917254856264837
0.598000000000000309,1.253061968681396632
0.599000000000000421,1.231404471557273617
0.600000000000000311,1.209947104079198255
0.601000000000000423,1.188692078700239296
0.602000000000000313,1.167641482115930884
0.603000000000000425,1.146797277642912061
0.604000000000000314,1.126161307590472394
0.605000000000000426,1.105735295623603509
0.606000000000000316,1.085520849116620390
0.607000000000000428,1.065519461496084563
0.608000000000000318,1.045732514572127680
0.609000000000000430,1.026161280857061486
0.610000000000000320,1.006806925870465497
0.611000000000000432,0.987670510429671245
0.612000000000000322,0.968752992924988954
0.613000000000000433,0.950055231578664228
0.614000000000000323,0.931577986686939474
0.615000000000000435,0.913321922844374967
0.616000000000000325,0.895287611149847229
0.617000000000000437,0.877475531393429264
0.618000000000000327,0.859886074223673802
0.619000000000000439,0.842519543294599549
0.620000000000000329,0.825376157391912280
0.621000000000000441,0.808456052537891323
0.622000000000000330,0.791759284074505576
0.623000000000000442,0.775285828724238457
0.624000000000000332,0.759035586628327819
0.625000000000000444,0.743008383361853708
0.626000000000000334,0.727203971925510118
0.627000000000000446,0.711622034713554230
0.628000000000000336,0.696262185457761751
0.629000000000000448,0.681123971147012508
0.630000000000000338,0.666206873922355891
0.631000000000000449,0.651510312947188641
0.632000000000000339,0.637033646252508245
0.633000000000000451,0.622776172556908425
0.634000000000000341,0.608737133061290736
0.635000000000000453,0.594915713218010289
0.636000000000000343,0.581311044474522642
0.637000000000000455,0.567922205991228446
0.638000000000000345,0.554748226333646288
0.639000000000000457,0.541788085138666720
0.640000000000000346,0.529040714755012909
0.641000000000000458,0.516505001857735735
0.642000000000000348,0.504179789036882209
0.643000000000000460,0.492063876360198993
0.644000000000000350,0.480156022910042057
0.645000000000000462,0.468454948294391993
0.646000000000000352,0.456959334132164385
0.647000000000000464,0.445667825512737870
0.648000000000000353,0.434579032429937340
0.649000000000000465,0.423691531190395043
0.650000000000000355,0.413003865796561898
0.651000000000000467,0.402514549304336111
0.652000000000000357,0.392222065155536925
0.653000000000000469,0.382124868485304414
0.654000000000000359,0.372221387404597537
0.655000000000000471,0.362510024257918562
0.656000000000000361,0.352989156856472364
0.657000000000000473,0.343657139686860402
0.658000000000000362,0.334512305095572504
0.659000000000000474,0.325552964449389193
0.660000000000000364,0.316777409271951804
0.661000000000000476,0.308183912356625012
0.662000000000000366,0.299770728855952240
0.663000000000000478,0.291536097347826373
0.664000000000000368,0.283478240878667520
0.665000000000000480,0.275595367983761386
0.666000000000000369,0.267885673685056669
0.667000000000000481,0.260347340466592636
0.668000000000000371,0.252978539227846355
0.669000000000000483,0.245777430215180503
