# C-amorph-3_LYSSCA-JS
# h[nm],U(h)[kJ/mol]
0.200000000000000011,85.411904410715095537
0.201000000000000012,83.619358353000109219
0.202000000000000013,81.850263164243827418
0.203000000000000014,80.112684034387214638
0.204000000000000015,78.406975754521823774
0.205000000000000016,76.730004524629052298
0.206000000000000016,75.077601141894319881
0.207000000000000017,73.445867085540697872
0.208000000000000018,71.831762600142184283
0.209000000000000019,70.233267650443309549
0.210000000000000020,68.649308376054918313
0.211000000000000021,67.079572736564841762
0.212000000000000022,65.524291414023949187
0.213000000000000023,63.984027777615281707
0.214000000000000024,62.459499406174018077
0.215000000000000024,60.951440064675466601
0.216000000000000025,59.460502772460110066
0.217000000000000026,57.987199969613982375
0.218000000000000027,56.531874555716058239
0.219000000000000028,55.094694873670036372
0.220000000000000029,53.675666935784001055
0.221000000000000030,52.274657926707845945
0.222000000000000031,50.891425993524173066
0.223000000000000032,49.525652370810838931
0.224000000000000032,48.176972880424180801
0.225000000000000033,46.845006732159930607
0.226000000000000034,45.529381304302539490
0.227000000000000035,44.229752195086270206
0.228000000000000036,42.945818312793754501
0.229000000000000037,41.677332126488394692
0.230000000000000038,40.424105447678563507
0.231000000000000039,39.186011273137822286
0.232000000000000040,37.962982307811408589
0.233000000000000040,36.755006820017641189
0.234000000000000041,35.562122472950818519
0.235000000000000042,34.384408738722790133
0.236000000000000043,33.221978443720914242
0.237000000000000044,32.074968924884835531
0.238000000000000045,30.943533201852222447
0.239000000000000046,29.827831494544106761
0.240000000000000047,28.728023343103775034
0.241000000000000048,27.644260519577112944
0.242000000000000048,26.576680859857511052
0.243000000000000049,25.525403091067936145
0.244000000000000050,24.490522684052049129
0.245000000000000051,23.472108722914960310
0.246000000000000052,22.470201753258397304
0.247000000000000053,21.484812547337906352
0.248000000000000054,20.515921707175056810
0.249000000000000055,19.563480014954805597
0.250000000000000056,18.627409433078021550
0.251000000000000056,17.707604653284288787
0.252000000000000057,16.803935094606892164
0.253000000000000058,15.916247252919358601
0.254000000000000059,15.044367309883872608
0.255000000000000060,14.188103915692597212
0.256000000000000061,13.347251067637760258
0.257000000000000062,12.521591014861288116
0.258000000000000063,11.710897128284443625
0.259000000000000064,10.914936683427322706
0.260000000000000064,10.133473512374402858
0.261000000000000065,9.366270489352549689
0.262000000000000066,8.613091822126776265
0.263000000000000067,7.873705128595472225
0.264000000000000068,7.147883284514295887
0.265000000000000069,6.435406034159422362
0.266000000000000070,5.736061360944542109
0.267000000000000071,5.049646619530508751
0.268000000000000071,4.375969434833772098
0.269000000000000072,3.714848376574690469
0.270000000000000073,3.066113420648258092
0.271000000000000074,2.429606210689865708
0.272000000000000075,1.805180134792379931
0.273000000000000076,1.192700233458881209
0.274000000000000077,0.592042955594052733
0.275000000000000078,0.003095779696947076
0.276000000000000079,-0.574243282534791288
0.277000000000000079,-1.140066283200845243
0.278000000000000080,-1.694456019250168755
0.279000000000000081,-2.237486781677691550
0.280000000000000082,-2.769225157734209741
0.281000000000000083,-3.289730871915706789
0.282000000000000084,-3.799057652481105940
0.283000000000000085,-4.297254111290703449
0.284000000000000086,-4.784364625838016138
0.285000000000000087,-5.260430213442393033
0.286000000000000087,-5.725489388665055301
0.287000000000000088,-6.179578996088959997
0.288000000000000089,-6.622735011652125081
0.289000000000000090,-7.054993306735347858
0.290000000000000091,-7.476390370167948163
0.291000000000000092,-7.886963984226906810
0.292000000000000093,-8.286753851557154604
0.293000000000000094,-8.675802170732879404
0.294000000000000095,-9.054154158908994887
0.295000000000000095,-9.421858520678238591
0.296000000000000096,-9.778967862851034809
0.297000000000000097,-10.125539055415917034
0.298000000000000098,-10.461633539416776983
0.299000000000000099,-10.787317582904154989
0.300000000000000100,-11.102662486481204240
0.301000000000000101,-11.407744740276545059
0.302000000000000102,-11.702646134435630287
0.303000000000000103,-11.987453825437166088
0.304000000000000103,-12.262260360709744234
0.305000000000000104,-12.527163664154377543
0.306000000000000105,-12.782266985271544257
0.307000000000000106,-13.027678814650553107
0.308000000000000107,-13.263512768608956449
0.309000000000000108,-13.489887445771861607
0.310000000000000109,-13.706926258360194737
0.311000000000000110,-13.914757240913777636
0.312000000000000111,-14.113512839115681885
0.313000000000000111,-14.303329681307198840
0.314000000000000112,-14.484348335193967472
0.315000000000000113,-14.656713052143413023
0.316000000000000114,-14.820571501364415923
0.317000000000000115,-14.976074496143997550
0.318000000000000116,-15.123375714194617458
0.319000000000000117,-15.262631414040317424
0.320000000000000118,-15.394000149242856423
0.321000000000000119,-15.517642482140825422
0.322000000000000119,-15.633720698646362379
0.323000000000000120,-15.742398525516989594
0.324000000000000121,-15.843840851395555092
0.325000000000000122,-15.938213452788451363
0.326000000000000123,-16.025682726033707581
0.327000000000000124,-16.106415426195081153
0.328000000000000125,-16.180578413708371244
0.329000000000000126,-16.248338409499211821
0.330000000000000127,-16.309861759191306874
0.331000000000000127,-16.365314206927841667
0.332000000000000128,-16.414860679238259422
0.333000000000000129,-16.458665079297670530
0.334000000000000130,-16.496890091845905602
0.335000000000000131,-16.529696998959703791
0.336000000000000132,-16.557245506801720580
0.337000000000000133,-16.579693583406886148
0.338000000000000134,-16.597197307508249509
0.339000000000000135,-16.609910728350470777
0.340000000000000135,-16.617985736391197804
0.341000000000000136,-16.621571944746243332
0.342000000000000137,-16.620816581195352768
0.343000000000000138,-16.615864390530362016
0.344000000000000139,-16.606857546996462105
0.345000000000000140,-16.593935576550684630
0.346000000000000141,-16.577235288637947264
0.347000000000000142,-16.556890717165533289
0.348000000000000143,-16.533033070340248827
0.349000000000000143,-16.505790689018891015
0.350000000000000144,-16.475289013212051970
0.351000000000000145,-16.441650556373318182
0.352000000000000146,-16.404994887100126988
0.353000000000000147,-16.365438617869301652
0.354000000000000148,-16.323095400428986324
0.355000000000000149,-16.278075927469053852
0.356000000000000150,-16.230487940194436192
0.357000000000000151,-16.180436241429525523
0.358000000000000151,-16.128022713886878137
0.359000000000000152,-16.073346343239808931
0.360000000000000153,-16.016503245645818510
0.361000000000000154,-15.957586699376269834
0.362000000000000155,-15.896687180216648727
0.363000000000000156,-15.833892400311910365
0.364000000000000157,-15.769287350141434345
0.365000000000000158,-15.702954343319612818
0.366000000000000159,-15.634973063928811143
0.367000000000000159,-15.565420616103466500
0.368000000000000160,-15.494371575595852875
0.369000000000000161,-15.421898043065880302
0.370000000000000162,-15.348069698849570841
0.371000000000000163,-15.272953858972934782
0.372000000000000164,-15.196615532189719389
0.373000000000000165,-15.119117477834077334
0.374000000000000166,-15.040520264290416108
0.375000000000000167,-14.960882327894774235
0.376000000000000167,-14.880260032093403311
0.377000000000000168,-14.798707726695500497
0.378000000000000169,-14.716277807067848826
0.379000000000000170,-14.633020773130189340
0.380000000000000171,-14.548985288020009676
0.381000000000000172,-14.464218236305935505
0.382000000000000173,-14.378764781638285086
0.383000000000000174,-14.292668423735033656
0.384000000000000175,-14.205971054610126103
0.385000000000000175,-14.118713013959915514
0.386000000000000176,-14.030933143631816762
0.387000000000000177,-13.942668841106918620
0.388000000000000178,-13.853956111936309270
0.389000000000000179,-13.764829621077433686
0.390000000000000180,-13.675322743084276311
0.391000000000000181,-13.585467611111047503
0.392000000000000182,-13.495295164695596313
0.393000000000000183,-13.404835196294220268
0.394000000000000183,-13.314116396545149001
0.395000000000000184,-13.223166398242991448
0.396000000000000185,-13.132011819011221831
0.397000000000000186,-13.040678302664193922
0.398000000000000187,-12.949190559254395438
0.399000000000000188,-12.857572403804407912
0.400000000000000189,-12.765846793726698394
0.401000000000000190,-12.674035864937520657
0.402000000000000191,-12.582160966674550195
0.403000000000000191,-12.490242695030165265
0.404000000000000192,-12.398300925215298918
0.405000000000000193,-12.306354842570780050
0.406000000000000194,-12.214422972345310825
0.407000000000000195,-12.122523208261114291
0.408000000000000196,-12.030672839889779979
0.409000000000000197,-11.938888578862595580
0.410000000000000198,-11.847186583940786164
0.411000000000000199,-11.755582484972153523
0.412000000000000199,-11.664091405761833897
0.413000000000000200,-11.572727985885460811
0.414000000000000201,-11.481506401473913215
0.415000000000000202,-11.390440384999182655
0.416000000000000203,-11.299543244091555749
0.417000000000000204,-11.208827879418373996
0.418000000000000205,-11.118306801655062799
0.419000000000000206,-11.027992147579150028
0.420000000000000207,-10.937895695317822131
0.421000000000000207,-10.848028878779979678
0.422000000000000208,-10.758402801302928253
0.423000000000000209,-10.669028248544318416
0.424000000000000210,-10.579915700649149102
0.425000000000000211,-10.491075343721487201
0.426000000000000212,-10.402517080630310886
0.427000000000000213,-10.314250541178070719
0.428000000000000214,-10.226285091660455961
0.429000000000000214,-10.138629843845055944
0.430000000000000215,-10.051293663396121403
0.431000000000000216,-9.964285177772143953
0.432000000000000217,-9.877612783622115700
0.433000000000000218,-9.791284653705853103
0.434000000000000219,-9.705308743363149304
0.435000000000000220,-9.619692796555622039
0.436000000000000221,-9.534444351504678394
0.437000000000000222,-9.449570745948047801
0.438000000000000222,-9.365079122036947368
0.439000000000000223,-9.280976430894922302
0.440000000000000224,-9.197269436858849900
0.441000000000000225,-9.113964721421771387
0.442000000000000226,-9.031068686896791320
0.443000000000000227,-8.948587559819973336
0.444000000000000228,-8.866527394110184090
0.445000000000000229,-8.784894074002563613
0.446000000000000230,-8.703693316771810018
0.447000000000000230,-8.622930675260924716
0.448000000000000231,-8.542611540230145906
0.449000000000000232,-8.462741142540181727
0.450000000000000233,-8.383324555183442328
0.451000000000000234,-8.304366695175954050
0.452000000000000235,-8.225872325322360012
0.453000000000000236,-8.147846055865503700
0.454000000000000237,-8.070292346031815001
0.455000000000000238,-7.993215505482777594
0.456000000000000238,-7.916619695682558522
0.457000000000000239,-7.840508931190969477
0.458000000000000240,-7.764887080890798821
0.459000000000000241,-7.689757869157533676
0.460000000000000242,-7.615124876979599833
0.461000000000000243,-7.540991543036118294
0.462000000000000244,-7.467361164739351409
0.463000000000000245,-7.394236899247870198
0.464000000000000246,-7.321621764456793358
0.465000000000000246,-7.249518639970363942
0.466000000000000247,-7.177930268062143071
0.467000000000000248,-7.106859254627505784
0.468000000000000249,-7.036308070132936798
0.469000000000000250,-6.966279050566045683
0.470000000000000251,-6.896774398390064675
0.471000000000000252,-6.827796183506130490
0.472000000000000253,-6.759346344226540459
0.473000000000000254,-6.691426688261591593
0.474000000000000254,-6.624038893722612897
0.475000000000000255,-6.557184510143289735
0.476000000000000256,-6.490864959521343458
0.477000000000000257,-6.425081537382266283
0.478000000000000258,-6.359835413866489873
0.479000000000000259,-6.295127634841444220
0.480000000000000260,-6.230959123039447434
0.481000000000000261,-6.167330679222286172
0.482000000000000262,-6.104242983373305620
0.483000000000000262,-6.041696595917428247
0.484000000000000263,-5.979691958969477028
0.485000000000000264,-5.918229397611065146
0.486000000000000265,-5.857309121196088597
0.487000000000000266,-5.796931224684771067
0.488000000000000267,-5.737095690006059456
0.489000000000000268,-5.677802387448167565
0.490000000000000269,-5.619051077076722578
0.491000000000000270,-5.560841410180207944
0.492000000000000270,-5.503172930741909497
0.493000000000000271,-5.446045076937915397
0.494000000000000272,-5.389457182660278178
0.495000000000000273,-5.333408479064578600
0.496000000000000274,-5.277898096141102613
0.497000000000000275,-5.222925064308558518
0.498000000000000276,-5.168488316029519858
0.499000000000000277,-5.114586687446494473
0.500000000000000222,-5.061218920037569902
0.501000000000000334,-5.008383662290585292
0.502000000000000224,-4.956079471394747138
0.503000000000000336,-4.904304814948392988
0.504000000000000226,-4.853058072682027380
0.505000000000000338,-4.802337538195106781
0.506000000000000227,-4.752141420705784824
0.507000000000000339,-4.702467846812033336
0.508000000000000229,-4.653314862263282059
0.509000000000000341,-4.604680433741076939
0.510000000000000231,-4.556562450647914986
0.511000000000000343,-4.508958726902640990
0.512000000000000233,-4.461867002741635169
0.513000000000000345,-4.415284946524230314
0.514000000000000234,-4.369210156541621259
0.515000000000000346,-4.323640162827611988
0.516000000000000236,-4.278572428970548458
0.517000000000000348,-4.234004353924955666
0.518000000000000238,-4.189933273822012971
0.519000000000000350,-4.146356463777605583
0.520000000000000240,-4.103271139697047154
0.521000000000000352,-4.060674460075313519
0.522000000000000242,-4.018563527791878087
0.523000000000000353,-3.976935391899041772
0.524000000000000243,-3.935787049402907023
0.525000000000000355,-3.895115447035967016
0.526000000000000245,-3.854917483020491087
0.527000000000000357,-3.815190008821676138
0.528000000000000247,-3.775929830889921845
0.529000000000000359,-3.737133712391148777
0.530000000000000249,-3.698798374924601173
0.531000000000000361,-3.660920500227154317
0.532000000000000250,-3.623496731863579789
0.533000000000000362,-3.586523676901859581
0.534000000000000252,-3.549997907573030353
0.535000000000000364,-3.513915962914793134
0.536000000000000254,-3.478274350398366188
0.537000000000000366,-3.443069547537801700
0.538000000000000256,-3.408298003481486038
0.539000000000000368,-3.373956140584936314
0.540000000000000258,-3.340040355964743579
0.541000000000000369,-3.306547023032820221
0.542000000000000259,-3.273472493010837869
0.543000000000000371,-3.240813096424134621
0.544000000000000261,-3.208565144574905048
0.545000000000000373,-3.176724930994160090
0.546000000000000263,-3.145288732872234316
0.547000000000000375,-3.114252812467305898
0.548000000000000265,-3.083613418491975455
0.549000000000000377,-3.053366787477222122
0.550000000000000266,-3.023509145113843388
0.551000000000000378,-2.994036707570926215
0.552000000000000268,-2.964945682791260140
0.553000000000000380,-2.936232271763449031
0.554000000000000270,-2.907892669770656191
0.555000000000000382,-2.879923067615684396
0.556000000000000272,-2.852319652822521867
0.557000000000000384,-2.825078610813942070
0.558000000000000274,-2.798196126065447320
0.559000000000000385,-2.771668383235131650
0.560000000000000275,-2.745491568269765370
0.561000000000000387,-2.719661869486807770
0.562000000000000277,-2.694175478632529153
0.563000000000000389,-2.669028591916162263
0.564000000000000279,-2.644217411020176822
0.565000000000000391,-2.619738144086663389
0.566000000000000281,-2.595587006679949127
0.567000000000000393,-2.571760222725456124
0.568000000000000282,-2.548254025425015890
0.569000000000000394,-2.525064658148552077
0.570000000000000284,-2.502188375302465850
0.571000000000000396,-2.479621443174669260
0.572000000000000286,-2.457360140756585487
0.573000000000000398,-2.435400760542055565
0.574000000000000288,-2.413739609303544587
0.575000000000000400,-2.392373008845660287
0.576000000000000290,-2.371297296736240234
0.577000000000000401,-2.350508827015176827
0.578000000000000291,-2.330003970881216357
0.579000000000000403,-2.309779117356884903
0.580000000000000293,-2.289830673931841254
0.581000000000000405,-2.270155067184790543
0.582000000000000295,-2.250748743384298756
0.583000000000000407,-2.231608169068642233
0.584000000000000297,-2.212729831605016795
0.585000000000000409,-2.194110239728328082
0.586000000000000298,-2.175745924059833136
0.587000000000000410,-2.157633437605871229
0.588000000000000300,-2.139769356237006814
0.589000000000000412,-2.122150279147767549
0.590000000000000302,-2.104772829297351766
0.591000000000000414,-2.087633653831536762
0.592000000000000304,-2.070729424486056569
0.593000000000000416,-2.054056837971750760
0.594000000000000306,-2.037612616341808902
0.595000000000000417,-2.021393507341337603
0.596000000000000307,-2.005396284739577872
0.597000000000000419,-1.989617748645065687
0.598000000000000309,-1.974054725804058608
0.599000000000000421,-1.958704069882425403
0.600000000000000311,-1.943562661731450092
0.601000000000000423,-1.928627409637694301
0.602000000000000313,-1.913895249557360456
0.603000000000000425,-1.899363145335285052
0.604000000000000314,-1.885028088909086019
0.605000000000000426,-1.870887100498502154
0.606000000000000316,-1.856937228780477955
0.607000000000000428,-1.843175551050061589
0.608000000000000318,-1.829599173367620679
0.609000000000000430,-1.816205230692488737
0.610000000000000320,-1.802990887003482978
0.611000000000000432,-1.789953335406478718
0.612000000000000322,-1.777089798229412709
0.613000000000000433,-1.764397527104934138
0.614000000000000323,-1.751873803041065214
0.615000000000000435,-1.739515936480088953
0.616000000000000325,-1.727321267345993672
0.617000000000000437,-1.715287165080733089
0.618000000000000327,-1.703411028669605143
0.619000000000000439,-1.691690286655979536
0.620000000000000329,-1.680122397145711544
0.621000000000000441,-1.668704847801464997
0.622000000000000330,-1.657435155827239104
0.623000000000000442,-1.646310867943345357
0.624000000000000332,-1.635329560352120737
0.625000000000000444,-1.624488838694620352
0.626000000000000334,-1.613786337998559528
0.627000000000000446,-1.603219722617740262
0.628000000000000336,-1.592786686163244481
0.629000000000000448,-1.582484951426603281
0.630000000000000338,-1.572312270295229464
0.631000000000000449,-1.562266423660310322
0.632000000000000339,-1.552345221317441570
0.633000000000000451,-1.542546501860196262
0.634000000000000341,-1.532868132566898911
0.635000000000000453,-1.523308009280807784
0.636000000000000343,-1.513864056283919401
0.637000000000000455,-1.504534226164664146
0.638000000000000345,-1.495316499679659517
0.639000000000000457,-1.486208885609737740
0.640000000000000346,-1.477209420610519963
0.641000000000000458,-1.468316169057648723
0.642000000000000348,-1.459527222886968456
0.643000000000000460,-1.450840701429786828
0.644000000000000350,-1.442254751243476019
0.645000000000000462,-1.433767545937534749
0.646000000000000352,-1.425377285995375498
0.647000000000000464,-1.417082198591943065
0.648000000000000353,-1.408880537407447786
0.649000000000000465,-1.400770582437256273
0.650000000000000355,-1.392750639798267631
0.651000000000000467,-1.384819041531800465
0.652000000000000357,-1.376974145403292216
0.653000000000000469,-1.369214334698844127
0.654000000000000359,-1.361538018018910279
0.655000000000000471,-1.353943629069143118
0.656000000000000361,-1.346429626448693684
0.657000000000000473,-1.338994493435984534
0.658000000000000362,-1.331636737772223800
0.659000000000000474,-1.324354891442689919
0.660000000000000364,-1.317147510456041504
