# C-amorph-3_NC4-JS
# h[nm],U(h)[kJ/mol]
0.149999999999999994,155.068227050237794629
0.150999999999999995,152.483509204951189986
0.151999999999999996,149.533440446578055116
0.152999999999999997,146.507683028196368014
0.153999999999999998,143.540654870922992359
0.154999999999999999,140.678609020689151521
0.156000000000000000,137.922745934325291728
0.157000000000000001,135.255463893246485441
0.158000000000000002,132.655170309757465930
0.159000000000000002,130.103654651336569259
0.160000000000000003,127.588878796162561002
0.161000000000000004,125.105153476026544013
0.162000000000000005,122.652004563147784211
0.163000000000000006,120.232550163325555559
0.164000000000000007,117.851870181804656568
0.165000000000000008,115.515620146101326782
0.166000000000000009,113.228992122728783443
0.167000000000000010,110.996034700518563909
0.168000000000000010,108.819293490064026741
0.169000000000000011,106.699710029162218916
0.170000000000000012,104.636710581118308028
0.171000000000000013,102.628420084010372193
0.172000000000000014,100.671945643052069386
0.173000000000000015,98.763685268499799008
0.174000000000000016,96.899629046181075864
0.175000000000000017,95.075630424384513617
0.176000000000000018,93.287634223506046283
0.177000000000000018,91.531855117416625944
0.178000000000000019,89.804905729195965591
0.179000000000000020,88.103877296081492432
0.180000000000000021,86.426378323608389564
0.181000000000000022,84.770538022597833105
0.182000000000000023,83.134981853234833693
0.183000000000000024,81.518786412606630165
0.184000000000000025,79.921420388628419573
0.185000000000000026,78.342677522887271380
0.186000000000000026,76.782606602883646474
0.187000000000000027,75.241442535431758643
0.188000000000000028,73.719541606239332054
0.189000000000000029,72.217323152600769731
0.190000000000000030,70.735219095626149510
0.191000000000000031,69.273632110604182799
0.192000000000000032,67.832902663678936506
0.193000000000000033,66.413284707253097849
0.194000000000000034,65.014929497602807373
0.195000000000000034,63.637876765112295629
0.196000000000000035,62.282052317666078523
0.197000000000000036,60.947271077849578091
0.198000000000000037,59.633244531728472282
0.199000000000000038,58.339591588905690855
0.200000000000000039,57.065851909227205851
0.201000000000000040,55.811500831175713699
0.202000000000000041,54.575965132305135796
0.203000000000000042,53.358638956061000158
0.204000000000000042,52.158899346344320236
0.205000000000000043,50.976120936771231129
0.206000000000000044,49.809689442379493585
0.207000000000000045,48.659013695117515397
0.208000000000000046,47.523536049187384833
0.209000000000000047,46.402741057241755129
0.210000000000000048,45.296162383131985507
0.211000000000000049,44.203387971380017518
0.212000000000000050,43.124063538127124673
0.213000000000000050,42.057894483578515121
0.214000000000000051,41.004646352646190621
0.215000000000000052,39.964143989442376892
0.216000000000000053,38.936269543389087744
0.217000000000000054,37.920959490900855826
0.218000000000000055,36.918200837764764799
0.219000000000000056,35.928026664346354835
0.220000000000000057,34.950511169390473754
0.221000000000000058,33.985764359209269969
0.222000000000000058,33.033926518108316372
0.223000000000000059,32.095162583595353567
0.224000000000000060,31.169656536750800058
0.225000000000000061,30.257605904555322951
0.226000000000000062,29.359216457336714257
0.227000000000000063,28.474697171117128391
0.228000000000000064,27.604255511758100994
0.229000000000000065,26.748093085598604546
0.230000000000000066,25.906401689907873731
0.231000000000000066,25.079359786020557266
0.232000000000000067,24.267129408556144199
0.233000000000000068,23.469853515672497224
0.234000000000000069,22.687653777873954652
0.235000000000000070,21.920628796469429744
0.236000000000000071,21.168852737323952340
0.237000000000000072,20.432374361019498110
0.238000000000000073,19.711216426884256236
0.239000000000000073,19.005375445500373388
0.240000000000000074,18.314821752186833947
0.241000000000000075,17.639499872514058154
0.242000000000000076,16.979329150062064002
0.243000000000000077,16.334204606318909470
0.244000000000000078,15.703998002761517583
0.245000000000000079,15.088559075701116541
0.246000000000000080,14.487716915350549840
0.247000000000000081,13.901281461719610988
0.248000000000000081,13.329045091318135974
0.249000000000000082,12.770784270192852006
0.250000000000000111,12.226261250499627309
0.251000000000000112,11.695225789578913123
0.252000000000000113,11.177416872321208174
0.253000000000000114,10.672564419454754869
0.254000000000000115,10.180390966226166682
0.255000000000000115,9.700613297760313003
0.256000000000000116,9.232944029153191678
0.257000000000000117,8.777093120058442111
0.258000000000000118,8.332769315160799550
0.259000000000000119,7.899681503476367439
0.260000000000000120,7.477539990874367604
0.261000000000000121,7.066057681572033289
0.262000000000000122,6.664951165608812289
0.263000000000000123,6.273941710458406540
0.264000000000000123,5.892756155984751665
0.265000000000000124,5.521127712893913575
0.266000000000000125,5.158796665678540450
0.267000000000000126,4.805510981799041126
0.268000000000000127,4.461026829498482726
0.269000000000000128,4.125109007212432566
0.270000000000000129,3.797531288013289874
0.271000000000000130,3.478076682927176311
0.272000000000000131,3.166537627285832990
0.273000000000000131,2.862716094530310063
0.274000000000000132,2.566423642074130651
0.275000000000000133,2.277481393965767875
0.276000000000000134,1.995719965169266974
0.277000000000000135,1.720979332313310461
0.278000000000000136,1.453108655746599309
0.279000000000000137,1.191966057687884994
0.280000000000000138,0.937418361175488490
0.281000000000000139,0.689340794408386470
0.282000000000000139,0.447616664933644159
0.283000000000000140,0.212137007976046787
0.284000000000000141,-0.017199786970209584
0.285000000000000142,-0.240488367358593885
0.286000000000000143,-0.457816822888478803
0.287000000000000144,-0.669267101366671224
0.288000000000000145,-0.874915431830861179
0.289000000000000146,-1.074832751852007329
0.290000000000000147,-1.269085136154565419
0.291000000000000147,-1.457734223912964699
0.292000000000000148,-1.640837642302094057
0.293000000000000149,-1.818449424093907751
0.294000000000000150,-1.990620417303130552
0.295000000000000151,-2.157398685089670032
0.296000000000000152,-2.318829894323448215
0.297000000000000153,-2.474957691408172789
0.298000000000000154,-2.625824064143546188
0.299000000000000155,-2.771469688579748958
0.300000000000000155,-2.911934259983866013
0.301000000000000156,-3.047256807194359318
0.302000000000000157,-3.177475989787569510
0.303000000000000158,-3.302630377617925994
0.304000000000000159,-3.422758712423051186
0.305000000000000160,-3.537900151304113283
0.306000000000000161,-3.648094492002935230
0.307000000000000162,-3.753382379998873031
0.308000000000000163,-3.853805497541478164
0.309000000000000163,-3.949406734819726150
0.310000000000000164,-4.040230343544996217
0.311000000000000165,-4.126322073293408721
0.312000000000000166,-4.207729291014469020
0.313000000000000167,-4.284501084166579155
0.314000000000000168,-4.356688347987090815
0.315000000000000169,-4.424343857445111716
0.316000000000000170,-4.487522324459805922
0.317000000000000171,-4.546280440995354333
0.318000000000000171,-4.600676908667248100
0.319000000000000172,-4.650772455512795389
0.320000000000000173,-4.696629840592233762
0.321000000000000174,-4.738313847096067732
0.322000000000000175,-4.775891264639646749
0.323000000000000176,-4.809430861427427928
0.324000000000000177,-4.839003346967695407
0.325000000000000178,-4.864681326013533536
0.326000000000000179,-4.886539244398620419
0.327000000000000179,-4.904653327425943843
0.328000000000000180,-4.919101511455445497
0.329000000000000181,-4.929963369322692301
0.330000000000000182,-4.937320030203980359
0.331000000000000183,-4.941254094526749796
0.332000000000000184,-4.941849544504668401
0.333000000000000185,-4.939191650857417848
0.334000000000000186,-4.933366876254306810
0.335000000000000187,-4.924462775999367103
0.336000000000000187,-4.912567896453748695
0.337000000000000188,-4.897771671668424531
0.338000000000000189,-4.880164318677941537
0.339000000000000190,-4.859836731882749561
0.340000000000000191,-4.836880376924662883
0.341000000000000192,-4.811387184437488251
0.342000000000000193,-4.783449444031612430
0.343000000000000194,-4.753159698849394488
0.344000000000000195,-4.720610641005413832
0.345000000000000195,-4.685895008204513879
0.346000000000000196,-4.649105481808557983
0.347000000000000197,-4.610334586602382601
0.348000000000000198,-4.569674592488995657
0.349000000000000199,-4.527217418324148035
0.350000000000000200,-4.483054538081572282
0.351000000000000201,-4.437276889521352352
0.352000000000000202,-4.389974785516295164
0.353000000000000203,-4.341237828173904134
0.354000000000000203,-4.291154825875119094
0.355000000000000204,-4.239813713335109924
0.356000000000000205,-4.187301474776551125
0.357000000000000206,-4.133704070291336130
0.358000000000000207,-4.079106365452931371
0.359000000000000208,-4.023592064228841636
0.360000000000000209,-3.967243645230329463
0.361000000000000210,-3.910142301324858405
0.362000000000000210,-3.852367882626035023
0.363000000000000211,-3.793998842865458521
0.364000000000000212,-3.735112189141453598
0.365000000000000213,-3.675783435030557378
0.366000000000000214,-3.616086557039550620
0.367000000000000215,-3.556093954367850252
0.368000000000000216,-3.495876411943238615
0.369000000000000217,-3.435503066687073837
0.370000000000000218,-3.375041376959333483
0.371000000000000218,-3.314557095128146891
0.372000000000000219,-3.254114243203679813
0.373000000000000220,-3.193775091471583671
0.374000000000000221,-3.133600140057321681
0.375000000000000222,-3.073648103348806782
0.376000000000000223,-3.013975897202092469
0.377000000000000224,-2.954638628851538495
0.378000000000000225,-2.895689589443918965
0.379000000000000226,-2.837180249113642638
0.380000000000000226,-2.779160254514767114
0.381000000000000227,-2.721677428723904502
0.382000000000000228,-2.664777773427320806
0.383000000000000229,-2.608505473304585820
0.384000000000000230,-2.552902902520609363
0.385000000000000231,-2.498010633237893963
0.386000000000000232,-2.443867446060511206
0.387000000000000233,-2.390510342321778836
0.388000000000000234,-2.337974558127814184
0.389000000000000234,-2.286293580070021925
0.390000000000000235,-2.235499162519979599
0.391000000000000236,-2.185621346421562361
0.392000000000000237,-2.136688479495774118
0.393000000000000238,-2.088727237775418466
0.394000000000000239,-2.041762648387707824
0.395000000000000240,-1.995818113504635560
0.396000000000000241,-1.950915435382344354
0.397000000000000242,-1.907074842412384452
0.398000000000000242,-1.864315016109568734
0.399000000000000243,-1.822653118962785701
0.400000000000000244,-1.782104823077016009
0.401000000000000245,-1.742684339536902272
0.402000000000000246,-1.704404448423761709
0.403000000000000247,-1.667276529420307352
0.404000000000000248,-1.631310592939146265
0.405000000000000249,-1.596515311713190721
0.406000000000000250,-1.562898052788161518
0.407000000000000250,-1.530464909859473588
0.408000000000000251,-1.499220735897748069
0.409000000000000252,-1.469169176009401001
0.410000000000000253,-1.440312700480631314
0.411000000000000254,-1.412652637955378321
0.412000000000000255,-1.386189208699631248
0.413000000000000256,-1.360921557906733081
0.414000000000000257,-1.336847789000026321
0.415000000000000258,-1.313964996891463732
0.416000000000000258,-1.292269301156433459
0.417000000000000259,-1.271755879087261176
0.418000000000000260,-1.252418998589470034
0.419000000000000261,-1.234252050886903707
0.420000000000000262,-1.217247583003517208
0.421000000000000263,-1.201397329991515273
0.422000000000000264,-1.186692246877098844
0.423000000000000265,-1.173122540296884786
0.424000000000000266,-1.160677699799800511
0.425000000000000266,-1.149346528790545774
0.426000000000000267,-1.139117175092657863
0.427000000000000268,-1.129977161110488737
0.428000000000000269,-1.121913413570930995
0.429000000000000270,-1.114912292827263673
0.430000000000000271,-1.108959621708700327
0.431000000000000272,-1.104040713900757753
0.432000000000000273,-1.100140401842694349
0.433000000000000274,-1.097243064129634238
0.434000000000000274,-1.095332652408172569
0.435000000000000275,-1.094392717755382716
0.436000000000000276,-1.094406436532338045
0.437000000000000277,-1.095356635704295423
0.438000000000000278,-1.097225817620719024
0.439000000000000279,-1.099996184249377951
0.440000000000000280,-1.103649660859631343
0.441000000000000281,-1.108167919150927938
0.442000000000000282,-1.113532399823593755
0.443000000000000282,-1.119724334589434100
0.444000000000000283,-1.126724767620994161
0.445000000000000284,-1.134514576438572231
0.446000000000000285,-1.143074492235111039
0.447000000000000286,-1.152385119639758981
0.448000000000000287,-1.162426955921338267
0.449000000000000288,-1.173180409633848065
0.450000000000000289,-1.184625818706485090
0.451000000000000290,-1.196743467981326692
0.452000000000000290,-1.209513606202371916
0.453000000000000291,-1.222916462459968212
0.454000000000000292,-1.236932262095310708
0.455000000000000293,-1.251541242069964310
0.456000000000000294,-1.266723665805846277
0.457000000000000295,-1.282459837501469746
0.458000000000000296,-1.298730115930563311
0.459000000000000297,-1.315514927729530825
0.460000000000000298,-1.332794780180545091
0.461000000000000298,-1.350550273497228115
0.462000000000000299,-1.368762112620315996
0.463000000000000300,-1.387411118530682996
0.464000000000000301,-1.406478239087598503
0.465000000000000302,-1.425944559399995537
0.466000000000000303,-1.445791311738924279
0.467000000000000304,-1.465999884999382941
0.468000000000000305,-1.486551833719893079
0.469000000000000306,-1.507428886668317425
0.470000000000000306,-1.528612955002510709
0.471000000000000307,-1.550086140014426794
0.472000000000000308,-1.571830740466473086
0.473000000000000309,-1.593829259528898534
0.474000000000000310,-1.616064411326989969
0.475000000000000311,-1.638519127107055384
0.476000000000000312,-1.661176561029953147
0.477000000000000313,-1.684020095601172384
0.478000000000000314,-1.707033346746237523
0.479000000000000314,-1.730200168540424244
0.480000000000000315,-1.753504657601509198
0.481000000000000316,-1.776931157154489016
0.482000000000000317,-1.800464260776910352
0.483000000000000318,-1.824088815833633692
0.484000000000000319,-1.847789926609625155
0.485000000000000320,-1.871552957149380969
0.486000000000000321,-1.895363533811531109
0.487000000000000322,-1.919207547547026049
0.488000000000000322,-1.943071155909263936
0.489000000000000323,-1.966940784804458442
0.490000000000000324,-1.990803129990390774
0.491000000000000325,-2.014645158331602737
0.492000000000000326,-2.038454108819026889
0.493000000000000327,-2.062217493361895748
0.494000000000000328,-2.085923097359679179
0.495000000000000329,-2.109558980061671196
0.496000000000000330,-2.133113474721746172
0.497000000000000330,-2.156575188555721390
0.498000000000000331,-2.179933002508479767
0.499000000000000332,-2.203176070838118061
0.500000000000000333,-2.226293820524106959
0.501000000000000334,-2.249275950506278043
0.502000000000000335,-2.272112430761520585
0.503000000000000336,-2.294793501224700272
0.504000000000000337,-2.317309670560389723
0.505000000000000338,-2.339651714791701309
0.506000000000000338,-2.361810675792512804
0.507000000000000339,-2.383777859649149899
0.508000000000000340,-2.405544834897483497
0.509000000000000341,-2.427103430641331272
0.510000000000000342,-2.448445734557762599
0.511000000000000343,-2.469564090794977851
0.512000000000000344,-2.490451097768122235
0.513000000000000345,-2.511099605858331252
0.514000000000000346,-2.531502715020288452
0.515000000000000346,-2.551653772303141388
0.516000000000000347,-2.571546369289863687
0.517000000000000348,-2.591174339459757725
0.518000000000000349,-2.610531755478761706
0.519000000000000350,-2.629612926422087327
0.520000000000000351,-2.648412394933605363
0.521000000000000352,-2.666924934326262431
0.522000000000000353,-2.685145545627634522
0.523000000000000353,-2.703069454574731800
0.524000000000000354,-2.720692108561900024
0.525000000000000355,-2.738009173545683073
0.526000000000000356,-2.755016530910244121
0.527000000000000357,-2.771710274297011445
0.528000000000000358,-2.788086706401962100
0.529000000000000359,-2.804142335743855519
0.530000000000000360,-2.819873873406706366
0.531000000000000361,-2.835278229759612412
0.532000000000000361,-2.850352511156961643
0.533000000000000362,-2.865094016621922979
0.534000000000000363,-2.879500234516063628
0.535000000000000364,-2.893568839197819820
0.536000000000000365,-2.907297687672405040
0.537000000000000366,-2.920684816235738612
0.538000000000000367,-2.933728437114759835
0.539000000000000368,-2.946426935106567058
0.540000000000000369,-2.958778864218506666
0.541000000000000369,-2.970782944311518126
0.542000000000000370,-2.982438057748674431
0.543000000000000371,-2.993743246051020712
0.544000000000000372,-3.004697706562557968
0.545000000000000373,-3.015300789126242442
0.546000000000000374,-3.025551992772712140
0.547000000000000375,-3.035450962423456911
0.548000000000000376,-3.044997485610010379
0.549000000000000377,-3.054191489210694943
0.550000000000000377,-3.063033036206393334
0.551000000000000378,-3.071522322456689658
0.552000000000000379,-3.079659673497772143
0.553000000000000380,-3.087445541363284640
0.554000000000000381,-3.094880501429330799
0.555000000000000382,-3.101965249284839743
0.556000000000000383,-3.108700597628196061
0.557000000000000384,-3.115087473191337608
0.558000000000000385,-3.121126913692100491
0.559000000000000385,-3.126820064815841071
0.560000000000000386,-3.132168177227083739
0.561000000000000387,-3.137172603612047084
0.562000000000000388,-3.141834795752720844
0.563000000000000389,-3.146156301633288965
0.564000000000000390,-3.150138762579413498
0.565000000000000391,-3.153783910431068982
0.566000000000000392,-3.157093564749444248
0.567000000000000393,-3.160069630058427670
0.568000000000000393,-3.162714093121117287
0.569000000000000394,-3.165029020251807879
0.570000000000000395,-3.167016554663860894
0.571000000000000396,-3.168678913853709922
0.572000000000000397,-3.170018387021464434
0.573000000000000398,-3.171037332528234831
0.574000000000000399,-3.171738175390521608
0.575000000000000400,-3.172123404811840519
0.576000000000000401,-3.172195571751738719
0.577000000000000401,-3.171957286532431475
0.578000000000000402,-3.171411216483057238
0.579000000000000403,-3.170560083621726477
0.580000000000000404,-3.169406662375425121
0.581000000000000405,-3.167953777337728205
0.582000000000000406,-3.166204301064460935
0.583000000000000407,-3.164161151907137537
0.584000000000000408,-3.161827291884307556
0.585000000000000409,-3.159205724590603559
0.586000000000000409,-3.156299493143500445
0.587000000000000410,-3.153111678167672682
0.588000000000000411,-3.149645395816764726
0.589000000000000412,-3.145903795832555083
0.590000000000000413,-3.141890059641218702
0.591000000000000414,-3.137607398486617516
0.592000000000000415,-3.133059051600411316
0.593000000000000416,-3.128248284408710056
0.594000000000000417,-3.123178386775145476
0.595000000000000417,-3.117852671280111121
0.596000000000000418,-3.112274471535804832
0.597000000000000419,-3.106447140537028861
0.598000000000000420,-3.100374049047250669
0.599000000000000421,-3.094058584019820035
0.600000000000000422,-3.087504147053936165
0.601000000000000423,-3.080714152885103196
0.602000000000000424,-3.073692027909780577
0.603000000000000425,-3.066441208743888591
0.604000000000000425,-3.058965140814795092
0.605000000000000426,-3.051267276986528998
0.606000000000000427,-3.043351076217859053
0.607000000000000428,-3.035220002252757787
0.608000000000000429,-3.026877522343162319
0.609000000000000430,-3.018327106003332538
0.610000000000000431,-3.009572223795763612
0.611000000000000432,-3.000616346148030189
0.612000000000000433,-2.991462942200313613
0.613000000000000433,-2.982115478683225795
