# C-amorph-3_CS-234-AC
# h[nm],U(h)[kJ/mol]
0.149999999999999994,114.195564910626558230
0.150999999999999995,111.390738719998239503
0.151999999999999996,108.641295686012014698
0.152999999999999997,105.956563060904130680
0.153999999999999998,103.343369772058480294
0.154999999999999999,100.803000930326447815
0.156000000000000000,98.331840125430915123
0.157000000000000001,95.923242835087222602
0.158000000000000002,93.569447658541122337
0.159000000000000002,91.263040185717514419
0.160000000000000003,88.997856276654900398
0.161000000000000004,86.769386518909755068
0.162000000000000005,84.574808368092476485
0.163000000000000006,82.412779688531060174
0.164000000000000007,80.283108129660874397
0.165000000000000008,78.186382431972248241
0.166000000000000009,76.123623463277652945
0.167000000000000010,74.095988716057348711
0.168000000000000010,72.104545528581894587
0.169000000000000011,70.150115329925313290
0.170000000000000012,68.233182970445682258
0.171000000000000013,66.353860671751462519
0.172000000000000014,64.511894312337119572
0.173000000000000015,62.706699783664873848
0.174000000000000016,60.937418303350128213
0.175000000000000017,59.202981325750798192
0.176000000000000018,57.502177667087572388
0.177000000000000018,55.833717409944753740
0.178000000000000019,54.196288916785668732
0.179000000000000020,52.588606783075796614
0.180000000000000021,51.009449768250846091
0.181000000000000022,49.457688661644034767
0.182000000000000023,47.932304695962272945
0.183000000000000024,46.432399549387355364
0.184000000000000025,44.957198219515177584
0.185000000000000026,43.506046148457073741
0.186000000000000026,42.078401965704188115
0.187000000000000027,40.673827126342025906
0.188000000000000028,39.291973584137757314
0.189000000000000029,37.932570473828185698
0.190000000000000030,36.595410601531035866
0.191000000000000031,35.280337369076406162
0.192000000000000032,33.987232595906199606
0.193000000000000033,32.716005556597096415
0.194000000000000034,31.466583426131336410
0.195000000000000034,30.238903219962377733
0.196000000000000035,29.032905231501196397
0.197000000000000036,27.848527904702287117
0.198000000000000037,26.685704032141597253
0.199000000000000038,25.544358137177503920
0.200000000000000039,24.424404880144130914
0.201000000000000040,23.325748320716161999
0.202000000000000041,22.248281869390382326
0.203000000000000042,21.191888768420344746
0.204000000000000042,20.156442954701564219
0.205000000000000043,19.141810172476603213
0.206000000000000044,18.147849220986710606
0.207000000000000045,17.174413240266499514
0.208000000000000046,16.221350956299328772
0.209000000000000047,15.288507824068357621
0.210000000000000048,14.375727023173174857
0.211000000000000049,13.482850275306805798
0.212000000000000050,12.609718465799589993
0.213000000000000050,11.756172062546056623
0.214000000000000051,10.922051334917028953
0.215000000000000052,10.107196382781129529
0.216000000000000053,9.311446991611981971
0.217000000000000054,8.534642333974460371
0.218000000000000055,7.776620540618305100
0.219000000000000056,7.037218166128178964
0.220000000000000057,6.316269574750328353
0.221000000000000058,5.613606271813400994
0.222000000000000058,4.929056205233635524
0.223000000000000059,4.262443060103928261
0.224000000000000060,3.613585567441327306
0.225000000000000061,2.982296845935895391
0.226000000000000062,2.368383793113901792
0.227000000000000063,1.771646539793266140
0.228000000000000064,1.191877979151128253
0.229000000000000065,0.628863379205462314
0.230000000000000066,0.082380085093104322
0.231000000000000066,-0.447802684757430902
0.232000000000000067,-0.961923946572435851
0.233000000000000068,-1.460230963234514290
0.234000000000000069,-1.942979161989678571
0.235000000000000070,-2.410431961011722635
0.236000000000000071,-2.862860509261163422
0.237000000000000072,-3.300543345150713570
0.238000000000000073,-3.723765980398147324
0.239000000000000073,-4.132820416121541385
0.240000000000000074,-4.528004598725897445
0.241000000000000075,-4.909621823454140888
0.242000000000000076,-5.277980093648205084
0.243000000000000077,-5.633391443801960108
0.244000000000000078,-5.976171234402757548
0.245000000000000079,-6.306637426368782329
0.246000000000000080,-6.625109842610205746
0.247000000000000081,-6.931909423889026201
0.248000000000000081,-7.227357485737949006
0.249000000000000082,-7.511774982736684869
0.250000000000000111,-7.785481785946906541
0.251000000000000112,-8.048795978784278660
0.252000000000000113,-8.302033176069919307
0.253000000000000114,-8.545505870458949715
0.254000000000000115,-8.779522809903479441
0.255000000000000115,-9.004388409272973348
0.256000000000000116,-9.220402198735957455
0.257000000000000117,-9.427858311006211522
0.258000000000000118,-9.627045009077967563
0.259000000000000119,-9.818244255622527561
0.260000000000000120,-10.001731324794587152
0.261000000000000121,-10.177774456801381930
0.262000000000000122,-10.346634555225271868
0.263000000000000123,-10.508564926757836488
0.264000000000000123,-10.663811062704283472
0.265000000000000124,-10.812610461348249657
0.266000000000000125,-10.955192490030423613
0.267000000000000126,-11.091778285586926245
0.268000000000000127,-11.222580691616304449
0.269000000000000128,-11.347804230893604682
0.270000000000000129,-11.467645111126984148
0.271000000000000130,-11.582291262153756151
0.272000000000000131,-11.691922402597949571
0.273000000000000131,-11.796710133957780897
0.274000000000000132,-11.896818060058228284
0.275000000000000133,-11.992401929788783832
0.276000000000000134,-12.083609801047995091
0.277000000000000135,-12.170582223832616009
0.278000000000000136,-12.253452440439343007
0.279000000000000137,-12.332346600788509861
0.280000000000000138,-12.407383990930956230
0.281000000000000139,-12.478677272860403846
0.282000000000000139,-12.546332733821753180
0.283000000000000140,-12.610450543380670396
0.284000000000000141,-12.671125016599486202
0.285000000000000142,-12.728444881748574247
0.286000000000000143,-12.782493551069190829
0.287000000000000144,-12.833349393192738930
0.288000000000000145,-12.881086005912303349
0.289000000000000146,-12.925772488092533763
0.290000000000000147,-12.967473709595498832
0.291000000000000147,-13.006250578189414213
0.292000000000000148,-13.042160302496659696
0.293000000000000149,-13.075256650123805002
0.294000000000000150,-13.105590200201561402
0.295000000000000151,-13.133208589644876696
0.296000000000000152,-13.158156752522504718
0.297000000000000153,-13.180477152002234575
0.298000000000000154,-13.200210004410763531
0.299000000000000155,-13.217393495017109473
0.300000000000000155,-13.232063985214557178
0.301000000000000156,-13.244256210838802446
0.302000000000000157,-13.254003471418789317
0.303000000000000158,-13.261337810212131316
0.304000000000000159,-13.266290184928561047
0.305000000000000160,-13.268890629092652489
0.306000000000000161,-13.269168404041817411
0.307000000000000162,-13.267152141596184833
0.308000000000000163,-13.262869977474419869
0.309000000000000163,-13.256349675563928514
0.310000000000000164,-13.247618743184574441
0.311000000000000165,-13.236704537512963498
0.312000000000000166,-13.223634363359238364
0.313000000000000167,-13.208435562510265626
0.314000000000000168,-13.191135594872434922
0.315000000000000169,-13.171762111663985806
0.316000000000000170,-13.150343020921193116
0.317000000000000171,-13.126906545594611231
0.318000000000000171,-13.101481274521376008
0.319000000000000172,-13.074096206567748624
0.320000000000000173,-13.044780788241501668
0.321000000000000174,-13.013564945078442747
0.322000000000000175,-12.980479107109605508
0.323000000000000176,-12.945554228716952494
0.324000000000000177,-12.908821803185052346
0.325000000000000178,-12.870313872254532939
0.326000000000000179,-12.830063030980827676
0.327000000000000179,-12.788102428197523963
0.328000000000000180,-12.744465762879293891
0.329000000000000181,-12.699187276694038573
0.330000000000000182,-12.652301743027155823
0.331000000000000183,-12.603844452754731975
0.332000000000000184,-12.553851197034299858
0.333000000000000185,-12.502358247374527167
0.334000000000000186,-12.449402333236545104
0.335000000000000187,-12.395020617410986929
0.336000000000000187,-12.339250669406226280
0.337000000000000188,-12.282130437073629281
0.338000000000000189,-12.223698216686839757
0.339000000000000190,-12.163992621682483630
0.340000000000000191,-12.103052550260038345
0.341000000000000192,-12.040917152029647852
0.342000000000000193,-11.977625793886492289
0.343000000000000194,-11.913218025281670620
0.344000000000000195,-11.847733543049406180
0.345000000000000195,-11.781212155942073494
0.346000000000000196,-11.713693749014650436
0.347000000000000197,-11.645218247991895311
0.348000000000000198,-11.575825583742551217
0.349000000000000199,-11.505555656976424572
0.350000000000000200,-11.434448303272009895
0.351000000000000201,-11.362543258534108404
0.352000000000000202,-11.289880124973235453
0.353000000000000203,-11.216498337690982368
0.354000000000000203,-11.142437131948245366
0.355000000000000204,-11.067735511186180375
0.356000000000000205,-10.992432215862978140
0.357000000000000206,-10.916565693163263973
0.358000000000000207,-10.840174067630311328
0.359000000000000208,-10.763295112765801420
0.360000000000000209,-10.685966223635947614
0.361000000000000210,-10.608224390517452917
0.362000000000000210,-10.530106173611647691
0.363000000000000211,-10.451647678850433110
0.364000000000000212,-10.372884534812966351
0.365000000000000213,-10.293851870767676715
0.366000000000000214,-10.214584295850247742
0.367000000000000215,-10.135115879384265725
0.368000000000000216,-10.055480132347760502
0.369000000000000217,-9.975709989985372061
0.370000000000000218,-9.895837795562940187
0.371000000000000218,-9.815895285258203984
0.372000000000000219,-9.735913574178786334
0.373000000000000220,-9.655923143496055516
0.374000000000000221,-9.575953828681246449
0.375000000000000222,-9.496034808827953810
0.376000000000000223,-9.416194597043467951
0.377000000000000224,-9.336461031889452755
0.378000000000000225,-9.256861269850981344
0.379000000000000226,-9.177421778811513775
0.380000000000000226,-9.098168332510276457
0.381000000000000227,-9.019126005957037506
0.382000000000000228,-8.940319171778757124
0.383000000000000229,-8.861771497471400139
0.384000000000000230,-8.783505943529549498
0.385000000000000231,-8.705544762425999394
0.386000000000000232,-8.627909498412847711
0.387000000000000233,-8.550620988115245069
0.388000000000000234,-8.473699361888712644
0.389000000000000234,-8.397164045910798791
0.390000000000000235,-8.321033764977444847
0.391000000000000236,-8.245326545974847932
0.392000000000000237,-8.170059721997137814
0.393000000000000238,-8.095249937080774671
0.394000000000000239,-8.020913151526309903
0.395000000000000240,-7.947064647778731228
0.396000000000000241,-7.873719036837712792
0.397000000000000242,-7.800890265169371673
0.398000000000000242,-7.728591622091778746
0.399000000000000243,-7.656835747606561604
0.400000000000000244,-7.585634640649574933
0.401000000000000245,-7.514999667734214128
0.402000000000000246,-7.444941571961161131
0.403000000000000247,-7.375470482369161473
0.404000000000000248,-7.306595923601943987
0.405000000000000249,-7.238326825866930214
0.406000000000000250,-7.170671535162057353
0.407000000000000250,-7.103637823747597224
0.408000000000000251,-7.037232900840569627
0.409000000000000252,-6.971463423510000368
0.410000000000000253,-6.906335507751803604
0.411000000000000254,-6.841854739722930567
0.412000000000000255,-6.778026187114912560
0.413000000000000256,-6.714854410647792982
0.414000000000000257,-6.652343475665828620
0.415000000000000258,-6.590496963817368048
0.416000000000000258,-6.529317984801700447
0.417000000000000259,-6.468809188166440904
0.418000000000000260,-6.408972775139716305
0.419000000000000261,-6.349810510481992409
0.420000000000000262,-6.291323734343054142
0.421000000000000263,-6.233513374110377647
0.422000000000000264,-6.176379956235573232
0.423000000000000265,-6.119923618026367862
0.424000000000000266,-6.064144119392208765
0.425000000000000266,-6.009040854531973785
0.426000000000000267,-5.954612863553121471
0.427000000000000268,-5.900858844011983351
0.428000000000000269,-5.847777162365567882
0.429000000000000270,-5.795365865325801558
0.430000000000000271,-5.743622691107562517
0.431000000000000272,-5.692545080562541493
0.432000000000000273,-5.642130188191307738
0.433000000000000274,-5.592374893026621940
0.434000000000000274,-5.543275809381343677
0.435000000000000275,-5.494829297454900896
0.436000000000000276,-5.447031473792659284
0.437000000000000277,-5.399878221592937066
0.438000000000000278,-5.353365200856960548
0.439000000000000279,-5.307487858377323064
0.440000000000000280,-5.262241437560996715
0.441000000000000281,-5.217620988083266909
0.442000000000000282,-5.173621375369442887
0.443000000000000282,-5.130237289901332431
0.444000000000000283,-5.087463256346088869
0.445000000000000284,-5.045293642505138010
0.446000000000000285,-5.003722668081246105
0.447000000000000286,-4.962744413262327292
0.448000000000000287,-4.922352827120399787
0.449000000000000288,-4.882541735824952767
0.450000000000000289,-4.843304850669729156
0.451000000000000290,-4.804635775912529105
0.452000000000000290,-4.766528016427750813
0.453000000000000291,-4.728974985171547019
0.454000000000000292,-4.691970010459878715
0.455000000000000293,-4.655506343059721885
0.456000000000000294,-4.619577163094102268
0.457000000000000295,-4.584175586761630505
0.458000000000000296,-4.549294672871521783
0.459000000000000297,-4.514927429195169317
0.460000000000000298,-4.481066818635524029
0.461000000000000298,-4.447705765215666851
0.462000000000000299,-4.414837159888158169
0.463000000000000300,-4.382453866166716061
0.464000000000000301,-4.350548725582129350
0.465000000000000302,-4.319114562964222692
0.466000000000000303,-4.288144191551888085
0.467000000000000304,-4.257630417933252254
0.468000000000000305,-4.227566046818233225
0.469000000000000306,-4.197943885645651463
0.470000000000000306,-4.168756749027336284
0.471000000000000307,-4.139997463031527047
0.472000000000000308,-4.111658869308152831
0.473000000000000309,-4.083733829058426856
0.474000000000000310,-4.056215226851381139
0.475000000000000311,-4.029095974289919724
0.476000000000000312,-4.002369013529163411
0.477000000000000313,-3.976027320649611507
0.478000000000000314,-3.950063908887973874
0.479000000000000314,-3.924471831728424398
0.480000000000000315,-3.899244185856955092
0.481000000000000316,-3.874374113981726708
0.482000000000000317,-3.849854807522143041
0.483000000000000318,-3.825679509169503945
0.484000000000000319,-3.801841515322011311
0.485000000000000320,-3.778334178397003917
0.486000000000000321,-3.755150909023174055
0.487000000000000322,-3.732285178115625435
0.488000000000000322,-3.709730518836521274
0.489000000000000323,-3.687480528444187833
0.490000000000000324,-3.665528870033391229
0.491000000000000325,-3.643869274169595052
0.492000000000000326,-3.622495540419880200
0.493000000000000327,-3.601401538783348677
0.494000000000000328,-3.580581211023631028
0.495000000000000329,-3.560028571906229011
0.496000000000000330,-3.539737710343310972
0.497000000000000330,-3.519702790448644869
0.498000000000000331,-3.499918052505164745
0.499000000000000332,-3.480377813847877810
0.500000000000000333,-3.461076469664531086
0.501000000000000334,-3.442008493716589790
0.502000000000000335,-3.423168438982997053
0.503000000000000336,-3.404550938229170320
0.504000000000000337,-3.386150704503580577
0.505000000000000338,-3.367962531564319129
0.506000000000000338,-3.349981294237988294
0.507000000000000339,-3.332201948713150674
0.508000000000000340,-3.314619532770637811
0.509000000000000341,-3.297229165952933805
0.510000000000000342,-3.280026049674741984
0.511000000000000343,-3.263005467276941740
0.512000000000000344,-3.246162784025970360
0.513000000000000345,-3.229493447060713063
0.514000000000000346,-3.212992985288926739
0.515000000000000346,-3.196657009235107871
0.516000000000000347,-3.180481210841771933
0.517000000000000348,-3.164461363226096946
0.518000000000000349,-3.148593320393616501
0.519000000000000350,-3.132873016910948216
0.520000000000000351,-3.117296467539214522
0.521000000000000352,-3.101859766829918819
0.522000000000000353,-3.086559088684960095
0.523000000000000353,-3.071390685882423366
0.524000000000000354,-3.056350889569792173
0.525000000000000355,-3.041436108726083720
0.526000000000000356,-3.026642829594492490
0.527000000000000357,-3.011967615087035366
0.528000000000000358,-2.997407104162578051
0.529000000000000359,-2.982958011179755342
0.530000000000000360,-2.968617125226090447
0.531000000000000361,-2.954381309424678470
0.532000000000000361,-2.940247500219734356
0.533000000000000362,-2.926212706642279393
0.534000000000000363,-2.912274009557179077
0.535000000000000364,-2.898428560892739370
0.536000000000000365,-2.884673582854021312
0.537000000000000366,-2.871006367121005987
0.538000000000000367,-2.857424274032670297
0.539000000000000368,-2.843924731758099789
0.540000000000000369,-2.830505235455564428
0.541000000000000369,-2.817163346420682224
0.542000000000000370,-2.803896691224495807
0.543000000000000371,-2.790702960842495806
0.544000000000000372,-2.777579909775448996
0.545000000000000373,-2.764525355162915865
0.546000000000000374,-2.751537175890278242
0.547000000000000375,-2.738613311690111463
0.548000000000000376,-2.725751762238700859
0.549000000000000377,-2.712950586248423779
0.550000000000000377,-2.700207900556738316
0.551000000000000378,-2.687521879212497744
0.552000000000000379,-2.674890752560276308
0.553000000000000380,-2.662312806323311687
0.554000000000000381,-2.649786380685738685
0.555000000000000382,-2.637309869374725668
0.556000000000000383,-2.624881718743017789
0.557000000000000384,-2.612500426852558899
0.558000000000000385,-2.600164542559611824
0.559000000000000385,-2.587872664601984507
0.560000000000000386,-2.575623440688774579
0.561000000000000387,-2.563415566593167494
0.562000000000000388,-2.551247785248688338
0.563000000000000389,-2.539118885849370066
0.564000000000000390,-2.527027702954222743
0.565000000000000391,-2.514973115596411457
0.566000000000000392,-2.502954046397511956
0.567000000000000393,-2.490969460687204595
0.568000000000000393,-2.479018365628711695
0.569000000000000394,-2.467099809350343786
0.570000000000000395,-2.455212880083443849
0.571000000000000396,-2.443356705306974241
0.572000000000000397,-2.431530450899106910
0.573000000000000398,-2.419733320295971879
0.574000000000000399,-2.407964553657893969
0.575000000000000400,-2.396223427043285614
0.576000000000000401,-2.384509251590427592
0.577000000000000401,-2.372821372707377030
0.578000000000000402,-2.361159169270111491
0.579000000000000403,-2.349522052829154717
0.580000000000000404,-2.337909466824820370
0.581000000000000405,-2.326320885811212769
0.582000000000000406,-2.314755814689156033
0.583000000000000407,-2.303213787948132918
0.584000000000000408,-2.291694368917411850
0.585000000000000409,-2.280197149026409242
0.586000000000000409,-2.268721747074427419
0.587000000000000410,-2.257267808509841878
0.588000000000000411,-2.245835004718799599
0.589000000000000412,-2.234423032323549663
0.590000000000000413,-2.223031612490379949
0.591000000000000414,-2.211660490247305155
0.592000000000000415,-2.200309433811507898
0.593000000000000416,-2.188978233926538675
0.594000000000000417,-2.177666703209363952
0.595000000000000417,-2.166374675507275249
0.596000000000000418,-2.155102005264591725
0.597000000000000419,-2.143848566899312580
0.598000000000000420,-2.132614254189570513
0.599000000000000421,-2.121398979669991469
0.600000000000000422,-2.110202674037894077
0.601000000000000423,-2.099025285569333210
0.602000000000000424,-2.087866779544958362
0.603000000000000425,-2.076727137685688618
0.604000000000000425,-2.065606357598114950
0.605000000000000426,-2.054504452229657829
0.606000000000000427,-2.043421449333427731
0.607000000000000428,-2.032357390942661546
0.608000000000000429,-2.021312332854864113
0.609000000000000430,-2.010286344125369773
0.610000000000000431,-1.999279506570508902
