# C-amorph-3_CS-6331-AC
# h[nm],U(h)[kJ/mol]
0.149999999999999994,102.907892583780522955
0.150999999999999995,100.447979599421060470
0.151999999999999996,98.004660871516833254
0.152999999999999997,95.599889673371279741
0.153999999999999998,93.249888119622468707
0.154999999999999999,90.962042979123239661
0.156000000000000000,88.736278366260819439
0.157000000000000001,86.567801288043668251
0.158000000000000002,84.449748486550305415
0.159000000000000002,82.375166172250857244
0.160000000000000003,80.338219655080479242
0.161000000000000004,78.334741577816899394
0.162000000000000005,76.362299272909268666
0.163000000000000006,74.419962288529930561
0.164000000000000007,72.507920246234263573
0.165000000000000008,70.627060929622302865
0.166000000000000009,68.778580064532519600
0.167000000000000010,66.963662503777911184
0.168000000000000010,65.183250815202228523
0.169000000000000011,63.437901125640777877
0.170000000000000012,61.727716238243758085
0.171000000000000013,60.052341039694930203
0.172000000000000014,58.411003648541296229
0.173000000000000015,56.802586440207768703
0.174000000000000016,55.225713085805793412
0.175000000000000017,53.678840372281648285
0.176000000000000018,52.160346353969202937
0.177000000000000018,50.668609014087202524
0.178000000000000019,49.202071913237141132
0.179000000000000020,47.759295188930742881
0.180000000000000021,46.338991728619262744
0.181000000000000022,44.940049392836499464
0.182000000000000023,43.561540862806637620
0.183000000000000024,42.202723087163491300
0.184000000000000025,40.863028466680020756
0.185000000000000026,39.542049902451552157
0.186000000000000026,38.239521693856389106
0.187000000000000027,36.955298052053151991
0.188000000000000028,35.689330728713493102
0.189000000000000029,34.441646976147254122
0.190000000000000030,33.212328774768153039
0.191000000000000031,32.001494001564097402
0.192000000000000032,30.809279978297894331
0.193000000000000033,29.635829635836891782
0.194000000000000034,28.481280363364334107
0.195000000000000034,27.345755477950536516
0.196000000000000035,26.229358149091943631
0.197000000000000036,25.132167541305740599
0.198000000000000037,24.054236892019623895
0.199000000000000038,22.995593217882621673
0.200000000000000039,21.956238336298902425
0.201000000000000040,20.936150896695018275
0.202000000000000041,19.935289134324701621
0.203000000000000042,18.953594085229035215
0.204000000000000042,17.990993031654006984
0.205000000000000043,17.047402980563667541
0.206000000000000044,16.122734012056088915
0.207000000000000045,15.216892368066712748
0.208000000000000046,14.329783183638019395
0.209000000000000047,13.461312792465855992
0.210000000000000048,12.611390564877217102
0.211000000000000049,11.779930259549908911
0.212000000000000050,10.966850890020541698
0.213000000000000050,10.172077123366417339
0.214000000000000051,9.395539241505028727
0.215000000000000052,8.637172705542596418
0.216000000000000053,7.896917370776177059
0.217000000000000054,7.174716404607257125
0.218000000000000055,6.470514962070128107
0.219000000000000056,5.784258674233115016
0.220000000000000057,5.115892003700090562
0.221000000000000058,4.465356519126863155
0.222000000000000058,3.832589137337517826
0.223000000000000059,3.217520377540714627
0.224000000000000060,2.620072667524386389
0.225000000000000061,2.040158736750744772
0.226000000000000062,1.477680126153507967
0.227000000000000063,0.932525839300123893
0.228000000000000064,0.404571154546026990
0.229000000000000065,-0.106323387030240829
0.230000000000000066,-0.600312807682323091
0.231000000000000066,-1.077568327042658591
0.232000000000000067,-1.538277802015956208
0.233000000000000068,-1.982645973832681818
0.234000000000000069,-2.410894526620962264
0.235000000000000070,-2.823261964487340236
0.236000000000000071,-3.220003316321130793
0.237000000000000072,-3.601389679369064289
0.238000000000000073,-3.967707614083663792
0.239000000000000073,-4.319258403854378869
0.240000000000000074,-4.656357194013622802
0.241000000000000075,-4.979332024994827854
0.242000000000000076,-5.288522774739478294
0.243000000000000077,-5.584280025433228545
0.244000000000000078,-5.866963869427380018
0.245000000000000079,-6.136942668799806100
0.246000000000000080,-6.394591782456876317
0.247000000000000081,-6.640292274001626360
0.248000000000000081,-6.874429612816459034
0.249000000000000082,-7.097392379954934327
0.250000000000000111,-7.309570989527252038
0.251000000000000112,-7.511356435315514446
0.252000000000000113,-7.703139071386710057
0.253000000000000114,-7.885307434494793100
0.254000000000000115,-8.058247115095912960
0.255000000000000115,-8.222339682848906151
0.256000000000000116,-8.377961671550336220
0.257000000000000117,-8.525483627564446110
0.258000000000000118,-8.665269224961081207
0.259000000000000119,-8.797674449774067540
0.260000000000000120,-8.923046855042262138
0.261000000000000121,-9.041724887597359483
0.262000000000000122,-9.154037286920292615
0.263000000000000123,-9.260302555800121738
0.264000000000000123,-9.360828501998099682
0.265000000000000124,-9.455911849642403055
0.266000000000000125,-9.545837918656911114
0.267000000000000126,-9.630880370156525316
0.268000000000000127,-9.711301015422318272
0.269000000000000128,-9.787349685797723353
0.270000000000000129,-9.859264160621256323
0.271000000000000130,-9.927270150128460813
0.272000000000000131,-9.991581330113071147
0.273000000000000131,-10.052399425032069402
0.274000000000000132,-10.109914336168593252
0.275000000000000133,-10.164304311427374117
0.276000000000000134,-10.215736153326876234
0.277000000000000135,-10.264365461767422261
0.278000000000000136,-10.310336908193281857
0.279000000000000137,-10.353784537825468703
0.280000000000000138,-10.394832096719008874
0.281000000000000139,-10.433593380490968627
0.282000000000000139,-10.470172601671345447
0.283000000000000140,-10.504664772746146184
0.284000000000000141,-10.537156102088072629
0.285000000000000142,-10.567724400104093974
0.286000000000000143,-10.596439493068578130
0.287000000000000144,-10.623363642253830008
0.288000000000000145,-10.648551966116700740
0.289000000000000146,-10.672052863446818805
0.290000000000000147,-10.693908435530536494
0.291000000000000147,-10.714154905531199091
0.292000000000000148,-10.732823033432321580
0.293000000000000149,-10.749938525032563419
0.294000000000000150,-10.765522433621502074
0.295000000000000151,-10.779591553100846824
0.296000000000000152,-10.792158801447305549
0.297000000000000153,-10.803233593540134905
0.298000000000000154,-10.812822202497986979
0.299000000000000155,-10.820928108786045385
0.300000000000000155,-10.827552336465043226
0.301000000000000156,-10.832693776058734514
0.302000000000000157,-10.836349493615550443
0.303000000000000158,-10.838515025633224553
0.304000000000000159,-10.839184659602794980
0.305000000000000160,-10.838351700009418721
0.306000000000000161,-10.836008719703595915
0.307000000000000162,-10.832147796626058422
0.308000000000000163,-10.826760735934113811
0.309000000000000163,-10.819839277636265962
0.310000000000000164,-10.811375289895746477
0.311000000000000165,-10.801360948212131774
0.312000000000000166,-10.789788900734233579
0.313000000000000167,-10.776652419996471721
0.314000000000000168,-10.761945541405703253
0.315000000000000169,-10.745663188835825608
0.316000000000000170,-10.727801287714090250
0.317000000000000171,-10.708356866005484420
0.318000000000000171,-10.687328143520636203
0.319000000000000172,-10.664714609988482863
0.320000000000000173,-10.640517092347312911
0.321000000000000174,-10.614737811717457561
0.322000000000000175,-10.587380430525778152
0.323000000000000176,-10.558450090256510379
0.324000000000000177,-10.527953440304884225
0.325000000000000178,-10.495898658409931414
0.326000000000000179,-10.462295463140971918
0.327000000000000179,-10.427155118908109088
0.328000000000000180,-10.390490433961870664
0.329000000000000181,-10.352315751840343694
0.330000000000000182,-10.312646936713463219
0.331000000000000183,-10.271501353065636053
0.332000000000000184,-10.228897840146608189
0.333000000000000185,-10.184856681610037654
0.334000000000000186,-10.139399570746885360
0.335000000000000187,-10.092549571708143930
0.336000000000000187,-10.044331077098515692
0.337000000000000188,-9.994769762308674643
0.338000000000000189,-9.943892536940289517
0.339000000000000190,-9.891727493663413640
0.340000000000000191,-9.838303854831623951
0.341000000000000192,-9.783651917165974154
0.342000000000000193,-9.727802994803917969
0.343000000000000194,-9.670789360995431849
0.344000000000000195,-9.612644188713449722
0.345000000000000195,-9.553401490432211318
0.346000000000000196,-9.493096057312229163
0.347000000000000197,-9.431763398017308120
0.348000000000000198,-9.369439677374996833
0.349000000000000199,-9.306161655078536654
0.350000000000000200,-9.241966624615489678
0.351000000000000201,-9.176892352595123370
0.352000000000000202,-9.110977018634585534
0.353000000000000203,-9.044259155951618112
0.354000000000000203,-8.976777592800015526
0.355000000000000204,-8.908571394872717875
0.356000000000000205,-8.839679808786630844
0.357000000000000206,-8.770142206752836955
0.358000000000000207,-8.699998032525609659
0.359000000000000208,-8.629286748714360300
0.360000000000000209,-8.558047785533194229
0.361000000000000210,-8.486320491054041071
0.362000000000000210,-8.414144083020959286
0.363000000000000211,-8.341557602275205596
0.364000000000000212,-8.268599867833270167
0.365000000000000213,-8.195309433652571585
0.366000000000000214,-8.121724547113140957
0.367000000000000215,-8.047883109236916965
0.368000000000000216,-7.973822636660486296
0.369000000000000217,-7.899580225371243714
0.370000000000000218,-7.825192516211963323
0.371000000000000218,-7.750695662153397336
0.372000000000000219,-7.676125297330382402
0.373000000000000220,-7.601516507832279501
0.374000000000000221,-7.526903804234864381
0.375000000000000222,-7.452321095856866862
0.376000000000000223,-7.377801666721268248
0.377000000000000224,-7.303378153198129219
0.378000000000000225,-7.229082523303025809
0.379000000000000226,-7.154946057622527000
0.380000000000000226,-7.080999331835968746
0.381000000000000227,-7.007272200800390927
0.382000000000000228,-6.933793784164022256
0.383000000000000229,-6.860592453471774377
0.384000000000000230,-6.787695820724726659
0.385000000000000231,-6.715130728354649747
0.386000000000000232,-6.642923240573120225
0.387000000000000233,-6.571098636054149900
0.388000000000000234,-6.499681401908394385
0.389000000000000234,-6.428695228906515347
0.390000000000000235,-6.358163007908591347
0.391000000000000236,-6.288106827456511283
0.392000000000000237,-6.218547972485660047
0.393000000000000238,-6.149506924112596806
0.394000000000000239,-6.081003360455010665
0.395000000000000240,-6.013056158440721610
0.396000000000000241,-5.945683396562560397
0.397000000000000242,-5.878902358536224781
0.398000000000000242,-5.812729537818825065
0.399000000000000243,-5.747180642946029039
0.400000000000000244,-5.682270603646401241
0.401000000000000245,-5.618013577692214433
0.402000000000000246,-5.554422958446429526
0.403000000000000247,-5.491511383066390195
0.404000000000000248,-5.429290741325565328
0.405000000000000249,-5.367772185015359909
0.406000000000000250,-5.306966137889835622
0.407000000000000250,-5.246882306117140793
0.408000000000000251,-5.187529689202198924
0.409000000000000252,-5.128916591346224685
0.410000000000000253,-5.071050633209425840
0.411000000000000254,-5.013938764044365115
0.412000000000000255,-4.957587274168187008
0.413000000000000256,-4.902001807743117112
0.414000000000000257,-4.847187375835322776
0.415000000000000258,-4.793148369723536639
0.416000000000000258,-4.739888574429461876
0.417000000000000259,-4.687411182443218749
0.418000000000000260,-4.635718807617946524
0.419000000000000261,-4.584813499208597598
0.420000000000000262,-4.534696756031022957
0.421000000000000263,-4.485369540718360248
0.422000000000000264,-4.436832294052582171
0.423000000000000265,-4.389084949350086973
0.424000000000000266,-4.342126946881228022
0.425000000000000266,-4.295957248304232756
0.426000000000000267,-4.250574351095286474
0.427000000000000268,-4.205976302957088464
0.428000000000000269,-4.162160716189200471
0.429000000000000270,-4.119124782004345953
0.430000000000000271,-4.076865284775540665
0.431000000000000272,-4.035378616199865931
0.432000000000000273,-3.994660789365359843
0.433000000000000274,-3.954707452708356552
0.434000000000000274,-3.915513903849275668
0.435000000000000275,-3.877075103295648084
0.436000000000000276,-3.839385688001849761
0.437000000000000277,-3.802439984775615844
0.438000000000000278,-3.766232023522247285
0.439000000000000279,-3.730755550317911062
0.440000000000000280,-3.696004040304093685
0.441000000000000281,-3.661970710395907158
0.442000000000000282,-3.628648531797553201
0.443000000000000282,-3.596030242318654757
0.444000000000000283,-3.564108358485962746
0.445000000000000284,-3.532875187445243093
0.446000000000000285,-3.502322838648689096
0.447000000000000286,-3.472443235323926736
0.448000000000000287,-3.443228125720711574
0.449000000000000288,-3.414669094132328553
0.450000000000000289,-3.386757571688756574
0.451000000000000290,-3.359484846919323697
0.452000000000000290,-3.332842076082840777
0.453000000000000291,-3.306820293263611710
0.454000000000000292,-3.281410420232105274
0.455000000000000293,-3.256603276069349739
0.456000000000000294,-3.232389586554525351
0.457000000000000295,-3.208759993315455805
0.458000000000000296,-3.185705062742049343
0.459000000000000297,-3.163215294663014987
0.460000000000000298,-3.141281130786393039
0.461000000000000298,-3.119892962904779132
0.462000000000000299,-3.099041140866286348
0.463000000000000300,-3.078715980312512812
0.464000000000000301,-3.058907770185069985
0.465000000000000302,-3.039606780002347186
0.466000000000000303,-3.020803266908379747
0.467000000000000304,-3.002487482495906690
0.468000000000000305,-2.984649679405849021
0.469000000000000306,-2.967280117705562770
0.470000000000000306,-2.950369071048417613
0.471000000000000307,-2.933906832617286575
0.472000000000000308,-2.917883720854821838
0.473000000000000309,-2.902290084983281560
0.474000000000000310,-2.887116310316983014
0.475000000000000311,-2.872352823370403208
0.476000000000000312,-2.857990096765143484
0.477000000000000313,-2.844018653938940489
0.478000000000000314,-2.830429073660058137
0.479000000000000314,-2.817211994350473425
0.480000000000000315,-2.804358118221191631
0.481000000000000316,-2.791858215223266271
0.482000000000000317,-2.779703126817953951
0.483000000000000318,-2.767883769569611019
0.484000000000000319,-2.756391138564877163
0.485000000000000320,-2.745216310661777737
0.486000000000000321,-2.734350447572339693
0.487000000000000322,-2.723784798782373340
0.488000000000000322,-2.713510704312032118
0.489000000000000323,-2.703519597320847012
0.490000000000000324,-2.693803006560828273
0.491000000000000325,-2.684352558681308842
0.492000000000000326,-2.675159980389122172
0.493000000000000327,-2.666217100467775047
0.494000000000000328,-2.657515851659183692
0.495000000000000329,-2.649048272411568483
0.496000000000000330,-2.640806508497051119
0.497000000000000330,-2.632782814502522051
0.498000000000000331,-2.624969555197224302
0.499000000000000332,-2.617359206780581538
0.500000000000000333,-2.609944358013698729
0.501000000000000334,-2.602717711237906073
0.502000000000000335,-2.595672083283754539
0.503000000000000336,-2.588800406273781718
0.504000000000000337,-2.582095728322320483
0.505000000000000338,-2.575551214135607392
0.506000000000000338,-2.569160145515391402
0.507000000000000339,-2.562915921769199468
0.508000000000000340,-2.556812060030347666
0.509000000000000341,-2.550842195490805153
0.510000000000000342,-2.545000081549864124
0.511000000000000343,-2.539279589881631605
0.512000000000000344,-2.533674710424215437
0.513000000000000345,-2.528179551293484817
0.514000000000000346,-2.522788338624235571
0.515000000000000346,-2.517495416341469117
0.516000000000000347,-2.512295245864516691
0.517000000000000348,-2.507182405746703147
0.518000000000000349,-2.502151591253055418
0.519000000000000350,-2.497197613878692213
0.520000000000000351,-2.492315400810344972
0.521000000000000352,-2.487499994333459252
0.522000000000000353,-2.482746551187254624
0.523000000000000353,-2.478050341870090989
0.524000000000000354,-2.473406749897419932
0.525000000000000355,-2.468811271014545561
0.526000000000000356,-2.464259512366349103
0.527000000000000357,-2.459747191626154184
0.528000000000000358,-2.455270136085750288
0.529000000000000359,-2.450824281708613217
0.530000000000000360,-2.446405672148300514
0.531000000000000361,-2.442010457733930995
0.532000000000000361,-2.437634894424606014
0.533000000000000362,-2.433275342734617652
0.534000000000000363,-2.428928266631174004
0.535000000000000364,-2.424590232406399259
0.536000000000000365,-2.420257907525250385
0.537000000000000366,-2.415928059451005083
0.538000000000000367,-2.411597554449846026
0.539000000000000368,-2.407263356376156516
0.540000000000000369,-2.402922525439914025
0.541000000000000369,-2.398572216957711500
0.542000000000000370,-2.394209680088745351
0.543000000000000371,-2.389832256557133494
0.544000000000000372,-2.385437379361907695
0.545000000000000373,-2.381022571475907235
0.546000000000000374,-2.376585444534812908
0.547000000000000375,-2.372123697517517282
0.548000000000000376,-2.367635115418984970
0.549000000000000377,-2.363117567916682482
0.550000000000000377,-2.358569008031662140
0.551000000000000378,-2.353987470785348091
0.552000000000000379,-2.349371071852982329
0.553000000000000380,-2.344718006214737915
0.554000000000000381,-2.340026546805355157
0.555000000000000382,-2.335295043163285289
0.556000000000000383,-2.330521920080081522
0.557000000000000384,-2.325705676250968246
0.558000000000000385,-2.320844882927291852
0.559000000000000385,-2.315938182571677384
0.560000000000000386,-2.310984287516562929
0.561000000000000387,-2.305981978626848505
0.562000000000000388,-2.300930103967305573
0.563000000000000389,-2.295827577475397785
0.564000000000000390,-2.290673377640104924
0.565000000000000391,-2.285466546187355341
0.566000000000000392,-2.280206186772607779
0.567000000000000393,-2.274891463681127490
0.568000000000000393,-2.269521600536433148
0.569000000000000394,-2.264095879017428370
0.570000000000000395,-2.258613637584665046
0.571000000000000396,-2.253074270216136821
0.572000000000000397,-2.247477225153088565
0.573000000000000398,-2.241822003656134488
0.574000000000000399,-2.236108158772141419
0.575000000000000400,-2.230335294112157918
0.576000000000000401,-2.224503062640740936
0.577000000000000401,-2.218611165477007319
0.578000000000000402,-2.212659350707647743
0.579000000000000403,-2.206647412212206838
0.580000000000000404,-2.200575188500884849
0.581000000000000405,-2.194442561565063787
0.582000000000000406,-2.188249455740803651
0.583000000000000407,-2.181995836585488124
0.584000000000000408,-2.175681709767818717
0.585000000000000409,-2.169307119971317199
0.586000000000000409,-2.162872149811495337
0.587000000000000410,-2.156376918766835793
0.588000000000000411,-2.149821582123685904
0.589000000000000412,-2.143206329935229970
0.590000000000000413,-2.136531385994566712
0.591000000000000414,-2.129797006822048200
0.592000000000000415,-2.123003480666920684
0.593000000000000416,-2.116151126523325487
0.594000000000000417,-2.109240293160732360
0.595000000000000417,-2.102271358168858573
0.596000000000000418,-2.095244727017039121
0.597000000000000419,-2.088160832128182154
0.598000000000000420,-2.081020131967195042
0.599000000000000421,-2.073823110143995230
0.600000000000000422,-2.066570274531025042
0.601000000000000423,-2.059262156395290422
0.602000000000000424,-2.051899309544899186
0.603000000000000425,-2.044482309490063709
0.604000000000000425,-2.037011752618526295
0.605000000000000426,-2.029488255385364148
0.606000000000000427,-2.021912453517163311
0.607000000000000428,-2.014285001230391003
0.608000000000000429,-2.006606570464079198
0.609000000000000430,-1.998877850126547173
0.610000000000000431,-1.991099545356279865
0.611000000000000432,-1.983272376796727965
