# C-amorph-3_CS-12139-AC
# h[nm],U(h)[kJ/mol]
0.200000000000000011,55.147279960461524695
0.201000000000000012,54.105024268459793291
0.202000000000000013,52.760624511710830120
0.203000000000000014,51.295677713307803458
0.204000000000000015,49.807576399815538082
0.205000000000000016,48.342493624164319499
0.206000000000000016,46.917107471082609038
0.207000000000000017,45.532505399971292093
0.208000000000000018,44.182746756718543679
0.209000000000000019,42.859850572352868880
0.210000000000000020,41.556453470285504181
0.211000000000000021,40.267001867283916283
0.212000000000000022,38.988067704239952604
0.213000000000000023,37.718180393986095567
0.214000000000000024,36.457428904809063397
0.215000000000000024,35.206991394767307213
0.216000000000000025,33.968683955611957970
0.217000000000000026,32.744576164056958589
0.218000000000000027,31.536692869164181019
0.219000000000000028,30.346804262850859857
0.220000000000000029,29.176296357868579889
0.221000000000000030,28.026109060824701658
0.222000000000000031,26.896727313692537109
0.223000000000000032,25.788211046908422475
0.224000000000000032,24.700251085908710991
0.225000000000000033,23.632240105055821289
0.226000000000000034,22.583349852816731129
0.227000000000000035,21.552607946087782409
0.228000000000000036,20.538969414743110775
0.229000000000000037,19.541379802133199917
0.230000000000000038,18.558827970166927201
0.231000000000000039,17.590387823778801391
0.232000000000000040,16.635248980762789017
0.233000000000000040,15.692736999734361092
0.234000000000000041,14.762324175470178389
0.235000000000000042,13.843632151248247197
0.236000000000000043,12.936427714188766913
0.237000000000000044,12.040613160861132869
0.238000000000000045,11.156212571653814081
0.239000000000000046,10.283355234768652764
0.240000000000000047,9.422257331569207750
0.241000000000000048,8.573202848292229561
0.242000000000000048,7.736524525619996595
0.243000000000000049,6.912585505441095179
0.244000000000000050,6.101762189174836593
0.245000000000000051,5.304428688299006822
0.246000000000000052,4.520943127717234056
0.247000000000000053,3.751635957636757723
0.248000000000000054,2.996800340110035155
0.249000000000000055,2.256684602044688237
0.250000000000000056,1.531486686542998354
0.251000000000000056,0.821350487800845408
0.252000000000000057,0.126363920180490752
0.253000000000000058,-0.553441451927507488
0.254000000000000059,-1.218089411652357956
0.255000000000000060,-1.867656909828491862
0.256000000000000061,-2.502270903624040699
0.257000000000000062,-3.122104404783145437
0.258000000000000063,-3.727371919932230160
0.259000000000000064,-4.318324453599119650
0.260000000000000064,-4.895244230594420820
0.261000000000000065,-5.458439278965991015
0.262000000000000066,-6.008237998507000022
0.263000000000000067,-6.544983823307464199
0.264000000000000068,-7.069030070527301923
0.265000000000000069,-7.580735051781319456
0.266000000000000070,-8.080457508527413069
0.267000000000000071,-8.568552418838383034
0.268000000000000071,-9.045367210047944084
0.269000000000000072,-9.511238400080575417
0.270000000000000073,-9.966488679843422460
0.271000000000000074,-10.411424439884173765
0.272000000000000075,-10.846333736581437179
0.273000000000000076,-11.271484686388570040
0.274000000000000077,-11.687124271039982304
0.275000000000000078,-12.093477532076589043
0.276000000000000079,-12.490747129473891874
0.277000000000000079,-12.879113236477220283
0.278000000000000080,-13.258733740872793661
0.279000000000000081,-13.629744721765689519
0.280000000000000082,-13.992261170406177229
0.281000000000000083,-14.346377923623013118
0.282000000000000084,-14.692170778904372952
0.283000000000000085,-15.029697761040679893
0.284000000000000086,-15.359000511439342418
0.285000000000000087,-15.680105772673021747
0.286000000000000087,-15.993026942476674890
0.287000000000000088,-16.297765673208257198
0.288000000000000089,-16.594313494689298949
0.289000000000000090,-16.882653440303947434
0.290000000000000091,-17.162761658220798466
0.291000000000000092,-17.434608991583861126
0.292000000000000093,-17.698162513467618595
0.293000000000000094,-17.953387004287886697
0.294000000000000095,-18.200246361184852617
0.295000000000000095,-18.438704930635989143
0.296000000000000096,-18.668728757200199198
0.297000000000000097,-18.890286742835904477
0.298000000000000098,-19.103351712666569284
0.299000000000000099,-19.307901384386401133
0.300000000000000100,-19.503919239702817379
0.301000000000000101,-19.691395297304076450
0.302000000000000102,-19.870326787817848668
0.303000000000000103,-20.040718732097314358
0.304000000000000103,-20.202584424933604623
0.305000000000000104,-20.355945826956858724
0.306000000000000105,-20.500833868054183284
0.307000000000000106,-20.637288666108652535
0.308000000000000107,-20.765359665254486288
0.309000000000000108,-20.885105698155594922
0.310000000000000109,-20.996594977054435560
0.311000000000000110,-21.099905018510082044
0.312000000000000111,-21.195122506857309475
0.313000000000000111,-21.282343101474744174
0.314000000000000112,-21.361671192958802123
0.315000000000000113,-21.433219613263979397
0.316000000000000114,-21.497109304796349960
0.317000000000000115,-21.553468953339042002
0.318000000000000116,-21.602434589552423461
0.319000000000000117,-21.644149163630661548
0.320000000000000118,-21.678762097514756135
0.321000000000000119,-21.706428818864846875
0.322000000000000119,-21.727310280782880625
0.323000000000000120,-21.741572471055871318
0.324000000000000121,-21.749385914462017411
0.325000000000000122,-21.750925171448738382
0.326000000000000123,-21.746368336257141607
0.327000000000000124,-21.735896537332095591
0.328000000000000125,-21.719693442623892565
0.329000000000000126,-21.697944772157470084
0.330000000000000127,-21.670837820019503539
0.331000000000000127,-21.638560987694699378
0.332000000000000128,-21.601303330469587394
0.333000000000000129,-21.559254118417729984
0.334000000000000130,-21.512602413283424596
0.335000000000000131,-21.461536662394070873
0.336000000000000132,-21.406244310552722254
0.337000000000000133,-21.346911430694326839
0.338000000000000134,-21.283722373930576310
0.339000000000000135,-21.216859439459341274
0.340000000000000135,-21.146502564676428193
0.341000000000000136,-21.072829035698173783
0.342000000000000137,-20.996013218384700139
0.343000000000000138,-20.916226309843857223
0.344000000000000139,-20.833636110296016142
0.345000000000000140,-20.748406815088735300
0.346000000000000141,-20.660698826567859498
0.347000000000000142,-20.570668585437971387
0.348000000000000143,-20.478468421179265135
0.349000000000000143,-20.384246421029722285
0.350000000000000144,-20.288146316991010565
0.351000000000000145,-20.190307390272302257
0.352000000000000146,-20.090864392549484307
0.353000000000000147,-19.989947483385677174
0.354000000000000148,-19.887682183134096192
0.355000000000000149,-19.784189340623832720
0.356000000000000150,-19.679585114914711852
0.357000000000000151,-19.573980970396732459
0.358000000000000151,-19.467483684503687158
0.359000000000000152,-19.360195367308214998
0.360000000000000153,-19.252213492267333805
0.361000000000000154,-19.143630937391744595
0.362000000000000155,-19.034536036120133673
0.363000000000000156,-18.925012637189791320
0.364000000000000157,-18.815140172807353736
0.365000000000000158,-18.704993734438524200
0.366000000000000159,-18.594644155551605991
0.367000000000000159,-18.484158100668256708
0.368000000000000160,-18.373598160093997933
0.369000000000000161,-18.263022949721889887
0.370000000000000162,-18.152487215323951375
0.371000000000000163,-18.042041940767891361
0.372000000000000164,-17.931734459618905220
0.373000000000000165,-17.821608569610326356
0.374000000000000166,-17.711704649490297214
0.375000000000000167,-17.602059777775561855
0.376000000000000167,-17.492707852967434690
0.377000000000000168,-17.383679714808977224
0.378000000000000169,-17.275003266185819939
0.379000000000000170,-17.166703595297111207
0.380000000000000171,-17.058803097745521171
0.381000000000000172,-16.951321598218640929
0.382000000000000173,-16.844276471455913224
0.383000000000000174,-16.737682762217509946
0.384000000000000175,-16.631553303992273385
0.385000000000000175,-16.525898836202941311
0.386000000000000176,-16.420728119686650359
0.387000000000000177,-16.316048050247946577
0.388000000000000178,-16.211863770100560345
0.389000000000000179,-16.108178777031771034
0.390000000000000180,-16.004995031140555994
0.391000000000000181,-15.902313059017355812
0.392000000000000182,-15.800132055248912621
0.393000000000000183,-15.698449981146723076
0.394000000000000183,-15.597263660612039615
0.395000000000000184,-15.496568873063850447
0.396000000000000185,-15.396360443369260906
0.397000000000000186,-15.296632328727733707
0.398000000000000187,-15.197377702472309124
0.399000000000000188,-15.098589034761465300
0.400000000000000189,-15.000258170145665204
0.401000000000000190,-14.902376402001880962
0.402000000000000191,-14.804934543838466965
0.403000000000000191,-14.707922997480627814
0.404000000000000192,-14.611331818154784656
0.405000000000000193,-14.515150776496739127
0.406000000000000194,-14.419369417515355281
0.407000000000000195,-14.323977116549349020
0.408000000000000196,-14.228963132260034286
0.409000000000000197,-14.134316656708065807
0.410000000000000198,-14.040026862566573840
0.411000000000000199,-13.946082947527035145
0.412000000000000199,-13.852474175957897984
0.413000000000000200,-13.759189917879197651
0.414000000000000201,-13.666219685319074273
0.415000000000000202,-13.573553166120484903
0.416000000000000203,-13.481180255268753854
0.417000000000000204,-13.389091083811900162
0.418000000000000205,-13.297276045447500081
0.419000000000000206,-13.205725820850839014
0.420000000000000207,-13.114431399819718393
0.421000000000000207,-13.023384101312505123
0.422000000000000208,-12.932575591455520936
0.423000000000000209,-12.841997899596885091
0.424000000000000210,-12.751643432483140472
0.425000000000000211,-12.661504986635170766
0.426000000000000212,-12.571575758999319561
0.427000000000000213,-12.481849355948941849
0.428000000000000214,-12.392319800711138811
0.429000000000000214,-12.302981539292101587
0.430000000000000215,-12.213829444973914207
0.431000000000000216,-12.124858821454314040
0.432000000000000217,-12.036065404699590076
0.433000000000000218,-11.947445363579722866
0.434000000000000219,-11.858995299353221498
0.435000000000000220,-11.770712244067860652
0.436000000000000221,-11.682593657941723109
0.437000000000000222,-11.594637425787585272
0.438000000000000222,-11.506841852541924709
0.439000000000000223,-11.419205657958183764
0.440000000000000224,-11.331727970522186055
0.441000000000000225,-11.244408320645813859
0.442000000000000226,-11.157246633193540930
0.443000000000000227,-11.070243219394184209
0.444000000000000228,-10.983398768189024608
0.445000000000000229,-10.896714337065187550
0.446000000000000230,-10.810191342421575200
0.447000000000000230,-10.723831549513018757
0.448000000000000231,-10.637637062016279899
0.449000000000000232,-10.551610311259933539
0.450000000000000233,-10.465754045158449870
0.451000000000000234,-10.380071316888972888
0.452000000000000235,-10.294565473347741857
0.453000000000000236,-10.209240143421240532
0.454000000000000237,-10.124099226105789384
0.455000000000000238,-10.039146878507366978
0.456000000000000238,-9.954387503752201383
0.457000000000000239,-9.869825738836789597
0.458000000000000240,-9.785466442444874957
0.459000000000000241,-9.701314682756956742
0.460000000000000242,-9.617375725277051757
0.461000000000000243,-9.533655020699367100
0.462000000000000244,-9.450158192836914495
0.463000000000000245,-9.366891026631929407
0.464000000000000246,-9.283859456267553156
0.465000000000000246,-9.201069553398257383
0.466000000000000247,-9.118527515515742365
0.467000000000000248,-9.036239654465591187
0.468000000000000249,-8.954212385129112661
0.469000000000000250,-8.872452214283390148
0.470000000000000251,-8.790965729651812666
0.471000000000000252,-8.709759589156025328
0.472000000000000253,-8.628840510379747641
0.473000000000000254,-8.548215260253309467
0.474000000000000254,-8.467890644967537739
0.475000000000000255,-8.387873500124221948
0.476000000000000256,-8.308170681129913859
0.477000000000000257,-8.228789053838905687
0.478000000000000258,-8.149735485450332106
0.479000000000000259,-8.071016835663987976
0.480000000000000260,-7.992639948098373637
0.481000000000000261,-7.914611641973993805
0.482000000000000262,-7.836938704064481342
0.483000000000000262,-7.759627880917205900
0.484000000000000263,-7.682685871344679285
0.485000000000000264,-7.606119319187529371
0.486000000000000265,-7.529934806349253051
0.487000000000000266,-7.454138846102485338
0.488000000000000267,-7.378737876666123796
0.489000000000000268,-7.303738255052269146
0.490000000000000269,-7.229146251181356675
0.491000000000000270,-7.154968042263784689
0.492000000000000270,-7.081209707445677459
0.493000000000000271,-7.007877222716411225
0.494000000000000272,-6.934976456074982032
0.495000000000000273,-6.862513162952114776
0.496000000000000274,-6.790492981884885815
0.497000000000000275,-6.718921430440100373
0.498000000000000276,-6.647803901382745906
0.499000000000000277,-6.577145659085497087
0.500000000000000222,-6.506951836175003834
0.501000000000000334,-6.437227430410740858
0.502000000000000224,-6.367977301791880151
0.503000000000000336,-6.299206169887427542
0.504000000000000226,-6.230918611385189543
0.505000000000000338,-6.163119057854283156
0.506000000000000227,-6.095811793716753968
0.507000000000000339,-6.029000954422790493
0.508000000000000229,-5.962690524824894922
0.509000000000000341,-5.896884337745447624
0.510000000000000231,-5.831586072732994452
0.511000000000000343,-5.766799255001470392
0.512000000000000233,-5.702527254547677060
0.513000000000000345,-5.638773285441276428
0.514000000000000234,-5.575540405282571221
0.515000000000000346,-5.512831514822237544
0.516000000000000236,-5.450649357738373446
0.517000000000000348,-5.388996520565123127
0.518000000000000238,-5.327875432768144570
0.519000000000000350,-5.267288366961333956
0.520000000000000240,-5.207237439260102185
0.521000000000000352,-5.147724609765779391
0.522000000000000242,-5.088751683176395701
0.523000000000000353,-5.030320309518649502
0.524000000000000243,-4.972431984996335430
0.525000000000000355,-4.915088052950218334
0.526000000000000245,-4.858289704924762198
0.527000000000000357,-4.802037981836734915
0.528000000000000247,-4.746333775241400765
0.529000000000000359,-4.691177828691338370
0.530000000000000249,-4.636570739183779821
0.531000000000000361,-4.582512958691731697
0.532000000000000250,-4.529004795774886460
0.533000000000000362,-4.476046417265719946
0.534000000000000252,-4.423637850027001939
0.535000000000000364,-4.371778982776314493
0.536000000000000254,-4.320469567973924896
0.537000000000000366,-4.269709223769778461
0.538000000000000256,-4.219497436006224511
0.539000000000000368,-4.169833560272317996
0.540000000000000258,-4.120716824006581014
0.541000000000000369,-4.072146328644175917
0.542000000000000259,-4.024121051805606086
0.543000000000000371,-3.976639849523111003
0.544000000000000261,-3.929701458501908551
0.545000000000000373,-3.883304498412842864
0.546000000000000263,-3.837447474213664833
0.547000000000000375,-3.792128778495570174
0.548000000000000265,-3.747346693852680488
0.549000000000000377,-3.703099395271050920
0.550000000000000266,-3.659384952535069235
0.551000000000000378,-3.616201332648209643
0.552000000000000268,-3.573546402265907140
0.553000000000000380,-3.531417930137916272
0.554000000000000270,-3.489813589557962281
0.555000000000000382,-3.448730960818247926
0.556000000000000272,-3.408167533666842441
0.557000000000000384,-3.368120709765568765
0.558000000000000274,-3.328587805146705048
0.559000000000000385,-3.289566052666186291
0.560000000000000275,-3.251052604451801553
0.561000000000000387,-3.213044534344285719
0.562000000000000277,-3.175538840329805712
0.563000000000000389,-3.138532446962061240
0.564000000000000279,-3.102022207772548335
0.565000000000000391,-3.066004907667360335
0.566000000000000281,-3.030477265309207358
0.567000000000000393,-2.995435935483185208
0.568000000000000282,-2.960877511445148436
0.569000000000000394,-2.926798527251224691
0.570000000000000284,-2.893195460067574665
0.571000000000000396,-2.860064732459028036
0.572000000000000286,-2.827402714655794291
0.573000000000000398,-2.795205726796995638
0.574000000000000288,-2.763470041150343004
0.575000000000000400,-2.732191884306902629
0.576000000000000290,-2.701367439350221389
0.577000000000000401,-2.670992847998969744
0.578000000000000291,-2.641064212722488591
0.579000000000000403,-2.611577598828417113
0.580000000000000293,-2.582529036521975740
0.581000000000000405,-2.553914522936094667
0.582000000000000295,-2.525730024132125440
0.583000000000000407,-2.497971477070377144
0.584000000000000297,-2.470634791550270215
0.585000000000000409,-2.443715852119525245
0.586000000000000298,-2.417210519952178949
0.587000000000000410,-2.391114634694940122
0.588000000000000300,-2.365424016281782116
0.589000000000000412,-2.340134466716328188
0.590000000000000302,-2.315241771821980876
0.591000000000000414,-2.290741702959520065
0.592000000000000304,-2.266630018712049832
0.593000000000000416,-2.242902466537136430
0.594000000000000306,-2.219554784386134738
0.595000000000000417,-2.196582702290540201
0.596000000000000307,-2.173981943915400450
0.597000000000000419,-2.151748228079747971
0.598000000000000309,-2.129877270244118215
0.599000000000000421,-2.108364783965097633
0.600000000000000311,-2.087206482317112144
0.601000000000000423,-2.066398079281376532
0.602000000000000313,-2.045935291102313869
0.603000000000000425,-2.025813837611319723
0.604000000000000314,-2.006029443518328126
0.605000000000000426,-1.986577839671029633
0.606000000000000316,-1.967454764282219326
0.607000000000000428,-1.948655964125212137
0.608000000000000318,-1.930177195697791337
0.609000000000000430,-1.912014226354698421
0.610000000000000320,-1.894162835409105128
0.611000000000000432,-1.876618815203167090
0.612000000000000322,-1.859377972148067881
0.613000000000000433,-1.842436127733723339
0.614000000000000323,-1.825789119508550273
0.615000000000000435,-1.809432802029506293
0.616000000000000325,-1.793363047782804642
0.617000000000000437,-1.777575748075568729
0.618000000000000327,-1.762066813898805151
0.619000000000000439,-1.746832176761992539
0.620000000000000329,-1.731867789499696331
0.621000000000000441,-1.717169627050510794
0.622000000000000330,-1.702733687208740410
0.623000000000000442,-1.688555991349130592
0.624000000000000332,-1.674632585125104267
0.625000000000000444,-1.660959539140804520
0.626000000000000334,-1.647532949597381613
0.627000000000000446,-1.634348938913885663
0.628000000000000336,-1.621403656323166631
0.629000000000000448,-1.608693278443167118
0.630000000000000338,-1.596214009824040048
0.631000000000000449,-1.583962083471407656
0.632000000000000339,-1.571933761346282710
0.633000000000000451,-1.560125334841926614
0.634000000000000341,-1.548533125238163555
0.635000000000000453,-1.537153484133463532
0.636000000000000343,-1.525982793855243269
0.637000000000000455,-1.515017467848802868
0.638000000000000345,-1.504253951045262827
0.639000000000000457,-1.493688720208917742
0.640000000000000346,-1.483318284264444564
0.641000000000000458,-1.473139184604309149
0.642000000000000348,-1.463147995376825383
0.643000000000000460,-1.453341323755211301
0.644000000000000350,-1.443715810188119786
0.645000000000000462,-1.434268128631935202
0.646000000000000352,-1.424994986765329985
0.647000000000000464,-1.415893126186378970
0.648000000000000353,-1.406959322592728823
0.649000000000000465,-1.398190385945070613
0.650000000000000355,-1.389583160614450419
0.651000000000000467,-1.381134525513650679
0.652000000000000357,-1.372841394213148103
0.653000000000000469,-1.364700715041911483
0.654000000000000359,-1.356709471173509929
0.655000000000000471,-1.348864680697790641
0.656000000000000361,-1.341163396678599851
0.657000000000000473,-1.333602707197807824
0.658000000000000362,-1.326179735386067149
0.659000000000000474,-1.318891639440588959
