# C-amorph-3_CS-16629-AC
# h[nm],U(h)[kJ/mol]
0.149999999999999994,113.853298641271379665
0.150999999999999995,111.167355381530953196
0.151999999999999996,108.058949961444710652
0.152999999999999997,104.922704322645273578
0.153999999999999998,101.894660948853328364
0.154999999999999999,98.993011199921852494
0.156000000000000000,96.192392812321401152
0.157000000000000001,93.459789245184268225
0.158000000000000002,90.769245836475050737
0.159000000000000002,88.105686115078839293
0.160000000000000003,85.463747806456154876
0.161000000000000004,82.844871031670464845
0.162000000000000005,80.254263584538051646
0.163000000000000006,77.698443353524993427
0.164000000000000007,75.183555575695748985
0.165000000000000008,72.714414106020697659
0.166000000000000009,70.294113967415455591
0.167000000000000010,67.924040285419408747
0.168000000000000010,65.604115844167239402
0.169000000000000011,63.333162372452285638
0.170000000000000012,61.109286346778858956
0.171000000000000013,58.930232144130876293
0.172000000000000014,56.793671179916579206
0.173000000000000015,54.697414750334147016
0.174000000000000016,52.639551275096664540
0.175000000000000017,50.618516579155240720
0.176000000000000018,48.633109938372449221
0.177000000000000018,46.682469938576360846
0.178000000000000019,44.766023686823032790
0.179000000000000020,42.883421302154900445
0.180000000000000021,41.034465450085271243
0.181000000000000022,39.219043358756280782
0.182000000000000023,37.437066521762396576
0.183000000000000024,35.688421307162222718
0.184000000000000025,33.972932032495798182
0.185000000000000026,32.290336756406759378
0.186000000000000026,30.640275067879013449
0.187000000000000027,29.022286491514410756
0.188000000000000028,27.435817727557076040
0.189000000000000029,25.880236760109788463
0.190000000000000030,24.354851848410749682
0.191000000000000031,22.858933520066912592
0.192000000000000032,21.391737873102886880
0.193000000000000033,19.952529733067308371
0.194000000000000034,18.540604475975818843
0.195000000000000034,17.155307597178197199
0.196000000000000035,15.796051365249988763
0.197000000000000036,14.462328138225643670
0.198000000000000037,13.153720130233685026
0.199000000000000038,11.869905596269299863
0.200000000000000039,10.610661550248119411
0.201000000000000040,9.375863247227607999
0.202000000000000041,8.165480746639717680
0.203000000000000042,6.979572932284789033
0.204000000000000042,5.818279399923190098
0.205000000000000043,4.681810638038140127
0.206000000000000044,3.570436925212832513
0.207000000000000045,2.484476351932744187
0.208000000000000046,1.424282348611596527
0.209000000000000047,0.390231068076123511
0.210000000000000048,-0.617291067881256650
0.211000000000000049,-1.597899389819355198
0.212000000000000050,-2.551222344450206236
0.213000000000000050,-3.476912017881425676
0.214000000000000051,-4.374653676105358713
0.215000000000000052,-5.244174219017827987
0.216000000000000053,-6.085249479716430265
0.217000000000000054,-6.897710332860029325
0.218000000000000055,-7.681447604220801750
0.219000000000000056,-8.436415798127523402
0.220000000000000057,-9.162635680311044695
0.221000000000000058,-9.860195770826068795
0.222000000000000058,-10.529252815438416846
0.223000000000000059,-11.170031314361105856
0.224000000000000060,-11.782822194779830838
0.225000000000000061,-12.367980718520879435
0.226000000000000062,-12.925923718787490913
0.227000000000000063,-13.457126260430603892
0.228000000000000064,-13.962117817022093647
0.229000000000000065,-14.441478055350035703
0.230000000000000066,-14.895832314118814921
0.231000000000000066,-15.325846858862757216
0.232000000000000067,-15.732223989590853108
0.233000000000000068,-16.115697071676294172
0.234000000000000069,-16.477025554165116716
0.235000000000000070,-16.816990033158575102
0.236000000000000071,-17.136387411358931843
0.237000000000000072,-17.436026198371504137
0.238000000000000073,-17.716721990020307231
0.239000000000000073,-17.979293158836842537
0.240000000000000074,-18.224556782084743389
0.241000000000000075,-18.453324828228492294
0.242000000000000076,-18.666400617679208551
0.243000000000000077,-18.864575568975485709
0.244000000000000078,-19.048626237293827757
0.245000000000000079,-19.219311648336624643
0.246000000000000080,-19.377370927211849505
0.247000000000000081,-19.523521218890202533
0.248000000000000081,-19.658455894187135016
0.249000000000000082,-19.782843032953376650
0.250000000000000111,-19.897324174247639661
0.251000000000000112,-20.002513321686610226
0.252000000000000113,-20.098996190898471781
0.253000000000000114,-20.187329685019289371
0.254000000000000115,-20.268041583446670728
0.255000000000000115,-20.341630428573239442
0.256000000000000116,-20.408565594942796650
0.257000000000000117,-20.469287525179424847
0.258000000000000118,-20.524208117111903960
0.259000000000000119,-20.573711246732280244
0.260000000000000120,-20.618153411967433897
0.261000000000000121,-20.657864482685855734
0.262000000000000122,-20.693148542894533648
0.263000000000000123,-20.724284811681890517
0.264000000000000123,-20.751528630122383134
0.265000000000000124,-20.775112502058782127
0.266000000000000125,-20.795247177410587369
0.267000000000000126,-20.812122767408215651
0.268000000000000127,-20.825909881915084298
0.269000000000000128,-20.836760779762720119
0.270000000000000129,-20.844810523782424383
0.271000000000000130,-20.850178132963026911
0.272000000000000131,-20.852967724892916834
0.273000000000000131,-20.853269642351726532
0.274000000000000132,-20.851161558597652856
0.275000000000000133,-20.846709556550170106
0.276000000000000134,-20.839969177688832502
0.277000000000000135,-20.830986437078443885
0.278000000000000136,-20.819798801486196993
0.279000000000000137,-20.806436128076985170
0.280000000000000138,-20.790921561658812777
0.281000000000000139,-20.773272388901183660
0.282000000000000139,-20.753500848365302289
0.283000000000000140,-20.731614895567396673
0.284000000000000141,-20.707618922645259829
0.285000000000000142,-20.681514432514997992
0.286000000000000143,-20.653300667690839276
0.287000000000000144,-20.622975194196698112
0.288000000000000145,-20.590534441226164830
0.289000000000000146,-20.555974197407955728
0.290000000000000147,-20.519290064709334587
0.291000000000000147,-20.480477871161294701
0.292000000000000148,-20.439534043718165179
0.293000000000000149,-20.396455942672204742
0.294000000000000150,-20.351242159132393539
0.295000000000000151,-20.303892777147289905
0.296000000000000152,-20.254409602105813093
0.297000000000000153,-20.202796357089034984
0.298000000000000154,-20.149058848871032268
0.299000000000000155,-20.093205105280016909
0.300000000000000155,-20.035245485632152906
0.301000000000000156,-19.975192765942022532
0.302000000000000157,-19.913062200596392870
0.303000000000000158,-19.848871562152208270
0.304000000000000159,-19.782641160887614262
0.305000000000000160,-19.714393845696172036
0.306000000000000161,-19.644154987871171869
0.307000000000000162,-19.571952449278818165
0.308000000000000163,-19.497816536367349016
0.309000000000000163,-19.421779941405073799
0.310000000000000164,-19.343877672283046110
0.311000000000000165,-19.264146972159473137
0.312000000000000166,-19.182627230163401322
0.313000000000000167,-19.099359884314171865
0.314000000000000168,-19.014388317752278112
0.315000000000000169,-18.927757749316196367
0.316000000000000170,-18.839515119439177226
0.317000000000000171,-18.749708972279819363
0.318000000000000171,-18.658389334941194448
0.319000000000000172,-18.565607594575475048
0.320000000000000173,-18.471416374114131287
0.321000000000000174,-18.375869407308893955
0.322000000000000175,-18.279021413715113908
0.323000000000000176,-18.180927974197430785
0.324000000000000177,-18.081645407487947352
0.325000000000000178,-17.981230648279087347
0.326000000000000179,-17.879741127287569924
0.327000000000000179,-17.777234653682022270
0.328000000000000180,-17.673769300224769552
0.329000000000000181,-17.569403291439144255
0.330000000000000182,-17.464194895075205949
0.331000000000000183,-17.358202317112038315
0.332000000000000184,-17.251483600500471027
0.333000000000000185,-17.144096527818906139
0.334000000000000186,-17.036098527985316764
0.335000000000000187,-16.927546587140572143
0.336000000000000187,-16.818497163792702764
0.337000000000000188,-16.709006108287340453
0.338000000000000189,-16.599128586647811545
0.339000000000000190,-16.488919008807442879
0.340000000000000191,-16.378430961237569363
0.341000000000000192,-16.267717143958169146
0.342000000000000193,-16.156829311901024226
0.343000000000000194,-16.045818220582070524
0.344000000000000195,-15.934733576025598367
0.345000000000000195,-15.823623988871876378
0.346000000000000196,-15.712536932588871963
0.347000000000000197,-15.601518705699565004
0.348000000000000198,-15.490614397928093027
0.349000000000000199,-15.379867860160658211
0.350000000000000200,-15.269321678111134943
0.351000000000000201,-15.159017149575680250
0.352000000000000202,-15.048994265156505179
0.353000000000000203,-14.939291692331147843
0.354000000000000203,-14.829946762740751964
0.355000000000000204,-14.720995462568524204
0.356000000000000205,-14.612472425878204163
0.357000000000000206,-14.504410930781180156
0.358000000000000207,-14.396842898300496572
0.359000000000000208,-14.289798893800206514
0.360000000000000209,-14.183308130848852002
0.361000000000000210,-14.077398477386907416
0.362000000000000210,-13.972096464069295507
0.363000000000000211,-13.867427294655712444
0.364000000000000212,-13.763414858323628209
0.365000000000000213,-13.660081743780699171
0.366000000000000214,-13.557449255056274851
0.367000000000000215,-13.455537428853901361
0.368000000000000216,-13.354365053349990689
0.369000000000000217,-13.253949688326581935
0.370000000000000218,-13.154307686529410404
0.371000000000000218,-13.055454216145770729
0.372000000000000219,-12.957403284299999768
0.373000000000000220,-12.860167761467881320
0.374000000000000221,-12.763759406714841660
0.375000000000000222,-12.668188893666101791
0.376000000000000223,-12.573465837120938460
0.377000000000000224,-12.479598820226305733
0.378000000000000225,-12.386595422129108357
0.379000000000000226,-12.294462246029485897
0.380000000000000226,-12.203204947561660632
0.381000000000000227,-12.112828263431540066
0.382000000000000228,-12.023336040244677392
0.383000000000000229,-11.934731263460838235
0.384000000000000230,-11.847016086415150582
0.385000000000000231,-11.760191859349125920
0.386000000000000232,-11.674259158397873648
0.387000000000000233,-11.589217814483152580
0.388000000000000234,-11.505066942064805957
0.389000000000000234,-11.421804967706432166
0.390000000000000235,-11.339429658413605395
0.391000000000000236,-11.257938149706243181
0.392000000000000237,-11.177326973389066112
0.393000000000000238,-11.097592084987116579
0.394000000000000239,-11.018728890815477683
0.395000000000000240,-10.940732274655136536
0.396000000000000241,-10.863596624009131730
0.397000000000000242,-10.787315855915400320
0.398000000000000242,-10.711883442295123459
0.399000000000000243,-10.637292434817215536
0.400000000000000244,-10.563535489261791867
0.401000000000000245,-10.490604889367414643
0.402000000000000246,-10.418492570148590204
0.403000000000000247,-10.347190140671857606
0.404000000000000248,-10.276688906280472935
0.405000000000000249,-10.206979890259370691
0.406000000000000250,-10.138053854933314568
0.407000000000000250,-10.069901322192936988
0.408000000000000251,-10.002512593444427225
0.409000000000000252,-9.935877768980150293
0.410000000000000253,-9.869986766768384712
0.411000000000000254,-9.804829340661894932
0.412000000000000255,-9.740395098025702580
0.413000000000000256,-9.676673516785793794
0.414000000000000257,-9.613653961901075462
0.415000000000000258,-9.551325701262145529
0.416000000000000258,-9.489677921020906126
0.417000000000000259,-9.428699740356037751
0.418000000000000260,-9.368380225679956652
0.419000000000000261,-9.308708404293493999
0.420000000000000262,-9.249673277495229939
0.421000000000000263,-9.191263833152898854
0.422000000000000264,-9.133469057744710184
0.423000000000000265,-9.076277947878997665
0.424000000000000266,-9.019679521301045000
0.425000000000000266,-8.963662827396108312
0.426000000000000267,-8.908216957198167307
0.427000000000000268,-8.853331052914217736
0.428000000000000269,-8.798994316974013685
0.429000000000000270,-8.745196020615619403
0.430000000000000271,-8.691925512017121491
0.431000000000000272,-8.639172223985164933
0.432000000000000273,-8.586925681210932026
0.433000000000000274,-8.535175507104538539
0.434000000000000274,-8.483911430218615379
0.435000000000000275,-8.433123290272124706
0.436000000000000276,-8.382801043785415018
0.437000000000000277,-8.332934769337411396
0.438000000000000278,-8.283514672456082195
0.439000000000000279,-8.234531090153080157
0.440000000000000280,-8.185974495113454097
0.441000000000000281,-8.137835499551373530
0.442000000000000282,-8.090104858742611427
0.443000000000000282,-8.042773474244487630
0.444000000000000283,-7.995832396813892906
0.445000000000000284,-7.949272829033875887
0.446000000000000285,-7.903086127659084248
0.447000000000000286,-7.857263805690481107
0.448000000000000287,-7.811797534189141246
0.449000000000000288,-7.766679143839333221
0.450000000000000289,-7.721900626270469914
0.451000000000000290,-7.677454135147611325
0.452000000000000290,-7.633331987039989386
0.453000000000000291,-7.589526662076703012
0.454000000000000292,-7.546030804398836445
0.455000000000000293,-7.502837222416665952
0.456000000000000294,-7.459938888880896180
0.457000000000000295,-7.417328940776267032
0.458000000000000296,-7.375000679045908392
0.459000000000000297,-7.332947568154610352
0.460000000000000298,-7.291163235498852480
0.461000000000000298,-7.249641470671370769
0.462000000000000299,-7.208376224587803804
0.463000000000000300,-7.167361608482671897
0.464000000000000301,-7.126591892781936721
0.465000000000000302,-7.086061505858959109
0.466000000000000303,-7.045765032680678885
0.467000000000000304,-7.005697213350489783
0.468000000000000305,-6.965852941554198985
0.469000000000000306,-6.926227262915178429
0.470000000000000306,-6.886815373264750129
0.471000000000000307,-6.847612616833413490
0.472000000000000308,-6.808614484368696651
0.473000000000000309,-6.769816611184881872
0.474000000000000310,-6.731214775149828355
0.475000000000000311,-6.692804894613980871
0.476000000000000312,-6.654583026286448266
0.477000000000000313,-6.616545363062675378
0.478000000000000314,-6.578688231808373033
0.479000000000000314,-6.541008091104006716
0.480000000000000315,-6.503501528953935740
0.481000000000000316,-6.466165260464364906
0.482000000000000317,-6.428996125493805280
0.483000000000000318,-6.391991086279857015
0.484000000000000319,-6.355147225045774562
0.485000000000000320,-6.318461741590313707
0.486000000000000321,-6.281931950864008130
0.487000000000000322,-6.245555280535046272
0.488000000000000322,-6.209329268547673308
0.489000000000000323,-6.173251560676037641
0.490000000000000324,-6.137319908076088737
0.491000000000000325,-6.101532164838202377
0.492000000000000326,-6.065886285542843481
0.493000000000000327,-6.030380322821798700
0.494000000000000328,-5.995012424926990491
0.495000000000000329,-5.959780833309133996
0.496000000000000330,-5.924683880208091225
0.497000000000000330,-5.889719986256940487
0.498000000000000331,-5.854887658101390890
0.499000000000000332,-5.820185486036350220
0.500000000000000333,-5.785612141661146346
0.501000000000000334,-5.751166375554896071
0.502000000000000335,-5.716847014973414964
0.503000000000000336,-5.682652961569016448
0.504000000000000337,-5.648583189134328109
0.505000000000000338,-5.614636741371333173
0.506000000000000338,-5.580812729686668305
0.507000000000000339,-5.547110331014129869
0.508000000000000340,-5.513528785665331000
0.509000000000000341,-5.480067395209330172
0.510000000000000342,-5.446725520381968444
0.511000000000000343,-5.413502579025640138
0.512000000000000344,-5.380398044060116902
0.513000000000000345,-5.347411441484982042
0.514000000000000346,-5.314542348414252437
0.515000000000000346,-5.281790391143545982
0.516000000000000347,-5.249155243250249292
0.517000000000000348,-5.216636623727102240
0.518000000000000349,-5.184234295149318328
0.519000000000000350,-5.151948061875716967
0.520000000000000351,-5.119777768283894304
0.521000000000000352,-5.087723297039715931
0.522000000000000353,-5.055784567401181206
0.523000000000000353,-5.023961533556760450
0.524000000000000354,-4.992254182998326684
0.525000000000000355,-4.960662534928539813
0.526000000000000356,-4.929186638702811152
0.527000000000000357,-4.897826572305722159
0.528000000000000358,-4.866582440861796144
0.529000000000000359,-4.835454375180550990
0.530000000000000360,-4.804442530335661488
0.531000000000000361,-4.773547084278093600
0.532000000000000361,-4.742768236482958422
0.533000000000000362,-4.712106206629943728
0.534000000000000363,-4.681561233317036219
0.535000000000000364,-4.651133572807284011
0.536000000000000365,-4.620823497808329350
0.537000000000000366,-4.590631296284436225
0.538000000000000367,-4.560557270300622079
0.539000000000000368,-4.530601734898700883
0.540000000000000369,-4.500765017004741075
0.541000000000000369,-4.471047454367704788
0.542000000000000370,-4.441449394528841133
0.543000000000000371,-4.411971193821446313
0.544000000000000372,-4.382613216400643275
0.545000000000000373,-4.353375833302742137
0.546000000000000374,-4.324259421533788839
0.547000000000000375,-4.295264363186851675
0.548000000000000376,-4.266391044587719783
0.549000000000000377,-4.237639855468445127
0.550000000000000377,-4.209011188168375384
0.551000000000000378,-4.180505436862239854
0.552000000000000379,-4.152122996814806122
0.553000000000000380,-4.123864263661672247
0.554000000000000381,-4.095729632715728208
0.555000000000000382,-4.067719498298900227
0.556000000000000383,-4.039834253098566919
0.557000000000000384,-4.012074287548395013
0.558000000000000385,-3.984439989232926305
0.559000000000000385,-3.956931742315634271
0.560000000000000386,-3.929549926989841957
0.561000000000000387,-3.902294918952154745
0.562000000000000388,-3.875167088897880863
0.563000000000000389,-3.848166802037996881
0.564000000000000390,-3.821294417637221663
0.565000000000000391,-3.794550288572703156
0.566000000000000392,-3.767934760912913017
0.567000000000000393,-3.741448173516278786
0.568000000000000393,-3.715090857649066436
0.569000000000000394,-3.688863136622133165
0.570000000000000395,-3.662765325446103670
0.571000000000000396,-3.636797730504439663
0.572000000000000397,-3.610960649244125076
0.573000000000000398,-3.585254369883376313
0.574000000000000399,-3.559679171136088449
0.575000000000000400,-3.534235321952485354
0.576000000000000401,-3.508923081275633571
0.577000000000000401,-3.483742697813395406
0.578000000000000402,-3.458694409825363358
0.579000000000000403,-3.433778444924430850
0.580000000000000404,-3.408995019892600453
0.581000000000000405,-3.384344340510592186
0.582000000000000406,-3.359826601400913493
0.583000000000000407,-3.335441985883969895
0.584000000000000408,-3.311190665846901027
0.585000000000000409,-3.287072801624691287
0.586000000000000409,-3.263088541893250039
0.587000000000000410,-3.239238023574105174
0.588000000000000411,-3.215521371750301505
0.589000000000000412,-3.191938699593239726
0.590000000000000413,-3.168490108300017205
0.591000000000000414,-3.145175687041029455
0.592000000000000415,-3.121995512917455251
0.593000000000000416,-3.098949650928287891
0.594000000000000417,-3.076038153946615950
0.595000000000000417,-3.053261062704894169
0.596000000000000418,-3.030618405788747083
0.597000000000000419,-3.008110199639212112
0.598000000000000420,-2.985736448562929635
0.599000000000000421,-2.963497144750143697
0.600000000000000422,-2.941392268300128343
0.601000000000000423,-2.919421787253830836
0.602000000000000424,-2.897585657633411582
0.603000000000000425,-2.875883823488455615
0.604000000000000425,-2.854316216948558527
0.605000000000000426,-2.832882758282059932
0.606000000000000427,-2.811583355960693531
0.607000000000000428,-2.790417906729810049
0.608000000000000429,-2.769386295684117094
