# C-amorph-3_CS-61461-AC
# h[nm],U(h)[kJ/mol]
0.149999999999999994,113.597761533240145582
0.150999999999999995,110.427289778671749332
0.151999999999999996,107.529864082895983302
0.152999999999999997,104.777969892184117384
0.153999999999999998,102.104479286548439632
0.154999999999999999,99.478138231136824743
0.156000000000000000,96.887568671670223353
0.157000000000000001,94.331254898295583189
0.158000000000000002,91.811616522443273425
0.159000000000000002,89.331779430637084261
0.160000000000000003,86.894053911976854465
0.161000000000000004,84.499432313308673770
0.162000000000000005,82.147644116982718288
0.163000000000000006,79.837470128912883638
0.164000000000000007,77.567133379397560589
0.165000000000000008,75.334663993095745127
0.166000000000000009,73.138188098682235250
0.167000000000000010,70.976124262816313149
0.168000000000000010,68.847290686593950682
0.169000000000000011,66.750936827211106106
0.170000000000000012,64.686717401504708391
0.171000000000000013,62.654627198952596245
0.172000000000000014,60.654913401933107764
0.173000000000000015,58.687979286345218100
0.174000000000000016,56.754289980496118062
0.175000000000000017,54.854287843542621772
0.176000000000000018,52.988322241851939509
0.177000000000000018,51.156596175091983980
0.178000000000000019,49.359130369283668927
0.179000000000000020,47.595744092913562895
0.180000000000000021,45.866051015131496627
0.181000000000000022,44.169467847775436553
0.182000000000000023,42.505233226943900604
0.183000000000000024,40.872434228924070965
0.184000000000000025,39.270038019591460454
0.185000000000000026,37.696926354217779931
0.186000000000000026,36.151930933067063734
0.187000000000000027,34.633867942948562302
0.188000000000000028,33.141570449668002141
0.189000000000000029,31.673917631677305451
0.190000000000000030,30.229860147669512571
0.191000000000000031,28.808441201751008975
0.192000000000000032,27.408813104361666291
0.193000000000000033,26.030249323490785684
0.194000000000000034,24.672152179358807444
0.195000000000000034,23.334056458566148962
0.196000000000000035,22.015629313766147845
0.197000000000000036,20.716666875830725303
0.198000000000000037,19.437088041173527841
0.199000000000000038,18.176925911357468379
0.200000000000000039,16.936317359195562915
0.201000000000000040,15.715491178860167665
0.202000000000000041,14.514755250327198155
0.203000000000000042,13.334483113709183044
0.204000000000000042,12.175100309197492976
0.205000000000000043,11.037070795585503191
0.206000000000000044,9.920883716452198797
0.207000000000000045,8.827040739491037513
0.208000000000000046,7.756044152295618055
0.209000000000000047,6.708385858017010150
0.210000000000000048,5.684537377302080863
0.211000000000000049,4.684940929219847838
0.212000000000000050,3.710001633720099168
0.213000000000000050,2.760080851650853706
0.214000000000000051,1.835490655467604926
0.215000000000000052,0.936489404401140035
0.216000000000000053,0.063278381840617820
0.217000000000000054,-0.784000560183434003
0.218000000000000055,-1.605266414514239681
0.219000000000000056,-2.400499562843312340
0.220000000000000057,-3.169741527632556011
0.221000000000000058,-3.913094012432557722
0.222000000000000058,-4.630717312226101612
0.223000000000000059,-5.322828175074457491
0.224000000000000060,-5.989697194717411577
0.225000000000000061,-6.631645811100308485
0.226000000000000062,-7.249042992283433406
0.227000000000000063,-7.842301667021582823
0.228000000000000064,-8.411874972652098492
0.229000000000000065,-8.958252377951158252
0.230000000000000066,-9.481955735436269350
0.231000000000000066,-9.983535312325383160
0.232000000000000067,-10.463565844099855795
0.233000000000000068,-10.922642649443297103
0.234000000000000069,-11.361377840303040543
0.235000000000000070,-11.780396655999371802
0.236000000000000071,-12.180333945728461842
0.237000000000000072,-12.561830819500681145
0.238000000000000073,-12.925531483544535405
0.239000000000000073,-13.272080272502595477
0.240000000000000074,-13.602118887357406152
0.241000000000000075,-13.916283844950063653
0.242000000000000076,-14.215204142190293268
0.243000000000000077,-14.499499135597067934
0.244000000000000078,-14.769776634640484403
0.245000000000000079,-15.026631205467092300
0.246000000000000080,-15.270642679966149657
0.247000000000000081,-15.502374863758754842
0.248000000000000081,-15.722374435545541260
0.249000000000000082,-15.931170029316991332
0.250000000000000111,-16.129271490193932692
0.251000000000000112,-16.317169294107113586
0.252000000000000113,-16.495334121128131244
0.253000000000000114,-16.664216572009330264
0.254000000000000115,-16.824247017366666057
0.255000000000000115,-16.975835568926139985
0.256000000000000116,-17.119372162341640831
0.257000000000000117,-17.255226741263506085
0.258000000000000118,-17.383749532580562658
0.259000000000000119,-17.505271403064277536
0.260000000000000120,-17.620104287998671566
0.261000000000000121,-17.728541682775432520
0.262000000000000122,-17.830859188861918341
0.263000000000000123,-17.927315106000627054
0.264000000000000123,-18.018151062967699971
0.265000000000000124,-18.103592679695978518
0.266000000000000125,-18.183850254052341455
0.267000000000000126,-18.259119467041742269
0.268000000000000127,-18.329582100690206659
0.269000000000000128,-18.395406763329724242
0.270000000000000129,-18.456749617468599212
0.271000000000000130,-18.513755105877329754
0.272000000000000131,-18.566556671951438773
0.273000000000000131,-18.615277470826178785
0.274000000000000132,-18.660031068113283936
0.275000000000000133,-18.700922123505531403
0.276000000000000134,-18.738047056850128058
0.277000000000000135,-18.771494694626245092
0.278000000000000136,-18.801346895076122223
0.279000000000000137,-18.827679150531544394
0.280000000000000138,-18.850561165749954995
0.281000000000000139,-18.870057411326136787
0.282000000000000139,-18.886227651477323519
0.283000000000000140,-18.899127445712409212
0.284000000000000141,-18.908808624089704864
0.285000000000000142,-18.915319735944017054
0.286000000000000143,-18.918706472122675422
0.287000000000000144,-18.919012060912393736
0.288000000000000145,-18.916277637966778968
0.289000000000000146,-18.910542590655591511
0.290000000000000147,-18.901844877356566599
0.291000000000000147,-18.890221322295492001
0.292000000000000148,-18.875707886614545572
0.293000000000000149,-18.858339916410649550
0.294000000000000150,-18.838152368538040093
0.295000000000000151,-18.815180015011303993
0.296000000000000152,-18.789457626878693475
0.297000000000000153,-18.761020138460857254
0.298000000000000154,-18.729902792868148964
0.299000000000000155,-18.696141269720630618
0.300000000000000155,-18.659771796000406141
0.301000000000000156,-18.620831240965181053
0.302000000000000157,-18.579357196046942136
0.303000000000000158,-18.535388040649969810
0.304000000000000159,-18.488962994749073232
0.305000000000000160,-18.440122159171789207
0.306000000000000161,-18.388906544429083567
0.307000000000000162,-18.335358088936395404
0.308000000000000163,-18.279519667442698960
0.309000000000000163,-18.221435090459138451
0.310000000000000164,-18.161149095451118995
0.311000000000000165,-18.098707330528959858
0.312000000000000166,-18.034156331342675372
0.313000000000000167,-17.967543491856204696
0.314000000000000168,-17.898917029645396326
0.315000000000000169,-17.828325946333585250
0.316000000000000170,-17.755819983747429092
0.317000000000000171,-17.681449576344824948
0.318000000000000171,-17.605265800436200152
0.319000000000000172,-17.527320320690471078
0.320000000000000173,-17.447665334387160385
0.321000000000000174,-17.366353513847180068
0.322000000000000175,-17.283437947446351757
0.323000000000000176,-17.198972079588440209
0.324000000000000177,-17.113009649987255045
0.325000000000000178,-17.025604632581774922
0.326000000000000179,-16.936811174383215928
0.327000000000000179,-16.846683534528771986
0.328000000000000180,-16.755276023793506113
0.329000000000000181,-16.662642944790313493
0.330000000000000182,-16.568838533065722629
0.331000000000000183,-16.473916899280180104
0.332000000000000184,-16.377931972641331271
0.333000000000000185,-16.280937445741177072
0.334000000000000186,-16.182986720930436775
0.335000000000000187,-16.084132858347118145
0.336000000000000187,-15.984428525701019908
0.337000000000000188,-15.883925949901183117
0.338000000000000189,-15.782676870599996022
0.339000000000000190,-15.680732495714622132
0.340000000000000191,-15.578143458974571089
0.341000000000000192,-15.474959779533481452
0.342000000000000193,-15.371230823672188848
0.343000000000000194,-15.267005268611379520
0.344000000000000195,-15.162331068442508553
0.345000000000000195,-15.057255422178275950
0.346000000000000196,-14.951824743915830496
0.347000000000000197,-14.846084635099424887
0.348000000000000198,-14.740079858862847217
0.349000000000000199,-14.633854316426319286
0.350000000000000200,-14.527451025517425620
0.351000000000000201,-14.420912100781091425
0.352000000000000202,-14.314278736139367965
0.353000000000000203,-14.207591189058343062
0.354000000000000203,-14.100888766676167307
0.355000000000000204,-13.994209813743225368
0.356000000000000205,-13.887591702323481613
0.357000000000000206,-13.781070823203616982
0.358000000000000207,-13.674682578954769241
0.359000000000000208,-13.568461378590807698
0.360000000000000209,-13.462440633765385911
0.361000000000000210,-13.356652756449454600
0.362000000000000210,-13.251129158030343191
0.363000000000000211,-13.145900249772981994
0.364000000000000212,-13.040995444584003948
0.365000000000000213,-12.936443160019070575
0.366000000000000214,-12.832270822474470151
0.367000000000000215,-12.728504872504094791
0.368000000000000216,-12.625170771203617193
0.369000000000000217,-12.522293007604314852
0.370000000000000218,-12.419895107019808478
0.371000000000000218,-12.317999640289901464
0.372000000000000219,-12.216628233866634545
0.373000000000000220,-12.115801580689003814
0.374000000000000221,-12.015539451793646464
0.375000000000000222,-11.915860708610248153
0.376000000000000223,-11.816783315891713713
0.377000000000000224,-11.718324355230398837
0.378000000000000225,-11.620500039113162316
0.379000000000000226,-11.523325725469335978
0.380000000000000226,-11.426815932667327758
0.381000000000000227,-11.330984354916747492
0.382000000000000228,-11.235843878034774690
0.383000000000000229,-11.141406595536697210
0.384000000000000230,-11.047683825012054371
0.385000000000000231,-10.954686124749660081
0.386000000000000232,-10.862423310575682223
0.387000000000000233,-10.770904472870988400
0.388000000000000234,-10.680137993734955870
0.389000000000000234,-10.590131564264900987
0.390000000000000235,-10.500892201921120162
0.391000000000000236,-10.412426267949507874
0.392000000000000237,-10.324739484834612568
0.393000000000000238,-10.237836953757774694
0.394000000000000239,-10.151723172035939768
0.395000000000000240,-10.066402050518338029
0.396000000000000241,-9.981876930919312940
0.397000000000000242,-9.898150603066842024
0.398000000000000242,-9.815225322047655965
0.399000000000000243,-9.733102825230758981
0.400000000000000244,-9.651784349152508824
0.401000000000000245,-9.571270646247523217
0.402000000000000246,-9.491562001410571270
0.403000000000000247,-9.412658248375761261
0.404000000000000248,-9.334558785900460620
0.405000000000000249,-9.257262593742058954
0.406000000000000250,-9.180768248416857347
0.407000000000000250,-9.105073938731216288
0.408000000000000251,-9.030177481075808643
0.409000000000000252,-8.956076334474929013
0.410000000000000253,-8.882767615383285076
0.411000000000000254,-8.810248112223765915
0.412000000000000255,-8.738514299660135265
0.413000000000000256,-8.667562352599592401
0.414000000000000257,-8.597388159920404505
0.415000000000000258,-8.527987337920999167
0.416000000000000258,-8.459355243486916365
0.417000000000000259,-8.391486986973067275
0.418000000000000260,-8.324377444799079484
0.419000000000000261,-8.258021271755961124
0.420000000000000262,-8.192412913023062515
0.421000000000000263,-8.127546615894546633
0.422000000000000264,-8.063416441215078834
0.423000000000000265,-8.000016274524906379
0.424000000000000266,-7.937339836914986790
0.425000000000000266,-7.875380695592842706
0.426000000000000267,-7.814132274160618508
0.427000000000000268,-7.753587862606819314
0.428000000000000269,-7.693740627013623268
0.429000000000000270,-7.634583618981975128
0.430000000000000271,-7.576109784776844158
0.431000000000000272,-7.518311974195382774
0.432000000000000273,-7.461182949160852118
0.433000000000000274,-7.404715392045424949
0.434000000000000274,-7.348901913725232937
0.435000000000000275,-7.293735061371057427
0.436000000000000276,-7.239207325978403773
0.437000000000000277,-7.185311149640682515
0.438000000000000278,-7.132038932569445322
0.439000000000000279,-7.079383039865794203
0.440000000000000280,-7.027335808046989207
0.441000000000000281,-6.975889551332612015
0.442000000000000282,-6.925036567694620615
0.443000000000000282,-6.874769144675599186
0.444000000000000283,-6.825079564979813718
0.445000000000000284,-6.775960111841532907
0.446000000000000285,-6.727403074175074771
0.447000000000000286,-6.679400751511461287
0.448000000000000287,-6.631945458725951426
0.449000000000000288,-6.585029530561413935
0.450000000000000289,-6.538645325951989662
0.451000000000000290,-6.492785232151772945
0.452000000000000290,-6.447441668673222992
0.453000000000000291,-6.402607091039820730
0.454000000000000292,-6.358273994357745984
0.455000000000000293,-6.314434916711074486
0.456000000000000294,-6.271082442385161215
0.457000000000000295,-6.228209204922693587
0.458000000000000296,-6.185807890016999266
0.459000000000000297,-6.143871238247054833
0.460000000000000298,-6.102392047658635299
0.461000000000000298,-6.061363176196001845
0.462000000000000299,-6.020777543988503844
0.463000000000000300,-5.980628135496299791
0.464000000000000301,-5.940908001519535020
0.465000000000000302,-5.901610261075100006
0.466000000000000303,-5.862728103145093073
0.467000000000000304,-5.824254788301035823
0.468000000000000305,-5.786183650207865625
0.469000000000000306,-5.748508097011601592
0.470000000000000306,-5.711221612614604481
0.471000000000000307,-5.674317757842089804
0.472000000000000308,-5.637790171503816339
0.473000000000000309,-5.601632571354424606
0.474000000000000310,-5.565838754956123680
0.475000000000000311,-5.530402600447155592
0.476000000000000312,-5.495318067219619351
0.477000000000000313,-5.460579196509820044
0.478000000000000314,-5.426180111904615799
0.479000000000000314,-5.392115019766943185
0.480000000000000315,-5.358378209583579022
0.481000000000000316,-5.324964054238388478
0.482000000000000317,-5.291867010213914035
0.483000000000000318,-5.259081617724335800
0.484000000000000319,-5.226602500782609795
0.485000000000000320,-5.194424367204659276
0.486000000000000321,-5.162542008553242745
0.487000000000000322,-5.130950300024243127
0.488000000000000322,-5.099644200277866801
0.489000000000000323,-5.068618751217394802
0.490000000000000324,-5.037869077717809674
0.491000000000000325,-5.007390387306779544
0.492000000000000326,-4.977177969800210988
0.493000000000000327,-4.947227196894731449
0.494000000000000328,-4.917533521719199996
0.495000000000000329,-4.888092478347421554
0.496000000000000330,-4.858899681274063909
0.497000000000000330,-4.829950824855865577
0.498000000000000331,-4.801241682719942894
0.499000000000000332,-4.772768107141208915
0.500000000000000333,-4.744526028390625427
0.501000000000000334,-4.716511454056074193
0.502000000000000335,-4.688720468337547409
0.503000000000000336,-4.661149231318348463
0.504000000000000337,-4.633793978213804898
0.505000000000000338,-4.606651018599126957
0.506000000000000338,-4.579716735617833656
0.507000000000000339,-4.552987585172212803
0.508000000000000340,-4.526460095097182723
0.509000000000000341,-4.500130864318928836
0.510000000000000342,-4.473996561999549648
0.511000000000000343,-4.448053926668993796
0.512000000000000344,-4.422299765345475642
0.513000000000000345,-4.396730952645485857
0.514000000000000346,-4.371344429884607585
0.515000000000000346,-4.346137204170051227
0.516000000000000347,-4.321106347486042054
0.517000000000000348,-4.296248995773063406
0.518000000000000349,-4.271562348001753939
0.519000000000000350,-4.247043665242546950
0.520000000000000351,-4.222690269731780077
0.521000000000000352,-4.198499543935204414
0.522000000000000353,-4.174468929609593815
0.523000000000000353,-4.150595926863307028
0.524000000000000354,-4.126878093216495458
0.525000000000000355,-4.103313042661612009
0.526000000000000356,-4.079898444724952000
0.527000000000000357,-4.056632023529839870
0.528000000000000358,-4.033511556862023895
0.529000000000000359,-4.010534875237910413
0.530000000000000360,-3.987699860976151367
0.531000000000000361,-3.965004447273119403
0.532000000000000361,-3.942446617282755916
0.533000000000000362,-3.920024403201256114
0.534000000000000363,-3.897735885357065833
0.535000000000000364,-3.875579191306548488
0.536000000000000365,-3.853552494935780892
0.537000000000000366,-3.831654015568831451
0.538000000000000367,-3.809882017082816930
0.539000000000000368,-3.788234807030210760
0.540000000000000369,-3.766710735768512563
0.541000000000000369,-3.745308195597772283
0.542000000000000370,-3.724025619906094597
0.543000000000000371,-3.702861482323453579
0.544000000000000372,-3.681814295884025423
0.545000000000000373,-3.660882612197282615
0.546000000000000374,-3.640065020628006742
0.547000000000000375,-3.619360147485455315
0.548000000000000376,-3.598766655221859789
0.549000000000000377,-3.578283241640355605
0.550000000000000377,-3.557908639112536520
0.551000000000000378,-3.537641613805751373
0.552000000000000379,-3.517480964920271624
0.553000000000000380,-3.497425523936406933
0.554000000000000381,-3.477474153871670470
0.555000000000000382,-3.457625748548132094
0.556000000000000383,-3.437879231869909180
0.557000000000000384,-3.418233557110988752
0.558000000000000385,-3.398687706213337378
0.559000000000000385,-3.379240689095385441
0.560000000000000386,-3.359891542970886658
0.561000000000000387,-3.340639331678212365
0.562000000000000388,-3.321483145020053485
0.563000000000000389,-3.302422098113571902
0.564000000000000390,-3.283455330750963519
0.565000000000000391,-3.264582006770456069
0.566000000000000392,-3.245801313437708835
0.567000000000000393,-3.227112460837596952
0.568000000000000393,-3.208514681276331881
0.569000000000000394,-3.190007228693908292
0.570000000000000395,-3.171589378086844047
0.571000000000000396,-3.153260424941102258
0.572000000000000397,-3.135019684675241614
0.573000000000000398,-3.116866492093644858
0.574000000000000399,-3.098800200849834763
0.575000000000000400,-3.080820182919758565
0.576000000000000401,-3.062925828085005797
0.577000000000000401,-3.045116543425884448
0.578000000000000402,-3.027391752824249771
0.579000000000000403,-3.009750896476025339
0.580000000000000404,-2.992193430413351951
0.581000000000000405,-2.974718826036232056
0.582000000000000406,-2.957326569653618620
0.583000000000000407,-2.940016162033828984
0.584000000000000408,-2.922787117964218861
0.585000000000000409,-2.905638965819987263
0.586000000000000409,-2.888571247142028842
0.587000000000000410,-2.871583516223751520
0.588000000000000411,-2.854675339706708392
0.589000000000000412,-2.837846296185004835
0.590000000000000413,-2.821095975818297852
0.591000000000000414,-2.804423979953354351
0.592000000000000415,-2.787829920754026691
0.593000000000000416,-2.771313420839518482
0.594000000000000417,-2.754874112930855379
0.595000000000000417,-2.738511639505484929
0.596000000000000418,-2.722225652459777656
0.597000000000000419,-2.706015812779478669
0.598000000000000420,-2.689881790217843793
0.599000000000000421,-2.673823262981469995
0.600000000000000422,-2.657839917423607368
0.601000000000000423,-2.641931447744930050
0.602000000000000424,-2.626097555701572439
0.603000000000000425,-2.610337950320382738
0.604000000000000425,-2.594652347621232202
0.605000000000000426,-2.579040470346286362
0.606000000000000427,-2.563502047696168962
0.607000000000000428,-2.548036815072775685
0.608000000000000429,-2.532644513828822053
0.609000000000000430,-2.517324891023799971
