# C-amorph-3_BENZENE-AC
# h[nm],U(h)[kJ/mol]
0.200000000000000011,58.491335387281672809
0.201000000000000012,58.166129130686215376
0.202000000000000013,57.050812766552084554
0.203000000000000014,55.602757321591262496
0.204000000000000015,54.072146571295718331
0.205000000000000016,52.580630055238351872
0.206000000000000016,51.173974673179017714
0.207000000000000017,49.856425653479433890
0.208000000000000018,48.612387901307734239
0.209000000000000019,47.419473866154220332
0.210000000000000020,46.255804738550153843
0.211000000000000021,45.103598680084147077
0.212000000000000022,43.950456882205685361
0.213000000000000023,42.789307516013096233
0.214000000000000024,41.617644946231656888
0.215000000000000024,40.436473498865481702
0.216000000000000025,39.249206363174529599
0.217000000000000026,38.060661928506902996
0.218000000000000027,36.876227854622506186
0.219000000000000028,35.701216946946594533
0.220000000000000029,34.540410714548940518
0.221000000000000030,33.397770670556120365
0.222000000000000031,32.276289897170833854
0.223000000000000032,31.177955211516273692
0.224000000000000032,30.103791369296196478
0.225000000000000033,29.053961701396218587
0.226000000000000034,28.027903427792050906
0.227000000000000035,27.024480001072948454
0.228000000000000036,26.042136803608901374
0.229000000000000037,25.079050129148765080
0.230000000000000038,24.133262506490396504
0.231000000000000039,23.202800030624075589
0.232000000000000040,22.285769464621477454
0.233000000000000040,21.380434501767126676
0.234000000000000041,20.485271785831301372
0.235000000000000042,19.599008138250610500
0.236000000000000043,18.720640995073804191
0.237000000000000044,17.849444371367859219
0.238000000000000045,16.984962798484918522
0.239000000000000046,16.126995665870598629
0.240000000000000047,15.275574282906305257
0.241000000000000048,14.430933790037205000
0.242000000000000048,13.593481818445431131
0.243000000000000049,12.763765544621746173
0.244000000000000050,11.942438526424245637
0.245000000000000051,11.130228452549772555
0.246000000000000052,10.327906696350627413
0.247000000000000053,9.536260343357144009
0.248000000000000054,8.756067163240192741
0.249000000000000055,7.988073823021719200
0.250000000000000056,7.232977489527405268
0.251000000000000056,6.491410844783788825
0.252000000000000057,5.763930436992440676
0.253000000000000058,5.051008210087772454
0.254000000000000059,4.353025994629741824
0.255000000000000060,3.670272699684345330
0.256000000000000061,3.002943917149776709
0.257000000000000062,2.351143634493424894
0.258000000000000063,1.714887746978203342
0.259000000000000064,1.094109064229098038
0.260000000000000064,0.488663516646660967
0.261000000000000065,-0.101662716874593426
0.262000000000000066,-0.677145418621661777
0.263000000000000067,-1.238114115305563923
0.264000000000000068,-1.784943646874721512
0.265000000000000069,-2.318045707957015811
0.266000000000000070,-2.837860523978407823
0.267000000000000071,-3.344848799509860804
0.268000000000000071,-3.839484052859797547
0.269000000000000072,-4.322245428700133729
0.270000000000000073,-4.793611059835642507
0.271000000000000074,-5.254052030264688256
0.272000000000000075,-5.704026974532474092
0.273000000000000076,-6.143977333084540859
0.274000000000000077,-6.574323269884271959
0.275000000000000078,-6.995460246919603442
0.276000000000000079,-7.407756240318998486
0.277000000000000079,-7.811549574533761309
0.278000000000000080,-8.207147344310211423
0.279000000000000081,-8.594824388856578068
0.280000000000000082,-8.974822778576101001
0.281000000000000083,-9.347351771865840320
0.282000000000000084,-9.712588197640055654
0.283000000000000085,-10.070677218305739586
0.284000000000000086,-10.421733427776516123
0.285000000000000087,-10.765842239643866662
0.286000000000000087,-11.103061521729122418
0.287000000000000088,-11.433423434813914099
0.288000000000000089,-11.756936435301943433
0.289000000000000090,-12.073587403818825337
0.290000000000000091,-12.383343864233946618
0.291000000000000092,-12.686156260224922931
0.292000000000000093,-12.981960259240787892
0.293000000000000094,-13.270679056505281679
0.294000000000000095,-13.552225654491598661
0.295000000000000095,-13.826505096058516742
0.296000000000000096,-14.093416632131845034
0.297000000000000097,-14.352855807420578316
0.298000000000000098,-14.604716450151675744
0.299000000000000099,-14.848892554175943559
0.300000000000000100,-15.085280044026154300
0.301000000000000101,-15.313778415590793003
0.302000000000000102,-15.534292246994052533
0.303000000000000103,-15.746732576045630481
0.304000000000000103,-15.951018142238208242
0.305000000000000104,-16.147076492730501940
0.306000000000000105,-16.334844953061505635
0.307000000000000106,-16.514271464500801301
0.308000000000000107,-16.685315290957667855
0.309000000000000108,-16.847947599253259909
0.310000000000000109,-17.002151917313760521
0.311000000000000110,-17.147924475473882211
0.312000000000000111,-17.285274436600456482
0.313000000000000111,-17.414224021159327549
0.314000000000000112,-17.534808533666932817
0.315000000000000113,-17.647076297197141770
0.316000000000000114,-17.751088502762609522
0.317000000000000115,-17.846918980465709126
0.318000000000000116,-17.934653899325191162
0.319000000000000117,-18.014391402637617290
0.320000000000000118,-18.086241185634314377
0.321000000000000119,-18.150324022052700457
0.322000000000000119,-18.206771246059538782
0.323000000000000120,-18.255724195750438810
0.324000000000000121,-18.297333624209997538
0.325000000000000122,-18.331759083853651049
0.326000000000000123,-18.359168289492338033
0.327000000000000124,-18.379736465267114909
0.328000000000000125,-18.393645680297481704
0.329000000000000126,-18.401084177577192946
0.330000000000000127,-18.402245700338291101
0.331000000000000127,-18.397328819790750742
0.332000000000000128,-18.386536267833463398
0.333000000000000129,-18.370074278024752346
0.334000000000000130,-18.348151937799080713
0.335000000000000131,-18.320980554622746439
0.336000000000000132,-18.288773038495794054
0.337000000000000133,-18.251743302932485591
0.338000000000000134,-18.210105686288219573
0.339000000000000135,-18.164074395048018573
0.340000000000000135,-18.113862970451556578
0.341000000000000136,-18.059683779601240161
0.342000000000000137,-18.001747531985671458
0.343000000000000138,-17.940262822147914790
0.344000000000000139,-17.875435699039933013
0.345000000000000140,-17.807469262428178070
0.346000000000000141,-17.736563286552449625
0.347000000000000142,-17.662913871089632067
0.348000000000000143,-17.586713119336113920
0.349000000000000143,-17.508148843396529770
0.350000000000000144,-17.427404296052081634
0.351000000000000145,-17.344657928878753239
0.352000000000000146,-17.260083176093210966
0.353000000000000147,-17.173848263522295099
0.354000000000000148,-17.086116042019646954
0.355000000000000149,-16.997043844590372430
0.356000000000000150,-16.906783366430264692
0.357000000000000151,-16.815480567040623328
0.358000000000000151,-16.723275593541682582
0.359000000000000152,-16.630302724276866400
0.360000000000000153,-16.536690331776348728
0.361000000000000154,-16.442560864130996379
0.362000000000000155,-16.348030843815671176
0.363000000000000156,-16.253210882994984843
0.364000000000000157,-16.158205714342791737
0.365000000000000158,-16.063114236410264368
0.366000000000000159,-15.968029572584072184
0.367000000000000159,-15.873039142687449754
0.368000000000000160,-15.778224746291101610
0.369000000000000161,-15.683662656817720205
0.370000000000000162,-15.589423725544113708
0.371000000000000163,-15.495573494626700750
0.372000000000000164,-15.402172318300234366
0.373000000000000165,-15.309275491425509585
0.374000000000000166,-15.216933384588930522
0.375000000000000167,-15.125191584985135052
0.376000000000000167,-15.034091042343508349
0.377000000000000168,-14.943668219189254032
0.378000000000000169,-14.853955244760550514
0.379000000000000170,-14.764980071934397543
0.380000000000000171,-14.676766636544860134
0.381000000000000172,-14.589335018508961639
0.382000000000000173,-14.502701604206427177
0.383000000000000174,-14.416879249590897061
0.384000000000000175,-14.331877443540525618
0.385000000000000175,-14.247702470986450152
0.386000000000000176,-14.164357575387327870
0.387000000000000177,-14.081843120147123471
0.388000000000000178,-14.000156748602325507
0.389000000000000179,-13.919293542231883976
0.390000000000000180,-13.839246176770874541
0.391000000000000181,-13.760005075934618191
0.392000000000000182,-13.681558562485609087
0.393000000000000183,-13.603893006399900401
0.394000000000000183,-13.526992969913305132
0.395000000000000184,-13.450841349250339363
0.396000000000000185,-13.375419512860514004
0.397000000000000186,-13.300707436007474627
0.398000000000000187,-13.226683831576092842
0.399000000000000188,-13.153326276981772480
0.400000000000000189,-13.080611337083869472
0.401000000000000190,-13.008514683022372793
0.402000000000000191,-12.937011206913032524
0.403000000000000191,-12.866075132351165067
0.404000000000000192,-12.795680120688901482
0.405000000000000193,-12.725799373063884090
0.406000000000000194,-12.656405728170090796
0.407000000000000195,-12.587471755773304238
0.408000000000000196,-12.518969845984464939
0.409000000000000197,-12.450872294314589084
0.410000000000000198,-12.383151382544252073
0.411000000000000199,-12.315779455449234803
0.412000000000000199,-12.248728993432065337
0.413000000000000200,-12.181972681116532087
0.414000000000000201,-12.115483471968705231
0.415000000000000202,-12.049234649014318066
0.416000000000000203,-11.983199881727609082
0.417000000000000204,-11.917353279171745584
0.418000000000000205,-11.851669439475196910
0.419000000000000206,-11.786123495732388378
0.420000000000000207,-11.720691158420088129
0.421000000000000207,-11.655348754424196045
0.422000000000000208,-11.590073262773625373
0.423000000000000209,-11.524842347180413782
0.424000000000000210,-11.459634385486554109
0.425000000000000211,-11.394428496119358485
0.426000000000000212,-11.329204561658286821
0.427000000000000213,-11.263943249616417575
0.428000000000000214,-11.198626030540465237
0.429000000000000214,-11.133235193532929230
0.430000000000000215,-11.067753859299861219
0.431000000000000216,-11.002165990827396769
0.432000000000000217,-10.936456401789159898
0.433000000000000218,-10.870610762786103720
0.434000000000000219,-10.804615605519027000
0.435000000000000220,-10.738458324992860682
0.436000000000000221,-10.672127179850305012
0.437000000000000222,-10.605611290930900381
0.438000000000000222,-10.538900638149922173
0.439000000000000223,-10.471986055789670900
0.440000000000000224,-10.404859226293755370
0.441000000000000225,-10.337512672653073054
0.442000000000000226,-10.269939749470179180
0.443000000000000227,-10.202134632786165724
0.444000000000000228,-10.134092308752682854
0.445000000000000229,-10.065808561228823947
0.446000000000000230,-9.997279958380570264
0.447000000000000230,-9.928503838358322398
0.448000000000000231,-9.859478294125411324
0.449000000000000232,-9.790202157508234748
0.450000000000000233,-9.720674982536435138
0.451000000000000234,-9.650897028138862410
0.452000000000000235,-9.580869240259071162
0.453000000000000236,-9.510593233451256623
0.454000000000000237,-9.440071272015803316
0.455000000000000238,-9.369306250730591756
0.456000000000000238,-9.298301675232568897
0.457000000000000239,-9.227061642101217487
0.458000000000000240,-9.155590818693855937
0.459000000000000241,-9.083894422779883016
0.460000000000000242,-9.011978202019562900
0.461000000000000243,-8.939848413330135912
0.462000000000000244,-8.867511802180578329
0.463000000000000245,-8.794975581853552882
0.464000000000000246,-8.722247412711901404
0.465000000000000246,-8.649335381504284825
0.466000000000000247,-8.576247980743195498
0.467000000000000248,-8.502994088186346389
0.468000000000000249,-8.429582946450924652
0.469000000000000250,-8.356024142788072595
0.470000000000000251,-8.282327589043573468
0.471000000000000252,-8.208503501828714022
0.472000000000000253,-8.134562382924062973
0.473000000000000254,-8.060514999936879477
0.474000000000000254,-7.986372367231784786
0.475000000000000255,-7.912145727152489094
0.476000000000000256,-7.837846531551217133
0.477000000000000257,-7.763486423641031919
0.478000000000000258,-7.689077220184747929
0.479000000000000259,-7.614630894033250108
0.480000000000000260,-7.540159557024445292
0.481000000000000261,-7.465675443253050325
0.482000000000000262,-7.391190892720381100
0.483000000000000262,-7.316718335372137005
0.484000000000000263,-7.242270275531071277
0.485000000000000264,-7.167859276730669471
0.486000000000000265,-7.093497946954864020
0.487000000000000266,-7.019198924287894492
0.488000000000000267,-6.944974862977700170
0.489000000000000268,-6.870838419915375361
0.490000000000000269,-6.796802241532326150
0.491000000000000270,-6.722878951116288526
0.492000000000000270,-6.649081136546355353
0.493000000000000271,-6.575421338446856723
0.494000000000000272,-6.501912038759047441
0.495000000000000273,-6.428565649729018006
0.496000000000000274,-6.355394503309940823
0.497000000000000275,-6.282410840975860999
0.498000000000000276,-6.209626803944053641
0.499000000000000277,-6.137054423802469572
0.500000000000000222,-6.064705613538185602
0.501000000000000334,-5.992592158962664506
0.502000000000000224,-5.920725710529104013
0.503000000000000336,-5.849117775536667452
0.504000000000000226,-5.777779710716592021
0.505000000000000338,-5.706722715194092466
0.506000000000000227,-5.635957823820671564
0.507000000000000339,-5.565495900870183199
0.508000000000000229,-5.495347634092776268
0.509000000000000341,-5.425523529119723243
0.510000000000000231,-5.356033904212911700
0.511000000000000343,-5.286888885351539002
0.512000000000000233,-5.218098401649575280
0.513000000000000345,-5.149672181096319079
0.514000000000000234,-5.081619746613351474
0.515000000000000346,-5.013950412419964309
0.516000000000000236,-4.946673280700260911
0.517000000000000348,-4.879797238563934769
0.518000000000000238,-4.813330955293710467
0.519000000000000350,-4.747282879871431049
0.520000000000000240,-4.681661238775701506
0.521000000000000352,-4.616474034043164032
0.522000000000000242,-4.551729041586124680
0.523000000000000353,-4.487433809758738512
0.524000000000000243,-4.423595658164511057
0.525000000000000355,-4.360221676697350723
0.526000000000000245,-4.297318724809052526
0.527000000000000357,-4.234893430995436248
0.528000000000000247,-4.172952192494252088
0.529000000000000359,-4.111501175187148860
0.530000000000000249,-4.050546313698899503
0.531000000000000361,-3.990093311686417454
0.532000000000000250,-3.930147642310894973
0.533000000000000362,-3.870714548885717754
0.534000000000000252,-3.811799045693696542
0.535000000000000364,-3.753405918966512989
0.536000000000000254,-3.695539728020077241
0.537000000000000366,-3.638204806538817504
0.538000000000000256,-3.581405264002994748
0.539000000000000368,-3.525144987252131212
0.540000000000000258,-3.469427642178931848
0.541000000000000369,-3.414256675547006292
0.542000000000000259,-3.359635316926998350
0.543000000000000371,-3.305566580744740524
0.544000000000000261,-3.252053268436096545
0.545000000000000373,-3.199097970702598825
0.546000000000000263,-3.146703069862650803
0.547000000000000375,-3.094870742292553878
0.548000000000000265,-3.043602960952656922
0.549000000000000377,-2.992901497992896065
0.550000000000000266,-2.942767927433306063
0.551000000000000378,-2.893203627914192833
0.552000000000000268,-2.844209785511558231
0.553000000000000380,-2.795787396612905873
0.554000000000000270,-2.747937270849201585
0.555000000000000382,-2.700660034078325111
0.556000000000000272,-2.653956131416120634
0.557000000000000384,-2.607825830310550597
0.558000000000000274,-2.562269223655360584
0.559000000000000385,-2.517286232938973800
0.560000000000000275,-2.472876611425256499
0.561000000000000387,-2.429039947362165552
0.562000000000000277,-2.385775667215043860
0.563000000000000389,-2.343083038920942496
0.564000000000000279,-2.300961175160858296
0.565000000000000391,-2.259409036646560232
0.566000000000000281,-2.218425435419055347
0.567000000000000393,-2.178009038155632737
0.568000000000000282,-2.138158369482784149
0.569000000000000394,-2.098871815292018717
0.570000000000000284,-2.060147626056247905
0.571000000000000396,-2.021983920143855862
0.572000000000000286,-1.984378687128371066
0.573000000000000398,-1.947329791091037210
0.574000000000000288,-1.910834973914362633
0.575000000000000400,-1.874891858564270652
0.576000000000000290,-1.839497952358939870
0.577000000000000401,-1.804650650222235031
0.578000000000000291,-1.770347237920002925
0.579000000000000403,-1.736584895277268004
0.580000000000000293,-1.703360699374809384
0.581000000000000405,-1.670671627723271158
0.582000000000000295,-1.638514561413526582
0.583000000000000407,-1.606886288241540894
0.584000000000000297,-1.575783505806603646
0.585000000000000409,-1.545202824581405121
0.586000000000000298,-1.515140770952896343
0.587000000000000410,-1.485593790232572209
0.588000000000000300,-1.456558249635274693
0.589000000000000412,-1.428030441225269787
0.590000000000000302,-1.400006584828817013
0.591000000000000414,-1.372482830912197471
0.592000000000000304,-1.345455263424409242
0.593000000000000416,-1.318919902603692851
0.594000000000000306,-1.292872707747254157
0.595000000000000417,-1.267309579943378894
0.596000000000000307,-1.242226364765429469
0.597000000000000419,-1.217618854927082772
0.598000000000000309,-1.193482792898368006
0.599000000000000421,-1.169813873481921673
0.600000000000000311,-1.146607746349189050
0.601000000000000423,-1.123860018536027905
0.602000000000000313,-1.101566256897591689
0.603000000000000425,-1.079721990521929076
0.604000000000000314,-1.058322713102393120
0.605000000000000426,-1.037363885268300923
0.606000000000000316,-1.016840936873993240
0.607000000000000428,-0.996749269245889358
0.608000000000000318,-0.977084257387682897
0.609000000000000430,-0.957841252143406208
0.610000000000000320,-0.939015582318511677
0.611000000000000432,-0.920602556758817969
0.612000000000000322,-0.902597466387497271
0.613000000000000433,-0.884995586200031825
0.614000000000000323,-0.867792177217343030
0.615000000000000435,-0.850982488397117764
0.616000000000000325,-0.834561758503547302
0.617000000000000437,-0.818525217935573535
0.618000000000000327,-0.802868090513904398
0.619000000000000439,-0.787585595226924062
0.620000000000000329,-0.772672947935815868
0.621000000000000441,-0.758125363039082956
0.622000000000000330,-0.743938055096775686
0.623000000000000442,-0.730106240414668872
0.624000000000000332,-0.716625138588762978
0.625000000000000444,-0.703489974010355068
0.626000000000000334,-0.690695977332063338
0.627000000000000446,-0.678238386895140821
0.628000000000000336,-0.666112450118437671
0.629000000000000448,-0.654313424849381486
0.630000000000000338,-0.642836580677409120
0.631000000000000449,-0.631677200210162271
0.632000000000000339,-0.620830580312953795
0.633000000000000451,-0.610292033311841675
0.634000000000000341,-0.600056888160804158
0.635000000000000453,-0.590120491573401407
0.636000000000000343,-0.580478209119385968
0.637000000000000455,-0.571125426286735682
0.638000000000000345,-0.562057549509532905
0.639000000000000457,-0.553270007162152799
0.640000000000000346,-0.544758250520269938
0.641000000000000458,-0.536517754689100346
0.642000000000000348,-0.528544019499407769
0.643000000000000460,-0.520832570371700276
0.644000000000000350,-0.513378959149170866
0.645000000000000462,-0.506178764899791966
0.646000000000000352,-0.499227594688118892
0.647000000000000464,-0.492521084317234847
0.648000000000000353,-0.486054899041396926
0.649000000000000465,-0.479824734249792662
0.650000000000000355,-0.473826316121995883
0.651000000000000467,-0.468055402255518060
0.652000000000000357,-0.462507782266032563
0.653000000000000469,-0.457179278360715258
0.654000000000000359,-0.452065745885218195
0.655000000000000471,-0.447163073844734416
0.656000000000000361,-0.442467185399710417
0.657000000000000473,-0.437974038336609084
0.658000000000000362,-0.433679625514290845
0.659000000000000474,-0.429579975286427662
