# C-amorph-3_ASP-AC
# h[nm],U(h)[kJ/mol]
0.149999999999999994,163.925287757580605330
0.150999999999999995,160.854430714862530749
0.151999999999999996,158.069645280087570427
0.152999999999999997,155.328753549362005515
0.153999999999999998,152.553464061344413949
0.154999999999999999,149.742237642045438406
0.156000000000000000,146.922134940815425352
0.157000000000000001,144.124301064604111389
0.158000000000000002,141.373226609004518650
0.159000000000000002,138.683587218049325429
0.160000000000000003,136.060877422916604473
0.161000000000000004,133.503618651027295527
0.162000000000000005,131.005913760569711712
0.163000000000000006,128.559732988624034533
0.164000000000000007,126.156680102934529941
0.165000000000000008,123.789191878395556046
0.166000000000000009,121.451228505743713981
0.167000000000000010,119.138556681581093244
0.168000000000000010,116.848736596761199280
0.169000000000000011,114.580915146198066168
0.170000000000000012,112.335510482636053098
0.171000000000000013,110.113853466300042783
0.172000000000000014,107.917832899002789304
0.173000000000000015,105.749575279595276811
0.174000000000000016,103.611176766396440030
0.175000000000000017,101.504495085678456689
0.176000000000000018,99.431001979658404366
0.177000000000000018,97.391692003403733224
0.178000000000000019,95.387040585728215092
0.179000000000000020,93.417002817890235633
0.180000000000000021,91.481044033235690449
0.181000000000000022,89.578193563491552709
0.182000000000000023,87.707113841509965368
0.183000000000000024,85.866178064522998170
0.184000000000000025,84.053550787406010159
0.185000000000000026,82.267266976594669359
0.186000000000000026,80.505306151610170673
0.187000000000000027,78.765659229191996360
0.188000000000000028,77.046386541785224722
0.189000000000000029,75.345666219360694527
0.190000000000000030,73.661832703326609817
0.191000000000000031,71.993405612453358344
0.192000000000000032,70.339109516161428814
0.193000000000000033,68.697885405154423211
0.194000000000000034,67.068894798771452770
0.195000000000000034,65.451517507762645209
0.196000000000000035,63.845344094625794185
0.197000000000000036,62.250164053953383814
0.198000000000000037,60.665950683609480620
0.199000000000000038,59.092843543548518426
0.200000000000000039,57.531129310664937293
0.201000000000000040,55.981221741713362405
0.202000000000000041,54.443641357207106068
0.203000000000000042,52.918995361249642428
0.204000000000000042,51.407958218421143215
0.205000000000000043,49.911253221213222275
0.206000000000000044,48.429635301445067341
0.207000000000000045,46.963875267398421443
0.208000000000000046,45.514745585410913975
0.209000000000000047,44.083007770349141197
0.210000000000000048,42.669401403462416056
0.211000000000000049,41.274634758128279088
0.212000000000000050,39.899376983338086688
0.213000000000000050,38.544251770766820187
0.214000000000000051,37.209832413204949830
0.215000000000000052,35.896638149285571728
0.216000000000000053,34.605131681108147745
0.217000000000000054,33.335717746867885580
0.218000000000000055,32.088742629316598709
0.219000000000000056,30.864494482229879679
0.220000000000000057,29.663204360505822876
0.221000000000000058,28.485047844618417656
0.222000000000000058,27.330147156465351088
0.223000000000000059,26.198573670847629558
0.224000000000000060,25.090350734576958303
0.225000000000000061,24.005456713278523040
0.226000000000000062,22.943828194123227604
0.227000000000000063,21.905363280812423454
0.228000000000000064,20.889924925011971624
0.229000000000000065,19.897344245978509036
0.230000000000000066,18.927423797265770844
0.231000000000000066,17.979940746077009095
0.232000000000000067,17.054649937009827454
0.233000000000000068,16.151286817596066214
0.234000000000000069,15.269570208166774350
0.235000000000000070,14.409204903173280954
0.236000000000000071,13.569884095183079253
0.237000000000000072,12.751291616360845182
0.238000000000000073,11.953103995367850843
0.239000000000000073,11.174992330294584164
0.240000000000000074,10.416623980508616043
0.241000000000000075,9.677664082192002581
0.242000000000000076,8.957776893885517566
0.243000000000000077,8.256626979587394999
0.244000000000000078,7.573880237903122925
0.245000000000000079,6.909204786440446000
0.246000000000000080,6.262271711121520923
0.247000000000000081,5.632755690366748169
0.248000000000000081,5.020335504222259715
0.249000000000000082,4.424694438476885594
0.250000000000000111,3.845520593667563158
0.251000000000000112,3.282507108625927206
0.252000000000000113,2.735352307889092671
0.253000000000000114,2.203759781906107218
0.254000000000000115,1.687438408525439915
0.255000000000000115,1.186102323769350653
0.256000000000000116,0.699470849392991534
0.257000000000000117,0.227268384203446416
0.258000000000000118,-0.230775734415289341
0.259000000000000119,-0.674927392855621533
0.260000000000000120,-1.105447882125491166
0.261000000000000121,-1.522594092291732926
0.262000000000000122,-1.926618716142675991
0.263000000000000123,-2.317770458160583580
0.264000000000000123,-2.696294245350151275
0.265000000000000124,-3.062431436899290649
0.266000000000000125,-3.416420030054742263
0.267000000000000126,-3.758494859973944724
0.268000000000000127,-4.088887791668428306
0.269000000000000128,-4.407827902479480642
0.270000000000000129,-4.715541653827263424
0.271000000000000130,-5.012253051248640290
0.272000000000000131,-5.298183791987513658
0.273000000000000131,-5.573553399626106852
0.274000000000000132,-5.838579345446632374
0.275000000000000133,-6.093477156391775118
0.276000000000000134,-6.338460509650421848
0.277000000000000135,-6.573741314032544025
0.278000000000000136,-6.799529778417391590
0.279000000000000137,-7.016034467660988483
0.280000000000000138,-7.223462346435058024
0.281000000000000139,-7.422018811541444272
0.282000000000000139,-7.611907713303635248
0.283000000000000140,-7.793331366683024619
0.284000000000000141,-7.966490552801732683
0.285000000000000142,-8.131584511578473951
0.286000000000000143,-8.288810926199101203
0.287000000000000144,-8.438365900150660792
0.288000000000000145,-8.580443927548493832
0.289000000000000146,-8.715237857478868477
0.290000000000000147,-8.842938853069043148
0.291000000000000147,-8.963736345979606668
0.292000000000000148,-9.077817986994370258
0.293000000000000149,-9.185369593358824858
0.294000000000000150,-9.286575093492277944
0.295000000000000151,-9.381616469669989300
0.296000000000000152,-9.470673699241194399
0.297000000000000153,-9.553924694917430571
0.298000000000000154,-9.631545244632784275
0.299000000000000155,-9.703708951444793840
0.300000000000000155,-9.770587173911172485
0.301000000000000156,-9.832348967344270108
0.302000000000000157,-9.889161026312184077
0.303000000000000158,-9.941187628722746084
0.304000000000000159,-9.988590581794989376
0.305000000000000160,-10.031529170191188172
0.306000000000000161,-10.070160106552975776
0.307000000000000162,-10.104637484655755841
0.308000000000000163,-10.135112735367687975
0.309000000000000163,-10.161734585573048761
0.310000000000000164,-10.184649020194369129
0.311000000000000165,-10.203999247423531926
0.312000000000000166,-10.219925667249551537
0.313000000000000167,-10.232565843349151535
0.314000000000000168,-10.242054478386361183
0.315000000000000169,-10.248523392748516869
0.316000000000000170,-10.252101506729065505
0.317000000000000171,-10.252914826150956173
0.318000000000000171,-10.251086431410058708
0.319000000000000172,-10.246736469904320188
0.320000000000000173,-10.239982151802125898
0.321000000000000174,-10.230937749091859601
0.322000000000000175,-10.219714597845010573
0.323000000000000176,-10.206421103615769042
0.324000000000000177,-10.191162749892331618
0.325000000000000178,-10.174042109507848153
0.326000000000000179,-10.155158858913175379
0.327000000000000179,-10.134609795208067595
0.328000000000000180,-10.112488855822999056
0.329000000000000181,-10.088887140740652626
0.330000000000000182,-10.063892937142332684
0.331000000000000183,-10.037591746363244027
0.332000000000000184,-10.010066313038167962
0.333000000000000185,-9.981396656318510807
0.334000000000000186,-9.951660103040985916
0.335000000000000187,-9.920931322728165469
0.336000000000000187,-9.889282364301765327
0.337000000000000188,-9.856782694389975674
0.338000000000000189,-9.823499237111910531
0.339000000000000190,-9.789496415223386094
0.340000000000000191,-9.754836192510179416
0.341000000000000192,-9.719578117317396959
0.342000000000000193,-9.683779367105385560
0.343000000000000194,-9.647494793925901035
0.344000000000000195,-9.610776970714283607
0.345000000000000195,-9.573676238297119667
0.346000000000000196,-9.536240753017290572
0.347000000000000197,-9.498516534881858320
0.348000000000000198,-9.460547516141513569
0.349000000000000199,-9.422375590213452057
0.350000000000000200,-9.384040660863297134
0.351000000000000201,-9.345580691564801867
0.352000000000000202,-9.307031754959727010
0.353000000000000203,-9.268428082343859842
0.354000000000000203,-9.229802113108377171
0.355000000000000204,-9.191184544069381346
0.356000000000000205,-9.152604378621862935
0.357000000000000206,-9.114088975657878677
0.358000000000000207,-9.075664098191632334
0.359000000000000208,-9.037353961638084243
0.360000000000000209,-8.999181281694502488
0.361000000000000210,-8.961167321777725903
0.362000000000000210,-8.923331939973007110
0.363000000000000211,-8.885693635453280947
0.364000000000000212,-8.848269594330817611
0.365000000000000213,-8.811075734905854162
0.366000000000000214,-8.774126752279801877
0.367000000000000215,-8.737436162303179543
0.368000000000000216,-8.701016344831193905
0.369000000000000217,-8.664878586262192428
0.370000000000000218,-8.629033121336854961
0.371000000000000218,-8.593489174178145618
0.372000000000000219,-8.558254998554472692
0.373000000000000220,-8.523337917350508164
0.374000000000000221,-8.488744361232249958
0.375000000000000222,-8.454479906494787755
0.376000000000000223,-8.420549312083350557
0.377000000000000224,-8.386956555779690348
0.378000000000000225,-8.353704869547787126
0.379000000000000226,-8.320796774034338483
0.380000000000000226,-8.288234112221237737
0.381000000000000227,-8.256018082228354871
0.382000000000000228,-8.224149269266650464
0.383000000000000229,-8.192627676742793241
0.384000000000000230,-8.161452756517510565
0.385000000000000231,-8.130623438321483931
0.386000000000000232,-8.100138158333113125
0.387000000000000233,-8.069994886923938182
0.388000000000000234,-8.040191155578131799
0.389000000000000234,-8.010724082993608164
0.390000000000000235,-7.981590400372757799
0.391000000000000236,-7.952786475911958419
0.392000000000000237,-7.924308338499324478
0.393000000000000238,-7.896151700631110160
0.394000000000000239,-7.868311980557448848
0.395000000000000240,-7.840784323668936295
0.396000000000000241,-7.813563623135770797
0.397000000000000242,-7.786644539811784504
0.398000000000000242,-7.760021521416001988
0.399000000000000243,-7.733688821004679248
0.400000000000000244,-7.707640514747073901
0.401000000000000245,-7.681870519018618282
0.402000000000000246,-7.656372606825070370
0.403000000000000247,-7.631140423571740605
0.404000000000000248,-7.606167502191771845
0.405000000000000249,-7.581447277647844984
0.406000000000000250,-7.556973100821411826
0.407000000000000250,-7.532738251804071972
0.408000000000000251,-7.508735952605308128
0.409000000000000252,-7.484959379291121984
0.410000000000000253,-7.461401673567953807
0.411000000000000254,-7.438055953826284039
0.412000000000000255,-7.414915325658199663
0.413000000000000256,-7.391972891863322737
0.414000000000000257,-7.369221761957052586
0.415000000000000258,-7.346655061195455971
0.416000000000000258,-7.324265939130531144
0.417000000000000259,-7.302047577709764425
0.418000000000000260,-7.279993198933665255
0.419000000000000261,-7.258096072084713413
0.420000000000000262,-7.236349520541075719
0.421000000000000263,-7.214746928188374042
0.422000000000000264,-7.193281745442227759
0.423000000000000265,-7.171947494894533648
0.424000000000000266,-7.150737776596074013
0.425000000000000266,-7.129646272987606892
0.426000000000000267,-7.108666753491784895
0.427000000000000268,-7.087793078777727018
0.428000000000000269,-7.067019204709922064
0.429000000000000270,-7.046339185993000243
0.430000000000000271,-7.025747179523508024
0.431000000000000272,-7.005237447459774280
0.432000000000000273,-6.984804360020548941
0.433000000000000274,-6.964442398023004799
0.434000000000000274,-6.944146155170310308
0.435000000000000275,-6.923910340098873739
0.436000000000000276,-6.903729778195051736
0.437000000000000277,-6.883599413190815142
0.438000000000000278,-6.863514308547783216
0.439000000000000279,-6.843469648638685676
0.440000000000000280,-6.823460739735028646
0.441000000000000281,-6.803483010809640241
0.442000000000000282,-6.783532014162534374
0.443000000000000282,-6.763603425878008224
0.444000000000000283,-6.743693046121191692
0.445000000000000284,-6.723796799281489101
0.446000000000000285,-6.703910733970444014
0.447000000000000286,-6.684031022881415929
0.448000000000000287,-6.664153962517798568
0.449000000000000288,-6.644275972796885199
0.450000000000000289,-6.624393596535772311
0.451000000000000290,-6.604503498825748053
0.452000000000000290,-6.584602466301411994
0.453000000000000291,-6.564687406310365070
0.454000000000000292,-6.544755345989389461
0.455000000000000293,-6.524803431252607311
0.456000000000000294,-6.504828925697045960
0.457000000000000295,-6.484829209430849062
0.458000000000000296,-6.464801777829075391
0.459000000000000297,-6.444744240222027187
0.460000000000000298,-6.424654318520706120
0.461000000000000298,-6.404529845783928366
0.462000000000000299,-6.384368764731441992
0.463000000000000300,-6.364169126207143812
0.464000000000000301,-6.343929087596519523
0.465000000000000302,-6.323646911202057908
0.466000000000000303,-6.303320962580394315
0.467000000000000304,-6.282949708844705938
0.468000000000000305,-6.262531716935804127
0.469000000000000306,-6.242065651865134512
0.470000000000000306,-6.221550274932927671
0.471000000000000307,-6.200984441924317636
0.472000000000000308,-6.180367101286510234
0.473000000000000309,-6.159697292289587622
0.474000000000000310,-6.138974143173629550
0.475000000000000311,-6.118196869284663997
0.476000000000000312,-6.097364771201840838
0.477000000000000313,-6.076477232858083610
0.478000000000000314,-6.055533719656355451
0.479000000000000314,-6.034533776583751674
0.480000000000000315,-6.013477026325164232
0.481000000000000316,-5.992363167378611521
0.482000000000000317,-5.971191972173796714
0.483000000000000318,-5.949963285195759788
0.484000000000000319,-5.928677021115063894
0.485000000000000320,-5.907333162926112990
0.486000000000000321,-5.885931760095004961
0.487000000000000322,-5.864472926718236501
0.488000000000000322,-5.842956839693509430
0.489000000000000323,-5.821383736903912975
0.490000000000000324,-5.799753915416518524
0.491000000000000325,-5.778067729696450883
0.492000000000000326,-5.756325589837418377
0.493000000000000327,-5.734527959809677888
0.494000000000000328,-5.712675355726153370
0.495000000000000329,-5.690768344127679512
0.496000000000000330,-5.668807540287926550
0.497000000000000330,-5.646793606538876631
0.498000000000000331,-5.624727250617254981
0.499000000000000332,-5.602609224032745416
0.500000000000000333,-5.580440320458332160
0.501000000000000334,-5.558221374143304416
0.502000000000000335,-5.535953258349390005
0.503000000000000336,-5.513636883810399958
0.504000000000000337,-5.491273197215715385
0.505000000000000338,-5.468863179717940781
0.506000000000000338,-5.446407845465015996
0.507000000000000339,-5.423908240157014227
0.508000000000000340,-5.401365439627783260
0.509000000000000341,-5.378780548451751464
0.510000000000000342,-5.356154698575823936
0.511000000000000343,-5.333489047976680553
0.512000000000000344,-5.310784779343407536
0.513000000000000345,-5.288043098785596641
0.514000000000000346,-5.265265234566991026
0.515000000000000346,-5.242452435864500160
0.516000000000000347,-5.219605971552756962
0.517000000000000348,-5.196727129014121260
0.518000000000000349,-5.173817212973963464
0.519000000000000350,-5.150877544361309290
0.520000000000000351,-5.127909459194614605
0.521000000000000352,-5.104914307492655290
0.522000000000000353,-5.081893452210294981
0.523000000000000353,-5.058848268199041875
0.524000000000000354,-5.035780141192272907
0.525000000000000355,-5.012690466814806456
0.526000000000000356,-4.989580649616778274
0.527000000000000357,-4.966452102131531987
0.528000000000000358,-4.943306243957331425
0.529000000000000359,-4.920144500862676296
0.530000000000000360,-4.896968303914957410
0.531000000000000361,-4.873779088632234746
0.532000000000000361,-4.850578294157882553
0.533000000000000362,-4.827367362457803068
0.534000000000000363,-4.804147737539993024
0.535000000000000364,-4.780920864696141415
0.536000000000000365,-4.757688189764998299
0.537000000000000366,-4.734451158417241956
0.538000000000000367,-4.711211215461472257
0.539000000000000368,-4.687969804171194355
0.540000000000000369,-4.664728365632277551
0.541000000000000369,-4.641488338110799639
0.542000000000000370,-4.618251156440786431
0.543000000000000371,-4.595018251431665313
0.544000000000000372,-4.571791049295052645
0.545000000000000373,-4.548570971090589055
0.546000000000000374,-4.525359432190489528
0.547000000000000375,-4.502157841762473467
0.548000000000000376,-4.478967602270849113
0.549000000000000377,-4.455790108995299370
0.550000000000000377,-4.432626749567147861
0.551000000000000378,-4.409478903522738413
0.552000000000000379,-4.386347941873660616
0.553000000000000380,-4.363235226693428004
0.554000000000000381,-4.340142110720339730
0.555000000000000382,-4.317069936976275280
0.556000000000000383,-4.294020038400894634
0.557000000000000384,-4.270993737501227905
0.558000000000000385,-4.247992346016073562
0.559000000000000385,-4.225017164595064045
0.560000000000000386,-4.202069482492025720
0.561000000000000387,-4.179150577272347178
0.562000000000000388,-4.156261714534005058
0.563000000000000389,-4.133404147642059101
0.564000000000000390,-4.110579117476176769
0.565000000000000391,-4.087787852191000937
0.566000000000000392,-4.065031566989003586
0.567000000000000393,-4.042311463905615021
0.568000000000000393,-4.019628731606209371
0.569000000000000394,-3.996984545194803395
0.570000000000000395,-3.974380066034130188
0.571000000000000396,-3.951816441576744499
0.572000000000000397,-3.929294805207052654
0.573000000000000398,-3.906816276093798113
0.574000000000000399,-3.884381959052914279
0.575000000000000400,-3.861992944420344465
0.576000000000000401,-3.839650307934640239
0.577000000000000401,-3.817355110629126358
0.578000000000000402,-3.795108398733235244
0.579000000000000403,-3.772911203582899553
0.580000000000000404,-3.750764541539738595
0.581000000000000405,-3.728669413918699771
0.582000000000000406,-3.706626806924066209
0.583000000000000407,-3.684637691593442010
0.584000000000000408,-3.662703023749632969
0.585000000000000409,-3.640823743960088343
0.586000000000000409,-3.619000777503717181
0.587000000000000410,-3.597235034344907323
0.588000000000000411,-3.575527409114426458
0.589000000000000412,-3.553878781097136397
0.590000000000000413,-3.532290014226160846
0.591000000000000414,-3.510761957083417428
0.592000000000000415,-3.489295442906303890
0.593000000000000416,-3.467891289600254279
0.594000000000000417,-3.446550299757048297
0.595000000000000417,-3.425273260678762366
0.596000000000000418,-3.404060944406917422
0.597000000000000419,-3.382914107756996636
0.598000000000000420,-3.361833492357821029
0.599000000000000421,-3.340819824695867801
0.600000000000000422,-3.319873816164185421
0.601000000000000423,-3.298996163115835767
0.602000000000000424,-3.278187546921672801
0.603000000000000425,-3.257448634032291235
0.604000000000000425,-3.236780076043984877
0.605000000000000426,-3.216182509768573450
0.606000000000000427,-3.195656557307000600
0.607000000000000428,-3.175202826126361622
0.608000000000000429,-3.154821909140556269
0.609000000000000430,-3.134514384794022668
0.610000000000000431,-3.114280817148794789
0.611000000000000432,-3.094121755974471810
0.612000000000000433,-3.074037736841084278
