# C-amorph-3_PHOSPHORICACID-AC
# h[nm],U(h)[kJ/mol]
0.149999999999999994,120.160921684818958965
0.150999999999999995,117.443670360714804701
0.151999999999999996,114.772567153832440567
0.152999999999999997,112.130984804529390431
0.153999999999999998,109.522808604211789429
0.154999999999999999,106.957545554470101479
0.156000000000000000,104.443666662312210747
0.157000000000000001,101.986338658626067399
0.158000000000000002,99.587298122583959525
0.159000000000000002,97.245608494427585811
0.160000000000000003,94.958636763094631306
0.161000000000000004,92.722935476381650233
0.162000000000000005,90.534910972310044031
0.163000000000000006,88.391260879135160167
0.164000000000000007,86.289211425063143679
0.165000000000000008,84.226601922378648624
0.166000000000000009,82.201864559642103814
0.167000000000000010,80.213940980284036186
0.168000000000000010,78.262167920964245127
0.169000000000000011,76.346154999125587892
0.170000000000000012,74.465669775543318565
0.171000000000000013,72.620538891445718832
0.172000000000000014,70.810569390154157077
0.173000000000000015,69.035491080330558589
0.174000000000000016,67.294918709364054621
0.175000000000000017,65.588331514790709775
0.176000000000000018,63.915067162250537081
0.177000000000000018,62.274326956563569979
0.178000000000000019,60.665189368930555247
0.179000000000000020,59.086629239580283013
0.180000000000000021,57.537540407234622819
0.181000000000000022,56.016759927701528454
0.182000000000000023,54.523092437770209528
0.183000000000000024,53.055333576672680351
0.184000000000000025,51.612291685733872271
0.185000000000000026,50.192807264700483927
0.186000000000000026,48.795769872386813404
0.187000000000000027,47.420132324088086762
0.188000000000000028,46.064922164331868260
0.189000000000000029,44.729250486983950452
0.190000000000000030,43.412318241314167722
0.191000000000000031,42.113420207671239837
0.192000000000000032,40.831946854546131931
0.193000000000000033,39.567384303938624157
0.194000000000000034,38.319312637306950364
0.195000000000000034,37.087402772563855535
0.196000000000000035,35.871412135626840723
0.197000000000000036,34.671179339512846695
0.198000000000000037,33.486618071085175075
0.199000000000000038,32.317710371209827258
0.200000000000000039,31.164499478919047704
0.201000000000000040,30.027082394689887934
0.202000000000000041,28.905602302469553422
0.203000000000000042,27.800240974862777676
0.204000000000000042,26.711211271109398524
0.205000000000000043,25.638749823249931126
0.206000000000000044,24.583109992283013412
0.207000000000000045,23.544555163228931605
0.208000000000000046,22.523352435867352028
0.209000000000000047,21.519766756547777931
0.210000000000000048,20.534055525898690320
0.211000000000000049,19.566463707500773239
0.212000000000000050,18.617219453644072047
0.213000000000000050,17.686530256164708419
0.214000000000000051,16.774579623041258714
0.215000000000000052,15.881524274918257689
0.216000000000000053,15.007491849994442745
0.217000000000000054,14.152579100744361540
0.218000000000000055,13.316850561706369049
0.219000000000000056,12.500337664037212804
0.220000000000000057,11.703038269662034310
0.221000000000000058,10.924916595608364034
0.222000000000000058,10.165903497448715243
0.223000000000000059,9.425897079656625266
0.224000000000000060,8.704763600049624017
0.225000000000000061,8.002338635308309023
0.226000000000000062,7.318428474774441028
0.227000000000000063,6.652811710296146153
0.228000000000000064,6.005240990760859709
0.229000000000000065,5.375444911089303446
0.230000000000000066,4.763130006818817819
0.231000000000000066,4.167982826936642127
0.232000000000000067,3.589672059300181850
0.233000000000000068,3.027850684763159883
0.234000000000000069,2.482158137984523893
0.235000000000000070,1.952222454799580564
0.236000000000000071,1.437662387955584764
0.237000000000000072,0.938089474931000589
0.238000000000000073,0.453110043450337674
0.239000000000000073,-0.017672857843062540
0.240000000000000074,-0.474657614304603293
0.241000000000000075,-0.918242294823437666
0.242000000000000076,-1.348823003364520989
0.243000000000000077,-1.766792338359292502
0.244000000000000078,-2.172537964334879668
0.245000000000000079,-2.566441298821058314
0.246000000000000080,-2.948876316326400460
0.247000000000000081,-3.320208470033897186
0.248000000000000081,-3.680793730828388455
0.249000000000000082,-4.030977742335156933
0.250000000000000111,-4.371095089817960577
0.251000000000000112,-4.701468680051850590
0.252000000000000113,-5.022409228650213109
0.253000000000000114,-5.334214850778066896
0.254000000000000115,-5.637170750725998047
0.255000000000000115,-5.931549005440265532
0.256000000000000116,-6.217608436804087368
0.257000000000000117,-6.495594567235000838
0.258000000000000118,-6.765739652998211007
0.259000000000000119,-7.028262789531964927
0.260000000000000120,-7.283370083031732278
0.261000000000000121,-7.531254882539561990
0.262000000000000122,-7.772098066830048779
0.263000000000000123,-8.006068380467768364
0.264000000000000123,-8.233322813530193685
0.265000000000000124,-8.454007019638186904
0.266000000000000125,-8.668255767111388010
0.267000000000000126,-8.876193418261438595
0.268000000000000127,-9.077934432051058877
0.269000000000000128,-9.273583885575195751
0.270000000000000129,-9.463238010060853966
0.271000000000000130,-9.646984737330651427
0.272000000000000131,-9.824904252928980952
0.273000000000000131,-9.997069552366724565
0.274000000000000132,-10.163546997198350752
0.275000000000000133,-10.324396867902297714
0.276000000000000134,-10.479673910789426117
0.277000000000000135,-10.629427876413753751
0.278000000000000136,-10.773704047204121892
0.279000000000000137,-10.912543752272000575
0.280000000000000138,-11.045984867580090238
0.281000000000000139,-11.174062299876942106
0.282000000000000139,-11.296808453014021367
0.283000000000000140,-11.414253675463161386
0.284000000000000141,-11.526426688043446944
0.285000000000000142,-11.633354991047493598
0.286000000000000143,-11.735065250127188818
0.287000000000000144,-11.831583660457923202
0.288000000000000145,-11.922936288849779629
0.289000000000000146,-12.009149393611187051
0.290000000000000147,-12.090249722098869611
0.291000000000000147,-12.166264786004509446
0.292000000000000148,-12.237223114536211810
0.293000000000000149,-12.303154485749763225
0.294000000000000150,-12.364090136373075524
0.295000000000000151,-12.420062950545801783
0.296000000000000152,-12.471107627966494746
0.297000000000000153,-12.517260832001515070
0.298000000000000154,-12.558561318363830495
0.299000000000000155,-12.595050045016503049
0.300000000000000155,-12.626770263995037880
0.301000000000000156,-12.653767595875514473
0.302000000000000157,-12.676090087642199578
0.303000000000000158,-12.693788254728918474
0.304000000000000159,-12.706915108024093186
0.305000000000000160,-12.715526166639424588
0.306000000000000161,-12.719679457248293630
0.307000000000000162,-12.719435500801385075
0.308000000000000163,-12.714857287424587540
0.309000000000000163,-12.706010240298637015
0.310000000000000164,-12.692962169310856524
0.311000000000000165,-12.675783215257322212
0.312000000000000166,-12.654545785359754717
0.313000000000000167,-12.629324480844415390
0.314000000000000168,-12.600196017311805718
0.315000000000000169,-12.567239138605518889
0.316000000000000170,-12.530534524867027457
0.317000000000000171,-12.490164695439606390
0.318000000000000171,-12.446213907260879949
0.319000000000000172,-12.398768049358441345
0.320000000000000173,-12.347914534037233381
0.321000000000000174,-12.293742185321425708
0.322000000000000175,-12.236341125187063739
0.323000000000000176,-12.175802658095246755
0.324000000000000177,-12.112219154308835556
0.325000000000000178,-12.045683932449135156
0.326000000000000179,-11.976291141722864353
0.327000000000000179,-11.904135644223245549
0.328000000000000180,-11.829312897683481154
0.329000000000000181,-11.751918839035880637
0.330000000000000182,-11.672049769104436479
0.331000000000000183,-11.589802238735257944
0.332000000000000184,-11.505272936645045689
0.333000000000000185,-11.418558579245209117
0.334000000000000186,-11.329755802677039966
0.335000000000000187,-11.238961057271648514
0.336000000000000187,-11.146270504628089881
0.337000000000000188,-11.051779917482601689
0.338000000000000189,-10.955584582523526294
0.339000000000000190,-10.857779206287478502
0.340000000000000191,-10.758457824255176050
0.341000000000000192,-10.657713713248856635
0.342000000000000193,-10.555639307216774014
0.343000000000000194,-10.452326116475994411
0.344000000000000195,-10.347864650469585257
0.345000000000000195,-10.242344344081770302
0.346000000000000196,-10.135853487541133688
0.347000000000000197,-10.028479159930506981
0.348000000000000198,-9.920307166310980307
0.349000000000000199,-9.811421978456746018
0.350000000000000200,-9.701906679188205374
0.351000000000000201,-9.591842910281265233
0.352000000000000202,-9.481310823922715514
0.353000000000000203,-9.370389037673772847
0.354000000000000203,-9.259154592896660319
0.355000000000000204,-9.147682916592659197
0.356000000000000205,-9.036047786594277653
0.357000000000000206,-8.924321300048614347
0.358000000000000207,-8.812573845124159533
0.359000000000000208,-8.700874075869151625
0.360000000000000209,-8.589288890145505562
0.361000000000000210,-8.477883410559105215
0.362000000000000210,-8.366720968304161232
0.363000000000000211,-8.255863089836902091
0.364000000000000212,-8.145369486291707872
0.365000000000000213,-8.035298045550851143
0.366000000000000214,-7.925704826877866260
0.367000000000000215,-7.816644058023096697
0.368000000000000216,-7.708168134709571184
0.369000000000000217,-7.600327622406474859
0.370000000000000218,-7.493171260297513570
0.371000000000000218,-7.386745967351299846
0.372000000000000219,-7.281096850401245213
0.373000000000000220,-7.176267214142830753
0.374000000000000221,-7.072298572956850826
0.375000000000000222,-6.969230664467914949
0.376000000000000223,-6.867101464748770923
0.377000000000000224,-6.765947205081833893
0.378000000000000225,-6.665802390190938453
0.379000000000000226,-6.566699817857480248
0.380000000000000226,-6.468670599836914725
0.381000000000000227,-6.371744183992935184
0.382000000000000228,-6.275948377568701275
0.383000000000000229,-6.181309371516126916
0.384000000000000230,-6.087851765805988080
0.385000000000000231,-5.995598595644024087
0.386000000000000232,-5.904571358519630664
0.387000000000000233,-5.814790042016257487
0.388000000000000234,-5.726273152314329096
0.389000000000000234,-5.639037743320026941
0.390000000000000235,-5.553099446354892166
0.391000000000000236,-5.468472500343890097
0.392000000000000237,-5.385169782441210806
0.393000000000000238,-5.303202839035696670
0.394000000000000239,-5.222581917079525127
0.395000000000000240,-5.143315995686242204
0.396000000000000241,-5.065412817946182145
0.397000000000000242,-4.988878922909428582
0.398000000000000242,-4.913719677688699328
0.399000000000000243,-4.839939309636443809
0.400000000000000244,-4.767540938552466301
0.401000000000000245,-4.696526608880711606
0.402000000000000246,-4.626897321855350853
0.403000000000000247,-4.558653067558577021
0.404000000000000248,-4.491792856854372573
0.405000000000000249,-4.426314753164303895
0.406000000000000250,-4.362215904053256210
0.407000000000000250,-4.299492572594830975
0.408000000000000251,-4.238140168487815274
0.409000000000000252,-4.178153278896937550
0.410000000000000253,-4.119525698992609009
0.411000000000000254,-4.062250462166145937
0.412000000000000255,-4.006319869898367969
0.413000000000000256,-3.951725521261130858
0.414000000000000257,-3.898458342032632196
0.415000000000000258,-3.846508613409013400
0.416000000000000258,-3.795866000295865739
0.417000000000000259,-3.746519579164826919
0.418000000000000260,-3.698457865461585836
0.419000000000000261,-3.651668840552899642
0.420000000000000262,-3.606139978201432061
0.421000000000000263,-3.561858270558396988
0.422000000000000264,-3.518810253664962140
0.423000000000000265,-3.476982032454569715
0.424000000000000266,-3.436359305249383489
0.425000000000000266,-3.396927387744781868
0.426000000000000267,-3.358671236477070554
0.427000000000000268,-3.321575471770297217
0.428000000000000269,-3.285624400158884129
0.429000000000000270,-3.250802036283746421
0.430000000000000271,-3.217092124260174213
0.431000000000000272,-3.184478158516625079
0.432000000000000273,-3.152943404104155523
0.433000000000000274,-3.122470916476994596
0.434000000000000274,-3.093043560745309506
0.435000000000000275,-3.064644030401819652
0.436000000000000276,-3.037254865524532388
0.437000000000000277,-3.010858470458301017
0.438000000000000278,-2.985437130978512155
0.439000000000000279,-2.960973030940611483
0.440000000000000280,-2.937448268419617481
0.441000000000000281,-2.914844871344179467
0.442000000000000282,-2.893144812630234153
0.443000000000000282,-2.872330024819394367
0.444000000000000283,-2.852382414227918606
0.445000000000000284,-2.833283874612058106
0.446000000000000285,-2.815016300356047996
0.447000000000000286,-2.797561599189321235
0.448000000000000287,-2.780901704439551647
0.449000000000000288,-2.765018586828572822
0.450000000000000289,-2.749894265818276118
0.451000000000000290,-2.735510820513809893
0.452000000000000290,-2.721850400131615721
0.453000000000000291,-2.708895234039847111
0.454000000000000292,-2.696627641379013340
0.455000000000000293,-2.685030040270644403
0.456000000000000294,-2.674084956621967990
0.457000000000000295,-2.663775032534621001
0.458000000000000296,-2.654083034325504187
0.459000000000000297,-2.644991860167919207
0.460000000000000298,-2.636484547361192199
0.461000000000000298,-2.628544279236992853
0.462000000000000299,-2.621154391710589948
0.463000000000000300,-2.614298379485265222
0.464000000000000301,-2.607959901918142087
0.465000000000000302,-2.602122788555624844
0.466000000000000303,-2.596771044346660506
0.467000000000000304,-2.591888854541946507
0.468000000000000305,-2.587460589287263524
0.469000000000000306,-2.583470807918941681
0.470000000000000306,-2.579904262969522577
0.471000000000000307,-2.576745903891526357
0.472000000000000308,-2.573980880507262370
0.473000000000000309,-2.571594546192440323
0.474000000000000310,-2.569572460801325953
0.475000000000000311,-2.567900393341130627
0.476000000000000312,-2.566564324403123099
0.477000000000000313,-2.565550448357979629
0.478000000000000314,-2.564845175322696846
0.479000000000000314,-2.564435132906397463
0.480000000000000315,-2.564307167742089000
0.481000000000000316,-2.564448346811549762
0.482000000000000317,-2.564845958570173945
0.483000000000000318,-2.565487513878704551
0.484000000000000319,-2.566360746748483024
0.485000000000000320,-2.567453614906914261
0.486000000000000321,-2.568754300189551643
0.487000000000000322,-2.570251208765212958
0.488000000000000322,-2.571932971200350693
0.489000000000000323,-2.573788442368831753
0.490000000000000324,-2.575806701213106287
0.491000000000000325,-2.577977050362658673
0.492000000000000326,-2.580289015615487624
0.493000000000000327,-2.582732345288275777
0.494000000000000328,-2.585297009440748806
0.495000000000000329,-2.587973198979615752
0.496000000000000330,-2.590751324647345477
0.497000000000000330,-2.593622015900991062
0.498000000000000331,-2.596576119685978679
0.499000000000000332,-2.599604699109864470
0.500000000000000333,-2.602699032020804104
0.501000000000000334,-2.605850609495391268
0.502000000000000335,-2.609051134240427672
0.503000000000000336,-2.612292518913047257
0.504000000000000337,-2.615566884363517364
0.505000000000000338,-2.618866557804889528
0.506000000000000338,-2.622184070913615717
0.507000000000000339,-2.625512157865078855
0.508000000000000340,-2.628843753307894104
0.509000000000000341,-2.632171990280758767
0.510000000000000342,-2.635490198075453705
0.511000000000000343,-2.638791900049564543
0.512000000000000344,-2.642070811392321694
0.513000000000000345,-2.645320836846895673
0.514000000000000346,-2.648536068392409515
0.515000000000000346,-2.651710782888703655
0.516000000000000347,-2.654839439686948133
0.517000000000000348,-2.657916678209031769
0.518000000000000349,-2.660937315498493216
0.519000000000000350,-2.663896343745789874
0.520000000000000351,-2.666788927790541219
0.521000000000000352,-2.669610402603287191
0.522000000000000353,-2.672356270749214779
0.523000000000000353,-2.675022199836272208
0.524000000000000354,-2.677604019949939129
0.525000000000000355,-2.680097721076867501
0.526000000000000356,-2.682499450519510553
0.527000000000000357,-2.684805510303827525
0.528000000000000358,-2.687012354582009710
0.529000000000000359,-2.689116587032111205
0.530000000000000360,-2.691114958256440204
0.531000000000000361,-2.693004363180440563
0.532000000000000361,-2.694781838453745415
0.533000000000000362,-2.696444559855007750
0.534000000000000363,-2.697989839702066295
0.535000000000000364,-2.699415124268897515
0.536000000000000365,-2.700717991210789926
0.537000000000000366,-2.701896146999072990
0.538000000000000367,-2.702947424366685780
0.539000000000000368,-2.703869779765855075
0.540000000000000369,-2.704661290838974441
0.541000000000000369,-2.705320153903897573
0.542000000000000370,-2.705844681454616207
0.543000000000000371,-2.706233299678380444
0.544000000000000372,-2.706484545990222923
0.545000000000000373,-2.706597066585747502
0.546000000000000374,-2.706569614013089708
0.547000000000000375,-2.706401044764802144
0.548000000000000376,-2.706090316890507275
0.549000000000000377,-2.705636487630951326
0.550000000000000377,-2.705038711074181812
0.551000000000000378,-2.704296235834484197
0.552000000000000379,-2.703408402754647444
0.553000000000000380,-2.702374642632139334
0.554000000000000381,-2.701194473969665388
0.555000000000000382,-2.699867500750667393
0.556000000000000383,-2.698393410240093271
0.557000000000000384,-2.696771970810968089
0.558000000000000385,-2.695003029797040206
0.559000000000000385,-2.693086511371924452
0.560000000000000386,-2.691022414454987910
0.561000000000000387,-2.688810810644326921
0.562000000000000388,-2.686451842177020044
0.563000000000000389,-2.683945719916959849
0.564000000000000390,-2.681292721370382548
0.565000000000000391,-2.678493188729336172
0.566000000000000392,-2.675547526943190757
0.567000000000000393,-2.672456201818353527
0.568000000000000393,-2.669219738146234810
0.569000000000000394,-2.665838717859613460
0.570000000000000395,-2.662313778217412441
0.571000000000000396,-2.658645610017912109
0.572000000000000397,-2.654834955840490895
0.573000000000000398,-2.650882608315797917
0.574000000000000399,-2.646789408424409906
0.575000000000000400,-2.642556243823904971
0.576000000000000401,-2.638184047204296778
0.577000000000000401,-2.633673794671798074
0.578000000000000402,-2.629026504160782540
0.579000000000000403,-2.624243233873861936
0.580000000000000404,-2.619325080750008361
0.581000000000000405,-2.614273178960523136
0.582000000000000406,-2.609088698432790565
0.583000000000000407,-2.603772843401596759
0.584000000000000408,-2.598326850987933145
0.585000000000000409,-2.592751989805022639
0.586000000000000409,-2.587049558591478782
0.587000000000000410,-2.581220884871345156
0.588000000000000411,-2.575267323640821893
0.589000000000000412,-2.569190256081526513
0.590000000000000413,-2.562991088299983122
0.591000000000000414,-2.556671250093195624
0.592000000000000415,-2.550232193740048281
0.593000000000000416,-2.543675392818265379
0.594000000000000417,-2.537002341046727505
0.595000000000000417,-2.530214551152904168
0.596000000000000418,-2.523313553765069273
0.597000000000000419,-2.516300896329163983
0.598000000000000420,-2.509178142049908189
0.599000000000000421,-2.501946868856007811
0.600000000000000422,-2.494608668389104000
0.601000000000000423,-2.487165145016234202
0.602000000000000424,-2.479617914865491990
0.603000000000000425,-2.471968604884660525
0.604000000000000425,-2.464218851922439057
0.605000000000000426,-2.456370301832067060
0.606000000000000427,-2.448424608597036478
0.607000000000000428,-2.440383433478509279
0.608000000000000429,-2.432248444184330616
0.609000000000000430,-2.424021314059114918
0.610000000000000431,-2.415703721295335615
0.611000000000000432,-2.407297348164946449
