# Cu110_TYR
# h[nm],U(h)[kJ/mol]
0.200000000000000011,73.150510694547705270
0.201000000000000012,69.433736977338099905
0.202000000000000013,66.261727728456051523
0.203000000000000014,63.385788098971417526
0.204000000000000015,60.656922035611124500
0.205000000000000016,57.991962727509985598
0.206000000000000016,55.349827502132178836
0.207000000000000017,52.715154539022613278
0.208000000000000018,50.087267452480929819
0.209000000000000019,47.472939332701614035
0.210000000000000020,44.881827197729265322
0.211000000000000021,42.323749862975361680
0.212000000000000022,39.807209478925599910
0.213000000000000023,37.338726917692248719
0.214000000000000024,34.922687380547600355
0.215000000000000024,32.561485557114295375
0.216000000000000025,30.255827499158101546
0.217000000000000026,28.005095313591692019
0.218000000000000027,25.807715609693786973
0.219000000000000028,23.661497003275258066
0.220000000000000029,21.563918658378977256
0.221000000000000030,19.512362931575456315
0.222000000000000031,17.504292250887367288
0.223000000000000032,15.537374587408276483
0.224000000000000032,13.609564134302852167
0.225000000000000033,11.719144734664107332
0.226000000000000034,9.864743660774450973
0.227000000000000035,8.045322874867625984
0.228000000000000036,6.260154129196624062
0.229000000000000037,4.508783351813058893
0.230000000000000038,2.790988821185843349
0.231000000000000039,1.106736726083873190
0.232000000000000040,-0.543863122218595008
0.233000000000000040,-2.160599389037116236
0.234000000000000041,-3.743197714223948758
0.235000000000000042,-5.291354714392366709
0.236000000000000043,-6.804767012888144784
0.237000000000000044,-8.283155148585615635
0.238000000000000045,-9.726282462723293776
0.239000000000000046,-11.133969243049319786
0.240000000000000047,-12.506102527646124400
0.241000000000000048,-13.842642047303263197
0.242000000000000048,-15.143622824589936471
0.243000000000000049,-16.409154958095996335
0.244000000000000050,-17.639421108768708280
0.245000000000000051,-18.834672177895448897
0.246000000000000052,-19.995221628033096550
0.247000000000000053,-21.121438853128381652
0.248000000000000054,-22.213741955428176311
0.249000000000000055,-23.272590237059368690
0.250000000000000056,-24.298476665267578767
0.251000000000000056,-25.291920523633429241
0.252000000000000057,-26.253460418103838236
0.253000000000000058,-27.183647767006227980
0.254000000000000059,-28.083040868712892291
0.255000000000000060,-28.952199609420951276
0.256000000000000061,-29.791680846589674303
0.257000000000000062,-30.602034480779451542
0.258000000000000063,-31.383800209732577002
0.259000000000000064,-32.137504943232748644
0.260000000000000064,-32.863660845249462739
0.261000000000000065,-33.562763960771270888
0.262000000000000066,-34.235293378211224535
0.263000000000000067,-34.881710873987046284
0.264000000000000068,-35.502460983511788584
0.265000000000000069,-36.097971442076712378
0.266000000000000070,-36.668653939678158338
0.267000000000000071,-37.214905135486105792
0.268000000000000071,-37.737107880138815119
0.269000000000000072,-38.235632597174671332
0.270000000000000073,-38.710838778501326374
0.271000000000000074,-39.163076552699024546
0.272000000000000075,-39.592688289031002569
0.273000000000000076,-40.000010204176717821
0.274000000000000077,-40.385373942825331994
0.275000000000000078,-40.749108107293523062
0.276000000000000079,-41.091539715202699767
0.277000000000000079,-41.412995567927296747
0.278000000000000080,-41.713803515967001090
0.279000000000000081,-41.994293610587746457
0.280000000000000082,-42.254799133997380522
0.281000000000000083,-42.495657502970189512
0.282000000000000084,-42.717211043206319232
0.283000000000000085,-42.919807633813128689
0.284000000000000086,-43.103801223132769849
0.285000000000000087,-43.269552218724555814
0.286000000000000087,-43.417427755656788690
0.287000000000000088,-43.547801848383109302
0.288000000000000089,-43.661055432391073339
0.289000000000000090,-43.757576302533031765
0.290000000000000091,-43.837758955493427493
0.291000000000000092,-43.902004344237447242
0.292000000000000093,-43.950719552531943179
0.293000000000000094,-43.984317397751617307
0.294000000000000095,-44.003215970195526552
0.295000000000000095,-44.007838117055726457
0.296000000000000096,-43.998610879014265151
0.297000000000000097,-43.975964887210999166
0.298000000000000098,-43.940333728032257454
0.299000000000000099,-43.892153282833490380
0.300000000000000100,-43.831861049332964342
0.301000000000000101,-43.759895451011615819
0.302000000000000102,-43.676695140431135655
0.303000000000000103,-43.582698301946834363
0.304000000000000103,-43.478341958849604509
0.305000000000000104,-43.364061289527299436
0.306000000000000105,-43.240288956796696596
0.307000000000000106,-43.107454454123370624
0.308000000000000107,-42.965983472026053391
0.309000000000000108,-42.816297287553297224
0.310000000000000109,-42.658812179328684522
0.311000000000000110,-42.493938870285752785
0.312000000000000111,-42.322081999859634038
0.313000000000000111,-42.143639627066797004
0.314000000000000112,-41.959002765590561523
0.315000000000000113,-41.768554951697367983
0.316000000000000114,-41.572671845537684021
0.317000000000000115,-41.371720866135476058
0.318000000000000116,-41.166060860141122646
0.319000000000000117,-40.956041804215225000
0.320000000000000118,-40.742004540721801220
0.321000000000000119,-40.524280546241620016
0.322000000000000119,-40.303191732265638336
0.323000000000000120,-40.079050277296808247
0.324000000000000121,-39.852158489472877534
0.325000000000000122,-39.622808698723630982
0.326000000000000123,-39.391283177391827053
0.327000000000000124,-39.157854088176335949
0.328000000000000125,-38.922783458199532447
0.329000000000000126,-38.686323177955799224
0.330000000000000127,-38.448715023863933027
0.331000000000000127,-38.210190703123380729
0.332000000000000128,-37.970971919560014385
0.333000000000000129,-37.731270459141910578
0.334000000000000130,-37.491288293847240709
0.335000000000000131,-37.251217702577299917
0.336000000000000132,-37.011241407821238170
0.337000000000000133,-36.771532726801723356
0.338000000000000134,-36.532255735855748924
0.339000000000000135,-36.293565446835160060
0.340000000000000135,-36.055607994345429290
0.341000000000000136,-35.818520832677343435
0.342000000000000137,-35.582432941326480602
0.343000000000000138,-35.347465038036133933
0.344000000000000139,-35.113729798342603772
0.345000000000000140,-34.881332080646636484
0.346000000000000141,-34.650369155879516825
0.347000000000000142,-34.420930940878086801
0.348000000000000143,-34.193100234630229295
0.349000000000000143,-33.966952956596777824
0.350000000000000144,-33.742558386363498357
0.351000000000000145,-33.519979403920878269
0.352000000000000146,-33.299272729915230684
0.353000000000000147,-33.080489165258157414
0.354000000000000148,-32.863673829524820746
0.355000000000000149,-32.648866397613360846
0.356000000000000150,-32.436101334178431443
0.357000000000000151,-32.225408125392284830
0.358000000000000151,-32.016811507623820887
0.359000000000000152,-31.810331692664050252
0.360000000000000153,-31.605984589161096210
0.361000000000000154,-31.403782019962466876
0.362000000000000155,-31.203731935093980354
0.363000000000000156,-31.005838620136692896
0.364000000000000157,-30.810102899791576903
0.365000000000000158,-30.616522336450763930
0.366000000000000159,-30.425091423619722519
0.367000000000000159,-30.235801774060057312
0.368000000000000160,-30.048642302546635818
0.369000000000000161,-29.863599403153990863
0.370000000000000162,-29.680657121008245269
0.371000000000000163,-29.499797318460526441
0.372000000000000164,-29.320999835654703247
0.373000000000000165,-29.144242645480670006
0.374000000000000166,-28.969502002918499528
0.375000000000000167,-28.796752588794173988
0.376000000000000167,-28.625967647980456121
0.377000000000000168,-28.457119122088364804
0.378000000000000169,-28.290177776706364909
0.379000000000000170,-28.125113323254076647
0.380000000000000171,-27.961894535526390371
0.381000000000000172,-27.800489361012495237
0.382000000000000173,-27.640865027081098049
0.383000000000000174,-27.482988142130473364
0.384000000000000175,-27.326824791806689774
0.385000000000000175,-27.172340630399428818
0.386000000000000176,-27.019500967528500723
0.387000000000000177,-26.868270850238054948
0.388000000000000178,-26.718615140618720005
0.389000000000000179,-26.570498589080223439
0.390000000000000180,-26.423885903399149555
0.391000000000000181,-26.278741813668027305
0.392000000000000182,-26.135031133272995874
0.393000000000000183,-25.992718816027768014
0.394000000000000183,-25.851770009592115684
0.395000000000000184,-25.712150105302775671
0.396000000000000185,-25.573824784544257227
0.397000000000000186,-25.436760061786294784
0.398000000000000187,-25.300922324413761544
0.399000000000000188,-25.166278369473282339
0.400000000000000189,-25.032795437459615329
0.401000000000000190,-24.900441243262825708
0.402000000000000191,-24.769184004395768284
0.403000000000000191,-24.638992466618756083
0.404000000000000192,-24.509835927076714768
0.405000000000000193,-24.381684255061241373
0.406000000000000194,-24.254507910507946633
0.407000000000000195,-24.128277960336607322
0.408000000000000196,-24.002966092739221438
0.409000000000000197,-23.878544629518209774
0.410000000000000198,-23.754986536574609346
0.411000000000000199,-23.632265432642668657
0.412000000000000199,-23.510355596365151598
0.413000000000000200,-23.389231971800377607
0.414000000000000201,-23.268870172449339861
0.415000000000000202,-23.149246483888155979
0.416000000000000203,-23.030337865088853277
0.417000000000000204,-22.912121948507763847
0.418000000000000205,-22.794577039018836473
0.419000000000000206,-22.677682111765925299
0.420000000000000207,-22.561416809005272910
0.421000000000000207,-22.445761436007202860
0.422000000000000208,-22.330696956082583426
0.423000000000000209,-22.216204984797776945
0.424000000000000210,-22.102267783438616533
0.425000000000000211,-21.988868251781543250
0.426000000000000212,-21.875989920227802088
0.427000000000000213,-21.763616941353799206
0.428000000000000214,-21.651734080928534354
0.429000000000000214,-21.540326708446606574
0.430000000000000215,-21.429380787223173854
0.431000000000000216,-21.318882864094884866
0.432000000000000217,-21.208820058768651506
0.433000000000000218,-21.099180052858180545
0.434000000000000219,-20.989951078645994187
0.435000000000000220,-20.881121907606999599
0.436000000000000221,-20.772681838727301340
0.437000000000000222,-20.664620686650515324
0.438000000000000222,-20.556928769681995561
0.439000000000000223,-20.449596897679523266
0.440000000000000224,-20.342616359857487396
0.441000000000000225,-20.235978912529795082
0.442000000000000226,-20.129676766815812528
0.443000000000000227,-20.023702576331032787
0.444000000000000228,-19.918049424884181064
0.445000000000000229,-19.812710814199807174
0.446000000000000230,-19.707680651684867712
0.447000000000000230,-19.602953238256414892
0.448000000000000231,-19.498523256246141244
0.449000000000000232,-19.394385757396420900
0.450000000000000233,-19.290536150961617778
0.451000000000000234,-19.186970191927020579
0.452000000000000235,-19.083683969357089438
0.453000000000000236,-18.980673894883459241
0.454000000000000237,-18.877936691342608100
0.455000000000000238,-18.775469381571642913
0.456000000000000238,-18.673269277370604158
0.457000000000000239,-18.571333968638075618
0.458000000000000240,-18.469661312686920240
0.459000000000000241,-18.368249423745570681
0.460000000000000242,-18.267096662650232020
0.461000000000000243,-18.166201626732171093
0.462000000000000244,-18.065563139904206480
0.463000000000000245,-17.965180242949422507
0.464000000000000246,-17.865052184015034697
0.465000000000000246,-17.765178409313556074
0.466000000000000247,-17.665558554033115257
0.467000000000000248,-17.566192433458031275
0.468000000000000249,-17.467080034300892066
0.469000000000000250,-17.368221506246335650
0.470000000000000251,-17.269617153706896318
0.471000000000000252,-17.171267427790425586
0.472000000000000253,-17.073172918479059490
0.473000000000000254,-16.975334347018364411
0.474000000000000254,-16.877752558515968673
0.475000000000000255,-16.780428514748127355
0.476000000000000256,-16.683363287172713996
0.477000000000000257,-16.586558050146820165
0.478000000000000258,-16.490014074346916573
0.479000000000000259,-16.393732720389429858
0.480000000000000260,-16.297715432649383160
0.481000000000000261,-16.201963733274492796
0.482000000000000262,-16.106479216392138198
0.483000000000000262,-16.011263542506483759
0.484000000000000263,-15.916318433082640382
0.485000000000000264,-15.821645665315134721
0.486000000000000265,-15.727247067077367859
0.487000000000000266,-15.633124512049056065
0.488000000000000267,-15.539279915018246570
0.489000000000000268,-15.445715227354856580
0.490000000000000269,-15.352432432652040717
0.491000000000000270,-15.259433542532420347
0.492000000000000270,-15.166720592615272167
0.493000000000000271,-15.074295638641663331
0.494000000000000272,-14.982160752753767241
0.495000000000000273,-14.890318019924986714
0.496000000000000274,-14.798769534537402848
0.497000000000000275,-14.707517397103028856
0.498000000000000276,-14.616563711125351688
0.499000000000000277,-14.525910580097795233
0.500000000000000222,-14.435560104635502654
0.501000000000000334,-14.345514379737062782
0.502000000000000224,-14.255775492172872987
0.503000000000000336,-14.166345517996381531
0.504000000000000226,-14.077226520175457836
0.505000000000000338,-13.988420546339742856
0.506000000000000227,-13.899929626641627678
0.507000000000000339,-13.811755771726700104
0.508000000000000229,-13.723900970811140354
0.509000000000000341,-13.636367189862388827
0.510000000000000231,-13.549156369880467565
0.511000000000000343,-13.462270425276262387
0.512000000000000233,-13.375711242344383578
0.513000000000000345,-13.289480677826997379
0.514000000000000234,-13.203580557566379383
0.515000000000000346,-13.118012675242502141
0.516000000000000236,-13.032778791193711854
0.517000000000000348,-12.947880631316914801
0.518000000000000238,-12.863319886045243123
0.519000000000000350,-12.779098209399936792
0.520000000000000240,-12.695217218114352775
0.521000000000000352,-12.611678490827163301
0.522000000000000242,-12.528483567342547644
0.523000000000000353,-12.445633947954643617
0.524000000000000243,-12.363131092834176883
0.525000000000000355,-12.280976421474656846
0.526000000000000245,-12.199171312196179784
0.527000000000000357,-12.117717101704219118
0.528000000000000247,-12.036615084701729472
0.529000000000000359,-11.955866513551955066
0.530000000000000249,-11.875472597990347268
0.531000000000000361,-11.795434504883173688
0.532000000000000250,-11.715753358031310682
0.533000000000000362,-11.636430238016831851
0.534000000000000252,-11.557466182091074458
0.535000000000000364,-11.478862184101878086
0.536000000000000254,-11.400619194458785799
0.537000000000000366,-11.322738120133893247
0.538000000000000256,-11.245219824697457511
0.539000000000000368,-11.168065128385842755
0.540000000000000258,-11.091274808201111668
0.541000000000000369,-11.014849598039901934
0.542000000000000259,-10.938790188850960661
0.543000000000000371,-10.863097228819224682
0.544000000000000261,-10.787771323575608307
0.545000000000000373,-10.712813036430791414
0.546000000000000263,-10.638222888632110852
0.547000000000000375,-10.564001359641803646
0.548000000000000265,-10.490148887436101077
0.549000000000000377,-10.416665868823233865
0.550000000000000266,-10.343552659779955860
0.551000000000000378,-10.270809575804921820
0.552000000000000268,-10.198436892288347266
0.553000000000000380,-10.126434844896525789
0.554000000000000270,-10.054803629970672674
0.555000000000000382,-9.983543404938632904
0.556000000000000272,-9.912654288739217279
0.557000000000000384,-9.842136362257518201
0.558000000000000274,-9.771989668771162485
0.559000000000000385,-9.702214214405968207
0.560000000000000275,-9.632809968600891892
0.561000000000000387,-9.563776864580930237
0.562000000000000277,-9.495114799837741870
0.563000000000000389,-9.426823636616926905
0.564000000000000279,-9.358903202411626765
0.565000000000000391,-9.291353290461509928
0.566000000000000281,-9.224173660256795415
0.567000000000000393,-9.157364038046488020
0.568000000000000282,-9.090924117350596134
0.569000000000000394,-9.024853559475282339
0.570000000000000284,-8.959151994031097743
0.571000000000000396,-8.893819019453125918
0.572000000000000286,-8.828854203523214039
0.573000000000000398,-8.764257083893207678
0.574000000000000288,-8.700027168609349104
0.575000000000000400,-8.636163936636975791
0.576000000000000290,-8.572666838385469390
0.577000000000000401,-8.509535296232773049
0.578000000000000291,-8.446768705049418458
0.579000000000000403,-8.384366432721495954
0.580000000000000293,-8.322327820672438037
0.581000000000000405,-8.260652184383053154
0.582000000000000295,-8.199338813909928803
0.583000000000000407,-8.138386974401431218
0.584000000000000297,-8.077795906611520138
0.585000000000000409,-8.017564827410710748
0.586000000000000298,-7.957692930294394174
0.587000000000000410,-7.898179385887783788
0.588000000000000300,-7.839023342447852372
0.589000000000000412,-7.780223926361493625
0.590000000000000302,-7.721780242640226000
0.591000000000000414,-7.663691375410891737
0.592000000000000304,-7.605956388402513646
0.593000000000000416,-7.548574325428778486
0.594000000000000306,-7.491544210866448950
0.595000000000000417,-7.434865050129178421
0.596000000000000307,-7.378535830136902618
0.597000000000000419,-7.322555519780465261
0.598000000000000309,-7.266923070381596794
0.599000000000000421,-7.211637416147927304
0.600000000000000311,-7.156697474623183730
0.601000000000000423,-7.102102147132201893
0.602000000000000313,-7.047850319221069526
0.603000000000000425,-6.993940861091829220
0.604000000000000314,-6.940372628032302593
0.605000000000000426,-6.887144460840286975
0.606000000000000316,-6.834255186242789826
0.607000000000000428,-6.781703617309588594
0.608000000000000318,-6.729488553861685318
0.609000000000000430,-6.677608782874116855
0.610000000000000320,-6.626063078873514200
0.611000000000000432,-6.574850204330010328
0.612000000000000322,-6.523968910043890901
0.613000000000000433,-6.473417935526541100
0.614000000000000323,-6.423196009376090032
0.615000000000000435,-6.373301849647419637
0.616000000000000325,-6.323734164216810782
0.617000000000000437,-6.274491651140964521
0.618000000000000327,-6.225572999010718256
0.619000000000000439,-6.176976887299112207
0.620000000000000329,-6.128701986704171212
0.621000000000000441,-6.080746959486141634
0.622000000000000330,-6.033110459799429393
0.623000000000000442,-5.985791134019011750
0.624000000000000332,-5.938787621061640820
0.625000000000000444,-5.892098552701603431
0.626000000000000334,-5.845722553881270045
0.627000000000000446,-5.799658243016287962
0.628000000000000336,-5.753904232295637300
0.629000000000000448,-5.708459127976392544
0.630000000000000338,-5.663321530673465887
0.631000000000000449,-5.618490035644041924
0.632000000000000339,-5.573963233067154022
0.633000000000000451,-5.529739708318031077
0.634000000000000341,-5.485818042237625924
0.635000000000000453,-5.442196811397047362
0.636000000000000343,-5.398874588357232440
0.637000000000000455,-5.355849941923652935
0.638000000000000345,-5.313121437396355340
0.639000000000000457,-5.270687636815060806
0.640000000000000346,-5.228547099199788661
0.641000000000000458,-5.186698380786618934
0.642000000000000348,-5.145140035259041511
0.643000000000000460,-5.103870613974565984
0.644000000000000350,-5.062888666187051356
0.645000000000000462,-5.022192739264377259
0.646000000000000352,-4.981781378901934509
0.647000000000000464,-4.941653129331553984
0.648000000000000353,-4.901806533526428034
0.649000000000000465,-4.862240133401490638
0.650000000000000355,-4.822952470009936654
0.651000000000000467,-4.783942083735358786
0.652000000000000357,-4.745207514480028976
0.653000000000000469,-4.706747301848984932
0.654000000000000359,-4.668559985330344553
0.655000000000000471,-4.630644104471556055
0.656000000000000361,-4.592998199051933739
