# ZnS-sphalerite-110_CYSSCA-JS
# h[nm],U(h)[kJ/mol]
0.149999999999999994,109.905102332551749100
0.150999999999999995,108.538724837299696446
0.151999999999999996,107.247958989434778232
0.152999999999999997,105.989124184357436320
0.153999999999999998,104.734027401691676573
0.154999999999999999,103.468809153072811569
0.156000000000000000,102.190170854566972025
0.157000000000000001,100.901264765671214718
0.158000000000000002,99.608257484917743341
0.159000000000000002,98.317882745746942419
0.160000000000000003,97.035950011966974671
0.161000000000000004,95.766626650210071148
0.162000000000000005,94.512272687154194273
0.163000000000000006,93.273623459108748079
0.164000000000000007,92.050154784236880801
0.165000000000000008,90.840509914707325834
0.166000000000000009,89.642908500809681982
0.167000000000000010,88.455491337697736753
0.168000000000000010,87.276579884821245514
0.169000000000000011,86.104847061332890235
0.170000000000000012,84.939406896527714252
0.171000000000000013,83.779836696977184829
0.172000000000000014,82.626147846752616033
0.173000000000000015,81.478721352681390044
0.174000000000000016,80.338222717348429569
0.175000000000000017,79.205508374634831625
0.176000000000000018,78.081533261169596472
0.177000000000000018,76.967266461915500031
0.178000000000000019,75.863619469622037172
0.179000000000000020,74.771389549849430978
0.180000000000000021,73.691219050689269920
0.181000000000000022,72.623570237741461142
0.182000000000000023,71.568714339846565053
0.183000000000000024,70.526732912815305099
0.184000000000000025,69.497529313255355987
0.185000000000000026,68.480847968169442197
0.186000000000000026,67.476299177173359567
0.187000000000000027,66.483387347449180993
0.188000000000000028,65.501540798109175512
0.189000000000000029,64.530141548695354459
0.190000000000000030,63.568553800976189905
0.191000000000000031,62.616150115040866808
0.192000000000000032,61.672334556286841689
0.193000000000000033,60.736562340088099177
0.194000000000000034,59.808355720245245379
0.195000000000000034,58.887316053165307039
0.196000000000000035,57.973132121725313937
0.197000000000000036,57.065584922177876592
0.198000000000000037,56.164549206607262022
0.199000000000000038,55.269992135400727307
0.200000000000000039,54.381969432399557718
0.201000000000000040,53.500619453410863002
0.202000000000000041,52.626155580120453692
0.203000000000000042,51.758857339487747140
0.204000000000000042,50.899060626501281490
0.205000000000000043,50.047147378477873758
0.206000000000000044,49.203535014307590245
0.207000000000000045,48.368665914231179670
0.208000000000000046,47.542997176603606135
0.209000000000000047,46.726990849034507391
0.210000000000000048,45.921104793405802980
0.211000000000000049,45.125784308382719701
0.212000000000000050,44.341454599760503186
0.213000000000000050,43.568514158737897901
0.214000000000000051,42.807329081214824384
0.215000000000000052,42.058228337584445455
0.216000000000000053,41.321499982219151548
0.217000000000000054,40.597388274843247302
0.218000000000000055,39.886091672083075821
0.219000000000000056,39.187761636480857419
0.220000000000000057,38.502502201911795510
0.221000000000000058,37.830370228399772259
0.222000000000000058,37.171376275513217990
0.223000000000000059,36.525486021578863927
0.224000000000000060,35.892622155610169443
0.225000000000000061,35.272666669865017752
0.226000000000000062,34.665463483086270458
0.227000000000000063,34.070821327524512867
0.228000000000000064,33.488516836596339488
0.229000000000000065,32.918297774316030768
0.230000000000000066,32.359886352296875600
0.231000000000000066,31.812982585010843195
0.232000000000000067,31.277267639004911359
0.233000000000000068,30.752407136794221998
0.234000000000000069,30.238054381105559543
0.235000000000000070,29.733853469955541016
0.236000000000000071,29.239442277664533520
0.237000000000000072,28.754455281282609747
0.238000000000000073,28.278526216007982441
0.239000000000000073,27.811290546988878702
0.240000000000000074,27.352387748398871992
0.241000000000000075,26.901463383861813128
0.242000000000000076,26.458170985169783052
0.243000000000000077,26.022173728792569847
0.244000000000000078,25.593145911928026237
0.245000000000000079,25.170774231799917686
0.246000000000000080,24.754758873588563972
0.247000000000000081,24.344814413795134556
0.248000000000000081,23.940670547010093117
0.249000000000000082,23.542072644999134212
0.250000000000000111,23.148782157753014843
0.251000000000000112,22.760576866691334175
0.252000000000000113,22.377251000581420470
0.253000000000000114,21.998615224952011715
0.254000000000000115,21.624496515862727364
0.255000000000000115,21.254737928852559747
0.256000000000000116,20.889198273748991852
0.257000000000000117,20.527751705788382708
0.258000000000000118,20.170287243192792204
0.259000000000000119,19.816708220979798227
0.260000000000000120,19.466931690362624607
0.261000000000000121,19.120887772639175495
0.262000000000000122,18.778518975978556682
0.263000000000000123,18.439779483002787686
0.264000000000000123,18.104634416535944297
0.265000000000000124,17.773059090360643353
0.266000000000000125,17.445038251288238484
0.267000000000000126,17.120565318319837189
0.268000000000000127,16.799641624153810682
0.269000000000000128,16.482275663787497422
0.270000000000000129,16.168482354467201390
0.271000000000000130,15.858282310765591916
0.272000000000000131,15.551701138110791689
0.273000000000000131,15.248768747658214551
0.274000000000000132,14.949518694985897582
0.275000000000000133,14.653987544707726798
0.276000000000000134,14.362214262736438641
0.277000000000000135,14.074239637591110963
0.278000000000000136,13.790105731829758184
0.279000000000000137,13.509855364398944744
0.280000000000000138,13.233531624426856155
0.281000000000000139,12.961177416743566937
0.282000000000000139,12.692835039192702951
0.283000000000000140,12.428545791599926673
0.284000000000000141,12.168349616086423737
0.285000000000000142,11.912284768257059397
0.286000000000000143,11.660387518653950067
0.287000000000000144,11.412691883744518151
0.288000000000000145,11.169229385607646776
0.289000000000000146,10.930028839392754492
0.290000000000000147,10.695116167550725805
0.291000000000000147,10.464514239774867832
0.292000000000000148,10.238242737540053540
0.293000000000000149,10.016318042091171492
0.294000000000000150,9.798753144704152263
0.295000000000000151,9.585557578025316161
0.296000000000000152,9.376737367285443270
0.297000000000000153,9.172295000183794400
0.298000000000000154,8.972229414242644197
0.299000000000000155,8.776536000444867369
0.300000000000000155,8.585206621984337261
0.301000000000000156,8.398229646981098639
0.302000000000000157,8.215589994039346422
0.303000000000000158,8.037269189556422333
0.304000000000000159,7.863245435723771770
0.305000000000000160,7.693493688196420877
0.306000000000000161,7.527985742444995410
0.307000000000000162,7.366690327843608443
0.308000000000000163,7.209573208587395143
0.309000000000000163,7.056597290574892156
0.310000000000000164,6.907722733432362539
0.311000000000000165,6.762907066899574104
0.312000000000000166,6.622105310838705350
0.313000000000000167,6.485270098170225594
0.314000000000000168,6.352351800081375011
0.315000000000000169,6.223298652893857863
0.316000000000000170,6.098056886017796607
0.317000000000000171,5.976570850458568174
0.318000000000000171,5.858783147381506851
0.319000000000000172,5.744634756276957077
0.320000000000000173,5.634065162304311869
0.321000000000000174,5.527012482428739659
0.322000000000000175,5.423413589997821305
0.323000000000000176,5.323204237437804132
0.324000000000000177,5.226319176779986364
0.325000000000000178,5.132692277757493038
0.326000000000000179,5.042256643240593306
0.327000000000000179,4.954944721805760288
0.328000000000000180,4.870688417258908665
0.329000000000000181,4.789419194957106996
0.330000000000000182,4.711068184795999869
0.331000000000000183,4.635566280751090673
0.332000000000000184,4.562844236881261395
0.333000000000000185,4.492832759721570035
0.334000000000000186,4.425462597009605759
0.335000000000000187,4.360664622706231341
0.336000000000000187,4.298369918286281788
0.337000000000000188,4.238509850289085890
0.338000000000000189,4.181016144131167067
0.339000000000000190,4.125820954195539514
0.340000000000000191,4.072856930222817695
0.341000000000000192,4.022057280039092575
0.342000000000000193,3.973355828664617118
0.343000000000000194,3.926687073855303023
0.344000000000000195,3.881986238136557965
0.345000000000000195,3.839189317395086842
0.346000000000000196,3.798233126100458268
0.347000000000000197,3.759055339233034143
0.348000000000000198,3.721594530999345896
0.349000000000000199,3.685790210419888524
0.350000000000000200,3.651582853877353152
0.351000000000000201,3.618913934716231573
0.352000000000000202,3.587725949986719343
0.353000000000000203,3.557962444427687387
0.354000000000000203,3.529568031784699578
0.355000000000000204,3.502488413560088443
0.356000000000000205,3.476670395292426718
0.357000000000000206,3.452061900462981558
0.358000000000000207,3.428611982126767543
0.359000000000000208,3.406270832365124512
0.360000000000000209,3.384989789656206227
0.361000000000000210,3.364721344258908342
0.362000000000000210,3.345419141704462529
0.363000000000000211,3.327037984488774303
0.364000000000000212,3.309533832056911429
0.365000000000000213,3.292863799169662542
0.366000000000000214,3.276986152740171576
0.367000000000000215,3.261860307226832845
0.368000000000000216,3.247446818666512858
0.369000000000000217,3.233707377430255825
0.370000000000000218,3.220604799781189520
0.371000000000000218,3.208103018312448818
0.372000000000000219,3.196167071340285215
0.373000000000000220,3.184763091325523376
0.374000000000000221,3.173858292393956226
0.375000000000000222,3.163420957024101199
0.376000000000000223,3.153420421968090359
0.377000000000000224,3.143827063469376348
0.378000000000000225,3.134612281838358605
0.379000000000000226,3.125748485444769909
0.380000000000000226,3.117209074183204809
0.381000000000000227,3.108968422466031889
0.382000000000000228,3.101001861795412484
0.383000000000000229,3.093285662964039950
0.384000000000000230,3.085797017931964703
0.385000000000000231,3.078514021424540115
0.386000000000000232,3.071415652294628984
0.387000000000000233,3.064481754689800219
0.388000000000000234,3.057693019063509432
0.389000000000000234,3.051030963066970081
0.390000000000000235,3.044477912356646776
0.391000000000000236,3.038016981350329271
0.392000000000000237,3.031632053962904028
0.393000000000000238,3.025307764351148343
0.394000000000000239,3.019029477695150288
0.395000000000000240,3.012783271042228872
0.396000000000000241,3.006555914237634131
0.397000000000000242,3.000334850964763600
0.398000000000000242,2.994108179915992984
0.399000000000000243,2.987864636113925609
0.400000000000000244,2.981593572401336267
0.401000000000000245,2.975284941116703052
0.402000000000000246,2.968929275971109227
0.403000000000000247,2.962517674140797919
0.404000000000000248,2.956041778588653468
0.405000000000000249,2.949493760626642924
0.406000000000000250,2.942866302730235084
0.407000000000000250,2.936152581614634105
0.408000000000000251,2.929346251581847582
0.409000000000000252,2.922441428146491216
0.410000000000000253,2.915432671947414178
0.411000000000000254,2.908314972951372646
0.412000000000000255,2.901083734954119642
0.413000000000000256,2.893734760383499971
0.414000000000000257,2.886264235408485312
0.415000000000000258,2.878668715357231456
0.416000000000000258,2.870945110446803561
0.417000000000000259,2.863090671826342248
0.418000000000000260,2.855102977935072950
0.419000000000000261,2.846979921175874839
0.420000000000000262,2.838719694904683344
0.421000000000000263,2.830320780735460673
0.422000000000000264,2.821781936160050019
0.423000000000000265,2.813102182481835634
0.424000000000000266,2.804280793061576738
0.425000000000000266,2.795317281873693993
0.426000000000000267,2.786211392370632201
0.427000000000000268,2.776963086652834978
0.428000000000000269,2.767572534941494133
0.429000000000000270,2.758040105350894944
0.430000000000000271,2.748366353957099939
0.431000000000000272,2.738552015159283037
0.432000000000000273,2.728597992330004107
0.433000000000000274,2.718505348750376083
0.434000000000000274,2.708275298826014144
0.435000000000000275,2.697909199579440642
0.436000000000000276,2.687408542414496448
0.437000000000000277,2.676774945148211238
0.438000000000000278,2.666010144305444918
0.439000000000000279,2.655115987671534228
0.440000000000000280,2.644094427098103051
0.441000000000000281,2.632947511557149234
0.442000000000000282,2.621677380438359517
0.443000000000000282,2.610286257084765804
0.444000000000000283,2.598776442561558042
0.445000000000000284,2.587150309653085678
0.446000000000000285,2.575410297082942446
0.447000000000000286,2.563558903951968837
0.448000000000000287,2.551598684389199789
0.449000000000000288,2.539532242410565743
0.450000000000000289,2.527362226980362614
0.451000000000000290,2.515091327270404520
0.452000000000000290,2.502722268111843729
0.453000000000000291,2.490257805634716881
0.454000000000000292,2.477700723090230817
0.455000000000000293,2.465053826850925667
0.456000000000000294,2.452319942583853773
0.457000000000000295,2.439501911591982264
0.458000000000000296,2.426602587319094617
0.459000000000000297,2.413624832013494537
0.460000000000000298,2.400571513545919800
0.461000000000000298,2.387445502377097739
0.462000000000000299,2.374249668670478819
0.463000000000000300,2.360986879545740713
0.464000000000000301,2.347659996468709487
0.465000000000000302,2.334271872773446166
0.466000000000000303,2.320825351312328699
0.467000000000000304,2.307323262229982852
0.468000000000000305,2.293768420857063894
0.469000000000000306,2.280163625719935361
0.470000000000000306,2.266511656662329788
0.471000000000000307,2.252815273075264191
0.472000000000000308,2.239077212231451508
0.473000000000000309,2.225300187720584244
0.474000000000000310,2.211486887981961136
0.475000000000000311,2.197639974930958751
0.476000000000000312,2.183762082675987148
0.477000000000000313,2.169855816322586062
0.478000000000000314,2.155923750861490795
0.479000000000000314,2.141968430137443313
0.480000000000000315,2.127992365895750915
0.481000000000000316,2.113998036903554478
0.482000000000000317,2.099987888142914816
0.483000000000000318,2.085964330072874073
0.484000000000000319,2.071929737957731721
0.485000000000000320,2.057886451258856386
0.486000000000000321,2.043836773087413405
0.487000000000000322,2.029782969715470564
0.488000000000000322,2.015727270143044869
0.489000000000000323,2.001671865718640753
0.490000000000000324,1.987618909811013523
0.491000000000000325,1.973570517529866564
0.492000000000000326,1.959528765493314229
0.493000000000000327,1.945495691639972602
0.494000000000000328,1.931473295083635078
0.495000000000000329,1.917463536008543468
0.496000000000000330,1.903468335603322403
0.497000000000000330,1.889489576031678109
0.498000000000000331,1.875529100438143804
0.499000000000000332,1.861588712987011451
0.500000000000000333,1.847670178932829588
0.501000000000000334,1.833775224720845198
0.502000000000000335,1.819905538115740740
0.503000000000000336,1.806062768357226345
0.504000000000000337,1.792248526340952663
0.505000000000000338,1.778464384823359223
0.506000000000000338,1.764711878649073640
0.507000000000000339,1.750992504999541399
0.508000000000000340,1.737307723661640324
0.509000000000000341,1.723658957314994966
0.510000000000000342,1.710047591836880487
0.511000000000000343,1.696474976623519426
0.512000000000000344,1.682942424926720637
0.513000000000000345,1.669451214204794143
0.514000000000000346,1.656002586486699624
0.515000000000000346,1.642597748748521935
0.516000000000000347,1.629237873301289996
0.517000000000000348,1.615924098189241986
0.518000000000000349,1.602657527597720399
0.519000000000000350,1.589439232269822089
0.520000000000000351,1.576270249931058798
0.521000000000000352,1.563151585721220371
0.522000000000000353,1.550084212632774516
0.523000000000000353,1.537069071955057709
0.524000000000000354,1.524107073723629746
0.525000000000000355,1.511199097174125150
0.526000000000000356,1.498345991200045635
0.527000000000000357,1.485548574813847056
0.528000000000000358,1.472807637610836995
0.529000000000000359,1.460123940235300122
0.530000000000000360,1.447498214848400355
0.531000000000000361,1.434931165597338021
0.532000000000000361,1.422423469085345227
0.533000000000000362,1.409975774842045393
0.534000000000000363,1.397588705793831654
0.535000000000000364,1.385262858733790958
0.536000000000000365,1.372998804790885208
0.537000000000000366,1.360797089897985312
0.538000000000000367,1.348658235258466398
0.539000000000000368,1.336582737810997568
0.540000000000000369,1.324571070692314390
0.541000000000000369,1.312623683697594412
0.542000000000000370,1.300741003738277835
0.543000000000000371,1.288923435296998043
0.544000000000000372,1.277171360879450823
0.545000000000000373,1.265485141462948437
0.546000000000000374,1.253865116941480284
0.547000000000000375,1.242311606567079618
0.548000000000000376,1.230824909387304267
0.549000000000000377,1.219405304678712776
0.550000000000000377,1.208053052376113268
0.551000000000000378,1.196768393497516403
0.552000000000000379,1.185551550564610146
0.553000000000000380,1.174402728018654640
0.554000000000000381,1.163322112631696381
0.555000000000000382,1.152309873912972682
0.556000000000000383,1.141366164510456027
0.557000000000000384,1.130491120607400202
0.558000000000000385,1.119684862313884199
0.559000000000000385,1.108947494053214244
0.560000000000000386,1.098279104943179263
0.561000000000000387,1.087679769172078981
0.562000000000000388,1.077149546369505773
0.563000000000000389,1.066688481971793445
0.564000000000000390,1.056296607582171365
0.565000000000000391,1.045973941325535339
0.566000000000000392,1.035720488197856337
0.567000000000000393,1.025536240410180211
0.568000000000000393,1.015421177727250379
0.569000000000000394,1.005375267800695749
0.570000000000000395,0.995398466496841161
0.571000000000000396,0.985490718219107498
0.572000000000000397,0.975651956225004335
0.573000000000000398,0.965882102937773546
0.574000000000000399,0.956181070252644316
0.575000000000000400,0.946548759837766540
0.576000000000000401,0.936985063429823795
0.577000000000000401,0.927489863124335456
0.578000000000000402,0.918063031660717010
0.579000000000000403,0.908704432702122311
0.580000000000000404,0.899413921110048142
0.581000000000000405,0.890191343213839525
0.582000000000000406,0.881036537075026160
0.583000000000000407,0.871949332746622341
0.584000000000000408,0.862929552527372801
0.585000000000000409,0.853977011211029646
0.586000000000000409,0.845091516330681358
0.587000000000000410,0.836272868398191371
0.588000000000000411,0.827520861138819064
0.589000000000000412,0.818835281721018382
0.590000000000000413,0.810215910981543885
0.591000000000000414,0.801662523645848113
0.592000000000000415,0.793174888543870749
0.593000000000000416,0.784752768821252555
0.594000000000000417,0.776395922146051687
0.595000000000000417,0.768104100910983800
0.596000000000000418,0.759877052431292555
0.597000000000000419,0.751714519138270143
0.598000000000000420,0.743616238768506022
0.599000000000000421,0.735581944548920341
0.600000000000000422,0.727611365377631825
0.601000000000000423,0.719704226000752123
0.602000000000000424,0.711860247185124639
0.603000000000000425,0.704079145887081204
0.604000000000000425,0.696360635417318075
0.605000000000000426,0.688704425601898484
0.606000000000000427,0.681110222939443011
0.607000000000000428,0.673577730754651882
0.608000000000000429,0.666106649348062851
0.609000000000000430,0.658696676142307647
0.610000000000000431,0.651347505824724449
0.611000000000000432,0.644058830486534561
0.612000000000000433,0.636830339758585828
0.613000000000000433,0.629661720943695991
0.614000000000000434,0.622552659145718446
0.615000000000000435,0.615502837395339397
0.616000000000000436,0.608511936772693218
0.617000000000000437,0.601579636526818229
0.618000000000000438,0.594705614192059806
0.619000000000000439,0.587889545701445138
0.620000000000000440,0.581131105497090683
