# ZnS-sphalerite-110_PRO
# h[nm],U(h)[kJ/mol]
0.149999999999999994,186.283850562012588625
0.150999999999999995,183.796017855291381693
0.151999999999999996,181.715879977080760455
0.152999999999999997,179.720091263285723926
0.153999999999999998,177.684615347745420877
0.154999999999999999,175.585875617523385017
0.156000000000000000,173.443383732266141806
0.157000000000000001,171.288578230998524532
0.158000000000000002,169.149672410504990694
0.159000000000000002,167.045829617505489750
0.160000000000000003,164.986397220426312060
0.161000000000000004,162.972560616117050358
0.162000000000000005,160.999859728083009713
0.163000000000000006,159.060711064679054516
0.164000000000000007,157.146518882737609601
0.165000000000000008,155.249224543547313715
0.166000000000000009,153.362293447282524994
0.167000000000000010,151.481215308466914848
0.168000000000000010,149.603624178036398007
0.169000000000000011,147.729148418312320246
0.170000000000000012,145.859090172313869971
0.171000000000000013,143.996016607323355174
0.172000000000000014,142.143326151470375862
0.173000000000000015,140.304834823959765799
0.174000000000000016,138.484411986151883411
0.175000000000000017,136.685681966834067680
0.176000000000000018,134.911798085273574088
0.177000000000000018,133.165288369384654743
0.178000000000000019,131.447967364415859493
0.179000000000000020,129.760905424510099238
0.180000000000000021,128.104445358807822686
0.181000000000000022,126.478255888199555557
0.182000000000000023,124.881411734622091103
0.183000000000000024,123.312491045598974893
0.184000000000000025,121.769682041587060439
0.185000000000000026,120.250892101598239492
0.186000000000000026,118.753853855553941798
0.187000000000000027,117.276224147639140938
0.188000000000000028,115.815672920035964921
0.189000000000000029,114.369960109682352822
0.190000000000000030,112.936999537871130883
0.191000000000000031,111.514909501604307707
0.192000000000000032,110.102050353220491274
0.193000000000000033,108.697049793026124576
0.194000000000000034,107.298816913853784172
0.195000000000000034,105.906546243516231698
0.196000000000000035,104.519713148164015593
0.197000000000000036,103.138062003106512066
0.198000000000000037,101.761588523048331467
0.199000000000000038,100.390517584716548072
0.200000000000000039,99.025277783601779902
0.201000000000000040,97.666473853345038947
0.202000000000000041,96.314857949818801330
0.203000000000000042,94.971300669230998892
0.204000000000000042,93.636762536218867581
0.205000000000000043,92.312266568222270280
0.206000000000000044,90.998872399624048057
0.207000000000000045,89.697652335466102613
0.208000000000000046,88.409669601446893239
0.209000000000000047,87.135958965175191793
0.210000000000000048,85.877509823579586623
0.211000000000000049,84.635251782830749789
0.212000000000000050,83.410042699688048629
0.213000000000000050,82.202659106191092064
0.214000000000000051,81.013788902271159031
0.215000000000000052,79.844026172267405173
0.216000000000000053,78.693867960558435470
0.217000000000000054,77.563712827607162126
0.218000000000000055,76.453860999742275339
0.219000000000000056,75.364515923066591085
0.220000000000000057,74.295787033157722590
0.221000000000000058,73.247693556940220105
0.222000000000000058,72.220169170554356697
0.223000000000000059,71.213067346605157582
0.224000000000000060,70.226167235282630941
0.225000000000000061,69.259179936023755886
0.226000000000000062,68.311755029218787172
0.227000000000000063,67.383487250595877072
0.228000000000000064,66.473923204061890146
0.229000000000000065,65.582568021681765913
0.230000000000000066,64.708891891965237164
0.231000000000000066,63.852336389538393746
0.232000000000000067,63.012320550501691230
0.233000000000000068,62.188246648236393810
0.234000000000000069,61.379505634063228570
0.235000000000000070,60.585482215957782159
0.236000000000000071,59.805559556473987470
0.237000000000000072,59.039123578130684677
0.238000000000000073,58.285566870796763794
0.239000000000000073,57.544292201101690409
0.240000000000000074,56.814715628632924904
0.241000000000000075,56.096269237714196265
0.242000000000000076,55.388403496927580250
0.243000000000000077,54.690589261306612912
0.244000000000000078,54.002319434333777792
0.245000000000000079,53.323110308579053651
0.246000000000000080,52.652502605066310082
0.247000000000000081,51.990062232300374490
0.248000000000000081,51.335380786378877360
0.249000000000000082,50.688075813792380586
0.250000000000000111,50.047790858427774197
0.251000000000000112,49.414195313972342660
0.252000000000000113,48.786984102403991415
0.253000000000000114,48.165877198585050678
0.254000000000000115,47.550619020176171148
0.255000000000000115,46.940977701187023285
0.256000000000000116,46.336744266502385869
0.257000000000000117,45.737731723688064278
0.258000000000000118,45.143774087312991128
0.259000000000000119,44.554725349933853806
0.260000000000000120,43.970458412795210279
0.261000000000000121,43.390863988212245772
0.262000000000000122,42.815849484535171143
0.263000000000000123,42.245337883553403913
0.264000000000000123,41.679266619190578069
0.265000000000000124,41.117586465374927229
0.266000000000000125,40.560260440046548069
0.267000000000000126,40.007262731388514965
0.268000000000000127,39.458577651544075593
0.269000000000000128,38.914198622308717290
0.270000000000000129,38.374127196566107045
0.271000000000000130,37.838372118567114910
0.272000000000000131,37.306948425536177183
0.273000000000000131,36.779876592522910528
0.274000000000000132,36.257181721901901028
0.275000000000000133,35.738892778455422672
0.276000000000000134,35.225041870552608714
0.277000000000000135,34.715663577561812758
0.278000000000000136,34.210794323296454422
0.279000000000000137,33.710471794999349981
0.280000000000000138,33.214734407112231906
0.281000000000000139,32.723620808851975994
0.282000000000000139,32.237169434425062775
0.283000000000000140,31.755418094548804930
0.284000000000000141,31.278403607815164378
0.285000000000000142,30.806161470323701224
0.286000000000000143,30.338725561925127039
0.287000000000000144,29.876127887352890156
0.288000000000000145,29.418398350474582514
0.289000000000000146,28.965564559867640781
0.290000000000000147,28.517651663910093873
0.291000000000000147,28.074682213579102097
0.292000000000000148,27.636676051161821022
0.293000000000000149,27.203650223107437967
0.294000000000000150,26.775618915281036436
0.295000000000000151,26.352593408920618856
0.296000000000000152,25.934582055645318377
0.297000000000000153,25.521590269915428451
0.298000000000000154,25.113620537401693866
0.299000000000000155,24.710672437781983746
0.300000000000000155,24.312742680546755025
0.301000000000000156,23.919825152460312268
0.302000000000000157,23.531910975391262753
0.303000000000000158,23.148988573293532767
0.304000000000000159,22.771043747186784145
0.305000000000000160,22.398059757052948271
0.306000000000000161,22.030017409632090875
0.307000000000000162,21.666895151167178568
0.308000000000000163,21.308669164211643476
0.309000000000000163,20.955313467676905503
0.310000000000000164,20.606800019358139764
0.311000000000000165,20.263098820235931896
0.312000000000000166,19.924178019908733717
0.313000000000000167,19.590004022565825181
0.314000000000000168,19.260541592963388524
0.315000000000000169,18.935753961916280019
0.316000000000000170,18.615602930866124609
0.317000000000000171,18.300048975131698370
0.318000000000000171,17.989051345490601364
0.319000000000000172,17.682568167781543167
0.320000000000000173,17.380556540254971765
0.321000000000000174,17.082972628435420859
0.322000000000000175,16.789771757292339061
0.323000000000000176,16.500908500547563307
0.324000000000000177,16.216336766976333195
0.325000000000000178,15.936009883586070401
0.326000000000000179,15.659880675581462128
0.327000000000000179,15.387901543047778574
0.328000000000000180,15.120024534304993935
0.329000000000000181,14.856201415904772389
0.330000000000000182,14.596383739259653822
0.331000000000000183,14.340522903909718622
0.332000000000000184,14.088570217446356736
0.333000000000000185,13.840476952125703392
0.334000000000000186,13.596194398215459387
0.335000000000000187,13.355673914129502222
0.336000000000000187,13.118866973413080501
0.337000000000000188,12.885725208649853712
0.338000000000000189,12.656200452368242537
0.339000000000000190,12.430244775030583781
0.340000000000000191,12.207810520193634218
0.341000000000000192,11.988850336932594942
0.342000000000000193,11.773317209624332591
0.343000000000000194,11.561164485187816808
0.344000000000000195,11.352345897881981784
0.345000000000000195,11.146815591761795261
0.346000000000000196,10.944528140894783874
0.347000000000000197,10.745438567439862254
0.348000000000000198,10.549502357690332843
0.349000000000000199,10.356675476182205742
0.350000000000000200,10.166914377967819050
0.351000000000000201,9.980176019153564226
0.352000000000000202,9.796417865798762392
0.353000000000000203,9.615597901270827919
0.354000000000000203,9.437674632149668952
0.355000000000000204,9.262607092772253026
0.356000000000000205,9.090354848505379337
0.357000000000000206,8.920877997832253214
0.358000000000000207,8.754137173336003386
0.359000000000000208,8.590093541660021259
0.360000000000000209,8.428708802522312027
0.361000000000000210,8.269945186858347341
0.362000000000000210,8.113765454163495150
0.363000000000000211,7.960132889103500808
0.364000000000000212,7.809011297458350320
0.365000000000000213,7.660365001461793000
0.366000000000000214,7.514158834596083025
0.367000000000000215,7.370358135898349872
0.368000000000000216,7.228928743832128134
0.369000000000000217,7.089836989775021081
0.370000000000000218,6.953049691170214430
0.371000000000000218,6.818534144387387030
0.372000000000000219,6.686258117335382778
0.373000000000000220,6.556189841866758350
0.374000000000000221,6.428298006011686994
0.375000000000000222,6.302551746076449746
0.376000000000000223,6.178920638638871310
0.377000000000000224,6.057374692471459099
0.378000000000000225,5.937884340420359841
0.379000000000000226,5.820420431266311034
0.380000000000000226,5.704954221591565400
0.381000000000000227,5.591457367675184642
0.382000000000000228,5.479901917436804659
0.383000000000000229,5.370260302447527501
0.384000000000000230,5.262505330024795036
0.385000000000000231,5.156610175426365572
0.386000000000000232,5.052548374157327160
0.387000000000000233,4.950293814402106030
0.388000000000000234,4.849820729592691393
0.389000000000000234,4.751103691122426476
0.390000000000000235,4.654117601213823896
0.391000000000000236,4.558837685947652929
0.392000000000000237,4.465239488459388895
0.393000000000000238,4.373298862308121038
0.394000000000000239,4.282991965022215908
0.395000000000000240,4.194295251824827986
0.396000000000000241,4.107185469541873246
0.397000000000000242,4.021639650694091905
0.398000000000000242,3.937635107774119625
0.399000000000000243,3.855149427709030796
0.400000000000000244,3.774160466507871181
0.401000000000000245,3.694646344093423629
0.402000000000000246,3.616585439316952311
0.403000000000000247,3.539956385153808949
0.404000000000000248,3.464738064077930169
0.405000000000000249,3.390909603612402012
0.406000000000000250,3.318450372053209030
0.407000000000000250,3.247339974362783099
0.408000000000000251,3.177558248229826354
0.409000000000000252,3.109085260291617026
0.410000000000000253,3.041901302514661065
0.411000000000000254,2.975986888729593716
0.412000000000000255,2.911322751315930990
0.413000000000000256,2.847889838032053866
0.414000000000000257,2.785669308986036263
0.415000000000000258,2.724642533742337669
0.416000000000000258,2.664791088559891996
0.417000000000000259,2.606096753756530493
0.418000000000000260,2.548541511195082432
0.419000000000000261,2.492107541886175337
0.420000000000000262,2.436777223703010975
0.421000000000000263,2.382533129203139310
0.422000000000000264,2.329358023552622114
0.423000000000000265,2.277234862547658611
0.424000000000000266,2.226146790729038205
0.425000000000000266,2.176077139584847053
0.426000000000000267,2.127009425836726031
0.427000000000000268,2.078927349805298697
0.428000000000000269,2.031814793850356793
0.429000000000000270,1.985655820881408129
0.430000000000000271,1.940434672934521654
0.431000000000000272,1.896135769811201133
0.432000000000000273,1.852743707775434512
0.433000000000000274,1.810243258304940595
0.434000000000000274,1.768619366892849598
0.435000000000000275,1.727857151896220245
0.436000000000000276,1.687941903427766066
0.437000000000000277,1.648859082287450928
0.438000000000000278,1.610594318930622659
0.439000000000000279,1.573133412469481573
0.440000000000000280,1.536462329704900043
0.441000000000000281,1.500567204185621950
0.442000000000000282,1.465434335291976753
0.443000000000000282,1.431050187341567526
0.444000000000000283,1.397401388714182291
0.445000000000000284,1.364474730993626483
0.446000000000000285,1.332257168124091562
0.447000000000000286,1.300735815578771826
0.448000000000000287,1.269897949538770332
0.449000000000000288,1.239731006080150300
0.450000000000000289,1.210222580367373624
0.451000000000000290,1.181360425851289531
0.452000000000000290,1.153132453469958074
0.453000000000000291,1.125526730850875401
0.454000000000000292,1.098531481512984076
0.455000000000000293,1.072135084067196376
0.456000000000000294,1.046326071414131365
0.457000000000000295,1.021093129937819199
0.458000000000000296,0.996425098694399880
0.459000000000000297,0.972310968594680247
0.460000000000000298,0.948739881579708788
0.461000000000000298,0.925701129788476740
0.462000000000000299,0.903184154716994536
0.463000000000000300,0.881178546368071691
0.464000000000000301,0.859674042391109339
0.465000000000000302,0.838660527211439466
0.466000000000000303,0.818128031148684598
0.467000000000000304,0.798066729523660867
0.468000000000000305,0.778466941753594099
0.469000000000000306,0.759319130435234357
0.470000000000000306,0.740613900415607485
0.471000000000000307,0.722341997850348583
0.472000000000000308,0.704494309249323103
0.473000000000000309,0.687061860509486366
0.474000000000000310,0.670035815934984180
0.475000000000000311,0.653407477244406731
0.476000000000000312,0.637168282565288679
0.477000000000000313,0.621309805415855898
0.478000000000000314,0.605823753674243903
0.479000000000000314,0.590701968535173982
0.480000000000000315,0.575936423454407320
0.481000000000000316,0.561519223081056618
0.482000000000000317,0.547442602178095261
0.483000000000000318,0.533698924531225694
0.484000000000000319,0.520280681846428505
0.485000000000000320,0.507180492636534530
0.486000000000000321,0.494391101097050700
0.487000000000000322,0.481905375971637018
0.488000000000000322,0.469716309407655241
0.489000000000000323,0.457817015801993965
0.490000000000000324,0.446200730637737686
0.491000000000000325,0.434860809311966523
0.492000000000000326,0.423790725955172753
0.493000000000000327,0.412984072242630229
0.494000000000000328,0.402434556198251581
0.495000000000000329,0.392136000991270994
0.496000000000000330,0.382082343726314166
0.497000000000000330,0.372267634227122557
0.498000000000000331,0.362686033814661302
0.499000000000000332,0.353331814079770878
0.500000000000000333,0.344199355651001682
0.501000000000000334,0.335283146958119171
0.502000000000000335,0.326577782991574583
0.503000000000000336,0.318077964058583129
0.504000000000000337,0.309778494536138982
0.505000000000000338,0.301674281621520213
0.506000000000000338,0.293760334080661933
0.507000000000000339,0.286031760994908013
0.508000000000000340,0.278483770506594286
0.509000000000000341,0.271111668563812303
0.510000000000000342,0.263910857664963694
0.511000000000000343,0.256876835603346398
0.512000000000000344,0.250005194212382653
0.513000000000000345,0.243291618111797059
0.514000000000000346,0.236731883455158776
0.515000000000000346,0.230321856679298775
0.516000000000000347,0.224057493255900658
0.517000000000000348,0.217934836445688396
0.518000000000000349,0.211950016055652751
0.519000000000000350,0.206099247199585639
0.520000000000000351,0.200378829062453745
0.521000000000000352,0.194785143668755434
0.522000000000000353,0.189314654655464848
0.523000000000000353,0.183963906049685211
0.524000000000000354,0.178729521051498891
0.525000000000000355,0.173608200822249287
0.526000000000000356,0.168596723278656768
0.527000000000000357,0.163691941892959603
0.528000000000000358,0.158890784499529120
0.529000000000000359,0.154190252108072551
0.530000000000000360,0.149587417723900662
0.531000000000000361,0.145079425175349164
0.532000000000000361,0.140663487948733151
0.533000000000000362,0.136336888031025782
0.534000000000000363,0.132096974760568919
0.535000000000000364,0.127941163685935388
0.536000000000000365,0.123866935433313730
0.537000000000000366,0.119871834582484071
0.538000000000000367,0.115953468551736008
0.539000000000000368,0.112109506491759145
0.540000000000000369,0.108337678188878433
0.541000000000000369,0.104635772977612354
0.542000000000000370,0.101001638662945009
0.543000000000000371,0.097433180452258822
0.544000000000000372,0.093928359897239688
0.545000000000000373,0.090485193845796744
0.546000000000000374,0.087101753404197430
0.547000000000000375,0.083776162909521987
0.548000000000000376,0.080506598912526400
0.549000000000000377,0.077291289171095595
0.550000000000000377,0.074128511654287133
0.551000000000000378,0.071016593557201538
0.552000000000000379,0.067953910326605624
0.553000000000000380,0.064938884697524929
0.554000000000000381,0.061969985740826614
0.555000000000000382,0.059045727921798297
0.556000000000000383,0.056164670169941110
0.557000000000000384,0.053325414959810337
0.558000000000000385,0.050526607403193036
0.559000000000000385,0.047766934352453827
0.560000000000000386,0.045045123515188634
0.561000000000000387,0.042359942580211432
0.562000000000000388,0.039710198354882674
0.563000000000000389,0.037094735913739976
0.564000000000000390,0.034512437758551194
0.565000000000000391,0.031962222989694845
0.566000000000000392,0.029443046488944448
0.567000000000000393,0.026953898113545361
0.568000000000000393,0.024493801901724187
0.569000000000000394,0.022061815289473773
0.570000000000000395,0.019657028338667403
0.571000000000000396,0.017278562976477962
0.572000000000000397,0.014925572246014585
0.573000000000000398,0.012597239568235507
0.574000000000000399,0.010292778014994331
0.575000000000000400,0.008011429593279495
0.576000000000000401,0.005752464540537483
0.577000000000000401,0.003515180631013570
0.578000000000000402,0.001298902493133136
0.579000000000000403,-0.000897019062167459
0.580000000000000404,-0.003073207702302527
0.581000000000000405,-0.005230262222973981
0.582000000000000406,-0.007368757187453401
0.583000000000000407,-0.009489243555099858
0.584000000000000408,-0.011592249299313507
0.585000000000000409,-0.013678280014934452
0.586000000000000409,-0.015747819515152316
0.587000000000000410,-0.017801330418088311
0.588000000000000411,-0.019839254722990640
0.589000000000000412,-0.021862014376298734
0.590000000000000413,-0.023870011827490756
0.591000000000000414,-0.025863630574925800
0.592000000000000415,-0.027843235701725956
0.593000000000000416,-0.029809174401757475
0.594000000000000417,-0.031761776495842262
0.595000000000000417,-0.033701354938339569
0.596000000000000418,-0.035628206314025614
0.597000000000000419,-0.037542611325604699
0.598000000000000420,-0.039444835271714364
0.599000000000000421,-0.041335128515713658
0.600000000000000422,-0.043213726945234975
0.601000000000000423,-0.045080852422625231
0.602000000000000424,-0.046936713226427826
0.603000000000000425,-0.048781504483967453
0.604000000000000425,-0.050615408595091192
0.605000000000000426,-0.052438595647285965
0.606000000000000427,-0.054251223822212626
0.607000000000000428,-0.056053439793664825
0.608000000000000429,-0.057845379117326602
0.609000000000000430,-0.059627166612070293
0.610000000000000431,-0.061398916733253317
0.611000000000000432,-0.063160733937867128
0.612000000000000433,-0.064912713041751086
0.613000000000000433,-0.066654939569000496
0.614000000000000434,-0.068387490093600845
0.615000000000000435,-0.070110432573446901
0.616000000000000436,-0.071823826676801567
0.617000000000000437,-0.073527724101425995
