# ZnS-sphalerite-110_CS-11530-AC
# h[nm],U(h)[kJ/mol]
0.149999999999999994,172.380702449025648093
0.150999999999999995,169.994621415174179901
0.151999999999999996,167.952729332969795450
0.152999999999999997,165.989430350638770051
0.153999999999999998,164.001038108130416049
0.154999999999999999,161.965358392983944213
0.156000000000000000,159.895471285541589168
0.157000000000000001,157.814818533084036289
0.158000000000000002,155.745127064474729650
0.159000000000000002,153.701713557313837555
0.160000000000000003,151.692742823281065512
0.161000000000000004,149.720357041721484848
0.162000000000000005,147.782467741705744402
0.163000000000000006,145.874558593005701823
0.164000000000000007,143.991189749694910915
0.165000000000000008,142.127096562728013396
0.166000000000000009,140.277886887071247202
0.167000000000000010,138.440395778163519935
0.168000000000000010,136.612776667610745562
0.169000000000000011,134.794408905051625425
0.170000000000000012,132.985692294727783747
0.171000000000000013,131.187785779718183221
0.172000000000000014,129.402333175216256222
0.173000000000000015,127.631205704060405992
0.174000000000000016,125.876279932196624145
0.175000000000000017,124.139260823741963691
0.176000000000000018,122.421552971366466522
0.177000000000000018,120.724178362214274784
0.178000000000000019,119.047735989499841480
0.179000000000000020,117.392396877947319922
0.180000000000000021,115.757927341605949323
0.181000000000000022,114.143733258833805166
0.182000000000000023,112.548918601094129599
0.183000000000000024,110.972352205464446229
0.184000000000000025,109.412737693682970530
0.185000000000000026,107.868682408354999325
0.186000000000000026,106.338762185685482109
0.187000000000000027,104.821579664749918948
0.188000000000000028,103.315814616267104498
0.189000000000000029,101.820265444204920868
0.190000000000000030,100.333881567157135350
0.191000000000000031,98.855786826587689120
0.192000000000000032,97.385294403965573906
0.193000000000000033,95.921913969659129862
0.194000000000000034,94.465351945818568424
0.195000000000000034,93.015505856320174871
0.196000000000000035,91.572453771762724273
0.197000000000000036,90.136439848223801619
0.198000000000000037,88.707856915561151823
0.199000000000000038,87.287227003739786824
0.200000000000000039,85.875180611886079873
0.201000000000000040,84.472435431106433157
0.202000000000000041,83.079775133923320141
0.203000000000000042,81.698028744715031735
0.204000000000000042,80.328051010045044222
0.205000000000000043,78.970704097623681150
0.206000000000000044,77.626840869515177701
0.207000000000000045,76.297289900146850528
0.208000000000000046,74.982842343247483541
0.209000000000000047,73.684240694216299516
0.210000000000000048,72.402169445462874364
0.211000000000000049,71.137247591605529351
0.212000000000000050,69.890022908547933866
0.213000000000000050,68.660967904741411871
0.214000000000000051,67.450477323690023468
0.215000000000000052,66.258867063241353890
0.216000000000000053,65.086374368705747884
0.217000000000000054,63.933159152649167822
0.218000000000000055,62.799306293639780563
0.219000000000000056,61.684828768668090504
0.220000000000000057,60.589671478822012318
0.221000000000000058,59.513715634569521740
0.222000000000000058,58.456783575205975012
0.223000000000000059,57.418643906261692678
0.224000000000000060,56.399016848577275596
0.225000000000000061,55.397579703038090315
0.226000000000000062,54.413972345361820260
0.227000000000000063,53.447802675640346592
0.228000000000000064,52.498651957383046351
0.229000000000000065,51.566079990452280413
0.230000000000000066,50.649630071426528843
0.231000000000000066,49.748833703491570191
0.232000000000000067,48.863215025896927557
0.233000000000000068,47.992294940290534555
0.234000000000000069,47.135594917846376006
0.235000000000000070,46.292640477026210988
0.236000000000000071,45.462964327081280658
0.237000000000000072,44.646109177021202186
0.238000000000000073,43.841630213784881676
0.239000000000000073,43.049097256776519771
0.240000000000000074,42.268096598810828368
0.241000000000000075,41.498232545892086875
0.242000000000000076,40.739128670166081747
0.243000000000000077,39.990428791877313586
0.244000000000000078,39.251797707275855487
0.245000000000000079,38.522921680188716209
0.246000000000000080,37.803508715439491539
0.247000000000000081,37.093288632501547397
0.248000000000000081,36.392012957742316814
0.249000000000000082,35.699454653389565806
0.250000000000000111,35.015407700955314851
0.251000000000000112,34.339686556318760324
0.252000000000000113,33.672125493018818077
0.253000000000000114,33.012577849567264821
0.254000000000000115,32.360915195779583087
0.255000000000000115,31.717026432257988233
0.256000000000000116,31.080816836259845815
0.257000000000000117,30.452207066263799362
0.258000000000000118,29.831132136616780315
0.259000000000000119,29.217540372716591435
0.260000000000000120,28.611392356269284676
0.261000000000000121,28.012659869264069812
0.262000000000000122,27.421324844437869217
0.263000000000000123,26.837378329162241641
0.264000000000000123,26.260819468881756222
0.265000000000000124,25.691654515467302389
0.266000000000000125,25.129895865123987875
0.267000000000000126,24.575561129811937633
0.268000000000000127,24.028672245499581805
0.269000000000000128,23.489254619976261296
0.270000000000000129,22.957336322400539785
0.271000000000000130,22.432947316253603276
0.272000000000000131,21.916118736903815289
0.273000000000000131,21.406882214565165157
0.274000000000000132,20.905269243049680483
0.275000000000000133,20.411310594369357574
0.276000000000000134,19.925035778934809372
0.277000000000000135,19.446472550825447456
0.278000000000000136,18.975646457364639730
0.279000000000000137,18.512580432024172694
0.280000000000000138,18.057294429501997257
0.281000000000000139,17.609805101662754367
0.282000000000000139,17.170125512902565390
0.283000000000000140,16.738264893393150601
0.284000000000000141,16.314228428576431185
0.285000000000000142,15.898017083215119527
0.286000000000000143,15.489627458257434256
0.287000000000000144,15.089051678742942286
0.288000000000000145,14.696277310958555162
0.289000000000000146,14.311287307050701401
0.290000000000000147,13.934059975305785883
0.291000000000000147,13.564568974329546336
0.292000000000000148,13.202783329381503563
0.293000000000000149,12.848667469155548915
0.294000000000000150,12.502181281338021535
0.295000000000000151,12.163280185321514892
0.296000000000000152,11.831915220503720576
0.297000000000000153,11.508033148656192424
0.298000000000000154,11.191576568905773570
0.299000000000000155,10.882484043932876716
0.300000000000000155,10.580690236052964437
0.301000000000000156,10.286126051911933743
0.302000000000000157,9.998718794590178760
0.303000000000000158,9.718392321975693804
0.304000000000000159,9.445067210330652330
0.305000000000000160,9.178660922040650760
0.306000000000000161,8.919087976598975231
0.307000000000000162,8.666260123940546123
0.308000000000000163,8.420086519301340999
0.309000000000000163,8.180473898838446445
0.310000000000000164,7.947326755303575574
0.311000000000000165,7.720547513118880545
0.312000000000000166,7.500036702257728116
0.313000000000000167,7.285693130384970573
0.314000000000000168,7.077414052761115570
0.315000000000000169,6.875095339462212962
0.316000000000000170,6.678631639512687457
0.317000000000000171,6.487916541571685514
0.318000000000000171,6.302842730854260722
0.319000000000000172,6.123302142007549520
0.320000000000000173,5.949186107698706927
0.321000000000000174,5.780385502705886580
0.322000000000000175,5.616790883335653461
0.323000000000000176,5.458292622020833207
0.324000000000000177,5.304781036980786624
0.325000000000000178,5.156146516852798456
0.326000000000000179,5.012279640227312427
0.327000000000000179,4.873071290042872761
0.328000000000000180,4.738412762817282520
0.329000000000000181,4.608195872710726171
0.330000000000000182,4.482313050434553858
0.331000000000000183,4.360657437035095896
0.332000000000000184,4.243122972597022979
0.333000000000000185,4.129604479923747462
0.334000000000000186,4.019997743264404733
0.335000000000000187,3.914199582167815272
0.336000000000000187,3.812107920553083229
0.337000000000000188,3.713621851095450843
0.338000000000000189,3.618641695032862593
0.339000000000000190,3.527069057505481275
0.340000000000000191,3.438806878545955126
0.341000000000000192,3.353759479842687963
0.342000000000000193,3.271832607402408222
0.343000000000000194,3.192933470241293481
0.344000000000000195,3.116970775236816316
0.345000000000000195,3.043854758273493388
0.346000000000000196,2.973497211817856645
0.347000000000000197,2.905811509057996567
0.348000000000000198,2.840712624743513270
0.349000000000000199,2.778117152861495409
0.350000000000000200,2.717943321283304847
0.351000000000000201,2.660111003516105743
0.352000000000000202,2.604541727691629838
0.353000000000000203,2.551158682922948895
0.354000000000000203,2.499886723158151636
0.355000000000000204,2.450652368657713964
0.356000000000000205,2.403383805219798219
0.357000000000000206,2.358010881275136583
0.358000000000000207,2.314465102970714394
0.359000000000000208,2.272679627358184629
0.360000000000000209,2.232589253800135065
0.361000000000000210,2.194130413704373783
0.362000000000000210,2.157241158692905891
0.363000000000000211,2.121861147309371365
0.364000000000000212,2.087931630365138069
0.365000000000000213,2.055395435021171835
0.366000000000000214,2.024196947699282934
0.367000000000000215,1.994282095913197939
0.368000000000000216,1.965598329106275299
0.369000000000000217,1.938094598579762629
0.370000000000000218,1.911721336591738041
0.371000000000000218,1.886430434704094550
0.372000000000000219,1.862175221451206397
0.373000000000000220,1.838910439401085339
0.374000000000000221,1.816592221676528895
0.375000000000000222,1.795178068000851113
0.376000000000000223,1.774626820329381349
0.377000000000000224,1.754898638125501176
0.378000000000000225,1.735954973336631735
0.379000000000000226,1.717758545123084346
0.380000000000000226,1.700273314389646684
0.381000000000000227,1.683464458167476918
0.382000000000000228,1.667298343890891488
0.383000000000000229,1.651742503611371093
0.384000000000000230,1.636765608188673227
0.385000000000000231,1.622337441496314314
0.386000000000000232,1.608428874676788967
0.387000000000000233,1.595011840479308773
0.388000000000000234,1.582059307711087159
0.389000000000000234,1.569545255830765651
0.390000000000000235,1.557444649710940654
0.391000000000000236,1.545733414594661070
0.392000000000000237,1.534388411269001384
0.393000000000000238,1.523387411477070907
0.394000000000000239,1.512709073588202724
0.395000000000000240,1.502332918544320828
0.396000000000000241,1.492239306099117702
0.397000000000000242,1.482409411365156027
0.398000000000000242,1.472825201682497420
0.399000000000000243,1.463469413821385068
0.400000000000000244,1.454325531530004101
0.401000000000000245,1.445377763437173169
0.402000000000000246,1.436611021318943360
0.403000000000000247,1.428010898736544521
0.404000000000000248,1.419563650052509729
0.405000000000000249,1.411256169830567231
0.406000000000000250,1.403075972624157286
0.407000000000000250,1.395011173157342910
0.408000000000000251,1.387050466901329049
0.409000000000000252,1.379183111048800647
0.410000000000000253,1.371398905887688979
0.411000000000000254,1.363688176575284405
0.412000000000000255,1.356041755312953789
0.413000000000000256,1.348450963921062229
0.414000000000000257,1.340907596813335712
0.415000000000000258,1.333403904369066861
0.416000000000000258,1.325932576701461141
0.417000000000000259,1.318486727819582205
0.418000000000000260,1.311059880181280279
0.419000000000000261,1.303645949633808865
0.420000000000000262,1.296239230738760018
0.421000000000000263,1.288834382477303420
0.422000000000000264,1.281426414331749752
0.423000000000000265,1.274010672738951078
0.424000000000000266,1.266582827910782694
0.425000000000000266,1.259138861017004896
0.426000000000000267,1.251675051725209320
0.427000000000000268,1.244187966092692887
0.428000000000000269,1.236674444804783501
0.429000000000000270,1.229131591753957808
0.430000000000000271,1.221556762954174591
0.431000000000000272,1.213947555784441024
0.432000000000000273,1.206301798555822202
0.433000000000000274,1.198617540395802150
0.434000000000000274,1.190893041443997324
0.435000000000000275,1.183126763353074873
0.436000000000000276,1.175317360088726115
0.437000000000000277,1.167463669022543060
0.438000000000000278,1.159564702311573825
0.439000000000000279,1.151619638558362357
0.440000000000000280,1.143627814745289628
0.441000000000000281,1.135588718437060773
0.442000000000000282,1.127501980245050550
0.443000000000000282,1.119367366547597387
0.444000000000000283,1.111184772459902659
0.445000000000000284,1.102954215047654341
0.446000000000000285,1.094675826778356953
0.447000000000000286,1.086349849204267581
0.448000000000000287,1.077976626871275601
0.449000000000000288,1.069556601447684274
0.450000000000000289,1.061090306067308919
0.451000000000000290,1.052578359881091385
0.452000000000000290,1.044021462811652201
0.453000000000000291,1.035420390505304322
0.454000000000000292,1.026775989475992912
0.455000000000000293,1.018089172435864054
0.456000000000000294,1.009360913807159310
0.457000000000000295,1.000592245410233172
0.458000000000000296,0.991784252322640336
0.459000000000000297,0.982938068904237072
0.460000000000000298,0.974054874983410146
0.461000000000000298,0.965135892199604717
0.462000000000000299,0.956182380497417106
0.463000000000000300,0.947195634767665995
0.464000000000000301,0.938176981630818418
0.465000000000000302,0.929127776358423363
0.466000000000000303,0.920049399928159040
0.467000000000000304,0.910943256208240904
0.468000000000000305,0.901810769267062051
0.469000000000000306,0.892653380804010910
0.470000000000000306,0.883472547697424226
0.471000000000000307,0.874269739665943790
0.472000000000000308,0.865046437039371341
0.473000000000000309,0.855804128635386241
0.474000000000000310,0.846544309738554546
0.475000000000000311,0.837268480178080976
0.476000000000000312,0.827978142500920056
0.477000000000000313,0.818674800236885991
0.478000000000000314,0.809359956252601265
0.479000000000000314,0.800035111191004455
0.480000000000000315,0.790701761993484853
0.481000000000000316,0.781361400501538683
0.482000000000000317,0.772015512135154736
0.483000000000000318,0.762665574645008171
0.484000000000000319,0.753313056935792869
0.485000000000000320,0.743959417957996250
0.486000000000000321,0.734606105665517761
0.487000000000000322,0.725254556036638798
0.488000000000000322,0.715906192155943755
0.489000000000000323,0.706562423354708424
0.490000000000000324,0.697224644407588579
0.491000000000000325,0.687894234783305136
0.492000000000000326,0.678572557947213273
0.493000000000000327,0.669260960713613295
0.494000000000000328,0.659960772645823202
0.495000000000000329,0.650673305502013855
0.496000000000000330,0.641399852724964914
0.497000000000000330,0.632141688973767546
0.498000000000000331,0.622900069695909164
0.499000000000000332,0.613676230737781769
0.500000000000000333,0.604471387992089437
0.501000000000000334,0.595286737080545580
0.502000000000000335,0.586123453070196310
0.503000000000000336,0.576982690221992223
0.504000000000000337,0.567865581770043759
0.505000000000000338,0.558773239730227744
0.506000000000000338,0.549706754736749792
0.507000000000000339,0.540667195905354836
0.508000000000000340,0.531655610721960104
0.509000000000000341,0.522673024955397247
0.510000000000000342,0.513720442593210258
0.511000000000000343,0.504798845799249163
0.512000000000000344,0.495909194892070082
0.513000000000000345,0.487052428343031529
0.514000000000000346,0.478229462793028914
0.515000000000000346,0.469441193087015318
0.516000000000000347,0.460688492325236953
0.517000000000000348,0.451972211930323275
0.518000000000000349,0.443293181729395525
0.519000000000000350,0.434652210050279486
0.520000000000000351,0.426050083831096493
0.521000000000000352,0.417487568742354931
0.522000000000000353,0.408965409320910578
0.523000000000000353,0.400484329114984106
0.524000000000000354,0.392045030839593633
0.525000000000000355,0.383648196541714837
0.526000000000000356,0.375294487774589736
0.527000000000000357,0.366984545780466853
0.528000000000000358,0.358718991681325761
0.529000000000000359,0.350498426676871866
0.530000000000000360,0.342323432249437898
0.531000000000000361,0.334194570375103583
0.532000000000000361,0.326112383740673972
0.533000000000000362,0.318077395965955745
0.534000000000000363,0.310090111830961912
0.535000000000000364,0.302151017507511721
0.536000000000000365,0.294260580794920845
0.537000000000000366,0.286419251359287808
0.538000000000000367,0.278627460976115238
0.539000000000000368,0.270885623775739770
0.540000000000000369,0.263194136491434416
0.541000000000000369,0.255553378709643897
0.542000000000000370,0.247963713122237805
0.543000000000000371,0.240425485780322523
0.544000000000000372,0.232939026349431616
0.545000000000000373,0.225504648365774052
0.546000000000000374,0.218122649493314447
0.547000000000000375,0.210793311781424741
0.548000000000000376,0.203516901922866145
0.549000000000000377,0.196293671511923673
0.550000000000000377,0.189123857302420151
0.551000000000000378,0.182007681465491261
0.552000000000000379,0.174945351846863745
0.553000000000000380,0.167937062223493860
0.554000000000000381,0.160982992559428939
0.555000000000000382,0.154083309260638540
0.556000000000000383,0.147238165428808965
0.557000000000000384,0.140447701113805667
0.558000000000000385,0.133712043564816085
0.559000000000000385,0.127031307479934130
0.560000000000000386,0.120405595254146319
0.561000000000000387,0.113834997225570847
0.562000000000000388,0.107319591919880830
0.563000000000000389,0.100859446292761751
0.564000000000000390,0.094454615970387401
0.565000000000000391,0.088105145487773581
0.566000000000000392,0.081811068524969305
0.567000000000000393,0.075572408140978112
0.568000000000000393,0.069389177005394889
0.569000000000000394,0.063261377627651244
0.570000000000000395,0.057189002583839132
0.571000000000000396,0.051172034741071945
0.572000000000000397,0.045210447479278312
0.573000000000000398,0.039304204910492871
0.574000000000000399,0.033453262095485645
0.575000000000000400,0.027657565257801796
0.576000000000000401,0.021917051995124070
0.577000000000000401,0.016231651487915999
0.578000000000000402,0.010601284705384495
0.579000000000000403,0.005025864608724573
0.580000000000000404,-0.000494703648452155
0.581000000000000405,-0.005960522522369549
0.582000000000000406,-0.011371701884174662
0.583000000000000407,-0.016728358827771045
0.584000000000000408,-0.022030617480450786
0.585000000000000409,-0.027278608816309252
0.586000000000000409,-0.032472470472453149
0.587000000000000410,-0.037612346568007854
0.588000000000000411,-0.042698387525870699
0.589000000000000412,-0.047730749897306274
0.590000000000000413,-0.052709596189247566
0.591000000000000414,-0.057635094694400535
0.592000000000000415,-0.062507419324097119
0.593000000000000416,-0.067326749443873693
0.594000000000000417,-0.072093269711773059
0.595000000000000417,-0.076807169919400078
0.596000000000000418,-0.081468644835609519
0.597000000000000419,-0.086077894052932868
0.598000000000000420,-0.090635121836613486
0.599000000000000421,-0.095140536976324991
0.600000000000000422,-0.099594352640487591
0.601000000000000423,-0.103996786233178651
0.602000000000000424,-0.108348059253629184
0.603000000000000425,-0.112648397158295582
0.604000000000000425,-0.116898029225416367
0.605000000000000426,-0.121097188422094493
0.606000000000000427,-0.125246111273909444
0.607000000000000428,-0.129345037736861346
0.608000000000000429,-0.133394211071926144
0.609000000000000430,-0.137393877721813301
0.610000000000000431,-0.141344287190267759
0.611000000000000432,-0.145245691923634318
0.612000000000000433,-0.149098347194741188
0.613000000000000433,-0.152902510989133378
0.614000000000000434,-0.156658443893525012
0.615000000000000435,-0.160366408986502701
0.616000000000000436,-0.164026671731424101
0.617000000000000437,-0.167639499871549802
0.618000000000000438,-0.171205163327266985
