# ZnS-sphalerite-110_CS-68900-AC
# h[nm],U(h)[kJ/mol]
0.149999999999999994,158.564529931239519556
0.150999999999999995,155.860570780293926418
0.151999999999999996,153.842533370390640357
0.152999999999999997,151.969454912347487152
0.153999999999999998,150.046541799871931744
0.154999999999999999,148.041741506649202620
0.156000000000000000,145.986142031477072578
0.157000000000000001,143.924078681638604849
0.158000000000000002,141.891513110615505866
0.159000000000000002,139.909540958957279599
0.160000000000000003,137.985222198841768204
0.161000000000000004,136.115300275177588674
0.162000000000000005,134.290455486143486041
0.163000000000000006,132.498979714290015863
0.164000000000000007,130.729468218203464858
0.165000000000000008,128.972501380450779607
0.166000000000000009,127.221466756222298500
0.167000000000000010,125.472734004344488312
0.168000000000000010,123.725395395599122139
0.169000000000000011,121.980754972463870445
0.170000000000000012,120.241709055063523692
0.171000000000000013,118.512120103458343578
0.172000000000000014,116.796250135246012292
0.173000000000000015,115.098290990662874833
0.174000000000000016,113.422006985151057279
0.175000000000000017,111.770490220422246352
0.176000000000000018,110.146018969702254253
0.177000000000000018,108.550003947307487806
0.178000000000000019,106.983004823978120612
0.179000000000000020,105.444799113334653384
0.180000000000000021,103.934486762534149307
0.181000000000000022,102.450615835029793743
0.182000000000000023,100.991317132903233755
0.183000000000000024,99.554438158197399389
0.184000000000000025,98.137669249311372255
0.185000000000000026,96.738656923047656733
0.186000000000000026,95.355101338779618914
0.187000000000000027,93.984836354915927359
0.188000000000000028,92.625891875103860684
0.189000000000000029,91.276539106734816187
0.190000000000000030,89.935320012166272363
0.191000000000000031,88.601062663319908097
0.192000000000000032,87.272884453382133074
0.193000000000000033,85.950185213778866000
0.194000000000000034,84.632632265479713851
0.195000000000000034,83.320139331739994759
0.196000000000000035,82.012841080691416096
0.197000000000000036,80.711064872237926693
0.198000000000000037,79.415301071694713642
0.199000000000000038,78.126173075852761940
0.200000000000000039,76.844407985604178180
0.201000000000000040,75.570808660009532787
0.202000000000000041,74.306227704437390003
0.203000000000000042,73.051543782963179297
0.204000000000000042,71.807640503869578197
0.205000000000000043,70.575388007008569957
0.206000000000000044,69.355627282268102363
0.207000000000000045,68.149157168169040233
0.208000000000000046,66.956723917038488025
0.209000000000000047,65.779013166388310196
0.210000000000000048,64.616644123106212305
0.211000000000000049,63.470165745871419460
0.212000000000000050,62.340054699947792471
0.213000000000000050,61.226714855408260973
0.214000000000000051,60.130478103281404856
0.215000000000000052,59.051606272632113814
0.216000000000000053,57.990293943907815333
0.217000000000000054,56.946671968896353633
0.218000000000000055,55.920811524406417448
0.219000000000000056,54.912728544517143803
0.220000000000000057,53.922388394299460401
0.221000000000000058,52.949710665789190500
0.222000000000000058,51.994573994275995688
0.223000000000000059,51.056820809379026116
0.224000000000000060,50.136261950685266697
0.225000000000000061,49.232681091794070483
0.226000000000000062,48.345838929355906544
0.227000000000000063,47.475477105085182927
0.228000000000000064,46.621321838768743362
0.229000000000000065,45.783087259020746274
0.230000000000000066,44.960478426012180364
0.231000000000000066,44.153194046700967590
0.232000000000000067,43.360928888298424511
0.233000000000000068,42.583375899918749496
0.234000000000000069,41.820228055671677225
0.235000000000000070,41.071179934968604641
0.236000000000000071,40.335929057617036619
0.237000000000000072,39.614176992467164951
0.238000000000000073,38.905630259035682172
0.239000000000000073,38.210001041747652550
0.240000000000000074,37.527007736277582239
0.241000000000000075,36.856375347011194776
0.242000000000000076,36.197835753942662507
0.243000000000000077,35.551127866429759194
0.244000000000000078,34.915997680195509645
0.245000000000000079,34.292198252832136518
0.246000000000000080,33.679489611869861676
0.247000000000000081,33.077638608245891305
0.248000000000000081,32.486418726778211408
0.249000000000000082,31.905609864032140166
0.250000000000000111,31.334998082784615292
0.251000000000000112,30.774375351155065061
0.252000000000000113,30.223539273390770177
0.253000000000000114,29.682292818281744928
0.254000000000000115,29.150444050234192161
0.255000000000000115,28.627805867160958542
0.256000000000000116,28.114195748551047416
0.257000000000000117,27.609435516358541207
0.258000000000000118,27.113351110704410729
0.259000000000000119,26.625772381808541667
0.260000000000000120,26.146532899062187028
0.261000000000000121,25.675469777710340225
0.262000000000000122,25.212423523232924794
0.263000000000000123,24.757237893192119316
0.264000000000000123,24.309759776043275536
0.265000000000000124,23.869839086186978250
0.266000000000000125,23.437328674363264724
0.267000000000000126,23.012084252353488978
0.268000000000000127,22.593964330854412026
0.269000000000000128,22.182830169321341884
0.270000000000000129,21.778545736536266020
0.271000000000000130,21.380977680640704364
0.272000000000000131,20.989995307377995459
0.273000000000000131,20.605470565311808429
0.274000000000000132,20.227278036825506291
0.275000000000000133,19.855294933756010067
0.276000000000000134,19.489401096575200256
0.277000000000000135,19.129478996099287258
0.278000000000000136,18.775413736778268969
0.279000000000000137,18.427093060694581084
0.280000000000000138,18.084407351478994030
0.281000000000000139,17.747249637431114166
0.282000000000000139,17.415515593212212764
0.283000000000000140,17.089103539556592892
0.284000000000000141,16.767914440524570807
0.285000000000000142,16.451851897894279375
0.286000000000000143,16.140822142360786273
0.287000000000000144,15.834734021278555005
0.288000000000000145,15.533498982746312578
0.289000000000000146,15.237031055893812237
0.290000000000000147,14.945246827283900970
0.291000000000000147,14.658065413394904652
0.292000000000000148,14.375408429193663906
0.293000000000000149,14.097199952852056626
0.294000000000000150,13.823366486696603062
0.295000000000000151,13.553836914514059586
0.296000000000000152,13.288542455364833472
0.297000000000000153,13.027416614081062107
0.298000000000000154,12.770395128647210825
0.299000000000000155,12.517415914678904798
0.300000000000000155,12.268419007229642403
0.301000000000000156,12.023346500166498529
0.302000000000000157,11.782142483363582386
0.303000000000000158,11.544752977967938534
0.304000000000000159,11.311125869995183990
0.305000000000000160,11.081210842513016246
0.306000000000000161,10.854959306669472952
0.307000000000000162,10.632324331819294372
0.308000000000000163,10.413260574997378782
0.309000000000000163,10.197724209981680943
0.310000000000000164,9.985672856180576318
0.311000000000000165,9.777065507571077063
0.312000000000000166,9.571862461904718344
0.313000000000000167,9.370025250387730154
0.314000000000000168,9.171516568031194083
0.315000000000000169,8.976300204855453657
0.316000000000000170,8.784340978121338850
0.317000000000000171,8.595604665748776796
0.318000000000000171,8.410057941071306331
0.319000000000000172,8.227668309062540430
0.320000000000000173,8.048404044158846915
0.321000000000000174,7.872234129790209423
0.322000000000000175,7.699128199719419641
0.323000000000000176,7.529056481278129986
0.324000000000000177,7.361989740576929009
0.325000000000000178,7.197899229755677197
0.326000000000000179,7.036756636329405623
0.327000000000000179,6.878534034675226394
0.328000000000000180,6.723203839695583994
0.329000000000000181,6.570738762683873802
0.330000000000000182,6.421111769409660219
0.331000000000000183,6.274296040432089328
0.332000000000000184,6.130264933642334491
0.333000000000000185,5.988991949028368289
0.334000000000000186,5.850450695648357957
0.335000000000000187,5.714614860792577744
0.336000000000000187,5.581458181307541899
0.337000000000000188,5.450954417050938083
0.338000000000000189,5.323077326440356138
0.339000000000000190,5.197800644054531460
0.340000000000000191,5.075098060241696629
0.341000000000000192,4.954943202685664794
0.342000000000000193,4.837309619877115274
0.343000000000000194,4.722170766434484968
0.344000000000000195,4.609499990216701981
0.345000000000000195,4.499270521167120229
0.346000000000000196,4.391455461826981654
0.347000000000000197,4.286027779454614439
0.348000000000000198,4.182960299685724692
0.349000000000000199,4.082225701669123019
0.350000000000000200,3.983796514611602113
0.351000000000000201,3.887645115665327999
0.352000000000000202,3.793743729091130668
0.353000000000000203,3.702064426630879090
0.354000000000000203,3.612579129022731372
0.355000000000000204,3.525259608593484639
0.356000000000000205,3.440077492862869235
0.357000000000000206,3.357004269095377857
0.358000000000000207,3.276011289736634691
0.359000000000000208,3.197069778671917994
0.360000000000000209,3.120150838245964398
0.361000000000000210,3.045225456984644641
0.362000000000000210,2.972264517960217400
0.363000000000000211,2.901238807743770742
0.364000000000000212,2.832119025889731301
0.365000000000000213,2.764875794899249062
0.366000000000000214,2.699479670610839488
0.367000000000000215,2.635901152968486816
0.368000000000000216,2.574110697119068369
0.369000000000000217,2.514078724793086472
0.370000000000000218,2.455775635924111633
0.371000000000000218,2.399171820464616189
0.372000000000000219,2.344237670357361747
0.373000000000000220,2.290943591623578079
0.374000000000000221,2.239260016530913333
0.375000000000000222,2.189157415806138651
0.376000000000000223,2.140606310858979011
0.377000000000000224,2.093577285985772196
0.378000000000000225,2.048041000523018518
0.379000000000000226,2.003968200922845888
0.380000000000000226,1.961329732723880337
0.381000000000000227,1.920096552393037559
0.382000000000000228,1.880239739014962996
0.383000000000000229,1.841730505807770868
0.384000000000000230,1.804540211445144537
0.385000000000000231,1.768640371166249281
0.386000000000000232,1.734002667656694197
0.387000000000000233,1.700598961684757215
0.388000000000000234,1.668401302478913717
0.389000000000000234,1.637381937833617851
0.390000000000000235,1.607513323931855309
0.391000000000000236,1.578768134874054763
0.392000000000000237,1.551119271904185526
0.393000000000000238,1.524539872324940815
0.394000000000000239,1.499003318095110782
0.395000000000000240,1.474483244103095503
0.396000000000000241,1.450953546111652726
0.397000000000000242,1.428388388369896678
0.398000000000000242,1.406762210889318965
0.399000000000000243,1.386049736381678610
0.400000000000000244,1.366225976857223134
0.401000000000000245,1.347266239882488392
0.402000000000000246,1.329146134497849463
0.403000000000000247,1.311841576795322428
0.404000000000000248,1.295328795158087631
0.405000000000000249,1.279584335163564734
0.406000000000000250,1.264585064152624172
0.407000000000000250,1.250308175467836236
0.408000000000000251,1.236731192364343368
0.409000000000000252,1.223831971597250101
0.410000000000000253,1.211588706689909589
0.411000000000000254,1.199979930887866919
0.412000000000000255,1.188984519803577555
0.413000000000000256,1.178581693757248861
0.414000000000000257,1.168751019819683545
0.415000000000000258,1.159472413562907089
0.416000000000000258,1.150726140525038632
0.417000000000000259,1.142492817395638349
0.418000000000000260,1.134753412928328542
0.419000000000000261,1.127489248587383974
0.420000000000000262,1.120681998935316059
0.421000000000000263,1.114313691768430647
0.422000000000000264,1.108366708007633594
0.423000000000000265,1.102823781351691235
0.424000000000000266,1.097667997700206843
0.425000000000000266,1.092882794353836617
0.426000000000000267,1.088451958998976510
0.427000000000000268,1.084359628484478977
0.428000000000000269,1.080590287397753091
0.429000000000000270,1.077128766447645436
0.430000000000000271,1.073960240661579579
0.431000000000000272,1.071070227404196995
0.432000000000000273,1.068444584224899518
0.433000000000000274,1.066069506541483802
0.434000000000000274,1.063931525167092440
0.435000000000000275,1.062017503687580522
0.436000000000000276,1.060314635696290253
0.437000000000000277,1.058810441893247800
0.438000000000000278,1.057492767055543403
0.439000000000000279,1.056349776885654013
0.440000000000000280,1.055369954744363348
0.441000000000000281,1.054542098274765083
0.442000000000000282,1.053855315923683422
0.443000000000000282,1.053299023366918163
0.444000000000000283,1.052862939844281032
0.445000000000000284,1.052537084410546386
0.446000000000000285,1.052311772108197818
0.447000000000000286,1.052177610067563496
0.448000000000000287,1.052125493540147172
0.449000000000000288,1.052146601870408205
0.450000000000000289,1.052232394411475314
0.451000000000000290,1.052374606389862466
0.452000000000000290,1.052565244724226634
0.453000000000000291,1.052796583803127684
0.454000000000000292,1.053061161226429565
0.455000000000000293,1.053351773515030398
0.456000000000000294,1.053661471793330362
0.457000000000000295,1.053983557448737063
0.458000000000000296,1.054311577772438557
0.459000000000000297,1.054639321585413070
0.460000000000000298,1.054960814853597384
0.461000000000000298,1.055270316295951138
0.462000000000000299,1.055562312989029250
0.463000000000000300,1.055831515971577428
0.464000000000000301,1.056072855852421499
0.465000000000000302,1.056281478424922815
0.466000000000000303,1.056452740291083714
0.467000000000000304,1.056582204498192734
0.468000000000000305,1.056665636190917246
0.469000000000000306,1.056698998281511592
0.470000000000000306,1.056678447140663391
0.471000000000000307,1.056600328311587678
0.472000000000000308,1.056461172249562930
0.473000000000000309,1.056257690089224432
0.474000000000000310,1.055986769441717099
0.475000000000000311,1.055645470223729676
0.476000000000000312,1.055231020520271290
0.477000000000000313,1.054740812483043300
0.478000000000000314,1.054172398266096211
0.479000000000000314,1.053523486000316201
0.480000000000000315,1.052791935808332635
0.481000000000000316,1.051975755861163986
0.482000000000000317,1.051073098478007450
0.483000000000000318,1.050082256270320702
0.484000000000000319,1.049001658331400133
0.485000000000000320,1.047829866472486104
0.486000000000000321,1.046565571506369308
0.487000000000000322,1.045207589579397744
0.488000000000000322,1.043754858552778941
0.489000000000000323,1.042206434433767814
0.490000000000000324,1.040561487857602385
0.491000000000000325,1.038819300620659192
0.492000000000000326,1.036979262265469881
0.493000000000000327,1.035040866717992225
0.494000000000000328,1.033003708977626944
0.495000000000000329,1.030867481860293200
0.496000000000000330,1.028631972794906257
0.497000000000000330,1.026297060673415862
0.498000000000000331,1.023862712754759041
0.499000000000000332,1.021328981622685816
0.500000000000000333,1.018696002197660100
0.501000000000000334,1.015963988802914386
0.502000000000000335,1.013133232284531449
0.503000000000000336,1.010204097185650074
0.504000000000000337,1.007177018974626304
0.505000000000000338,1.004052501327068914
0.506000000000000338,1.000831113461574162
0.507000000000000339,0.997513487528984499
0.508000000000000340,0.994100316054947086
0.509000000000000341,0.990592349435457820
0.510000000000000342,0.986990393485204898
0.511000000000000343,0.983295307038285271
0.512000000000000344,0.979507999601033852
0.513000000000000345,0.975629429056551700
0.514000000000000346,0.971660599420519633
0.515000000000000346,0.967602558647939426
0.516000000000000347,0.963456396490321665
0.517000000000000348,0.959223242402830523
0.518000000000000349,0.954904263500989003
0.519000000000000350,0.950500662566358345
0.520000000000000351,0.946013676100751821
0.521000000000000352,0.941444572428375537
0.522000000000000353,0.936794649845443694
0.523000000000000353,0.932065234816622734
0.524000000000000354,0.927257680217798752
0.525000000000000355,0.922373363624539366
0.526000000000000356,0.917413685645719235
0.527000000000000357,0.912380068301623881
0.528000000000000358,0.907273953446020465
0.529000000000000359,0.902096801231477174
0.530000000000000360,0.896850088617413332
0.531000000000000361,0.891535307920157116
0.532000000000000361,0.886153965404444355
0.533000000000000362,0.880707579915669947
0.534000000000000363,0.875197681552299933
0.535000000000000364,0.869625810377743003
0.536000000000000365,0.863993515171091020
0.537000000000000366,0.858302352216020692
0.538000000000000367,0.852553884127286166
0.539000000000000368,0.846749678714025178
0.540000000000000369,0.840891307879386929
0.541000000000000369,0.834980346555680875
0.542000000000000370,0.829018371674512644
0.543000000000000371,0.823006961171184548
0.544000000000000372,0.816947693022750721
0.545000000000000373,0.810842144319066094
0.546000000000000374,0.804691890366203255
0.547000000000000375,0.798498503821595484
0.548000000000000376,0.792263553860250491
0.549000000000000377,0.785988605371440663
0.550000000000000377,0.779675218185205798
0.551000000000000378,0.773324946328087792
0.552000000000000379,0.766939337307433577
0.553000000000000380,0.760519931423686790
0.554000000000000381,0.754068261110073967
0.555000000000000382,0.747585850299010146
0.556000000000000383,0.741074213814747473
0.557000000000000384,0.734534856791540736
0.558000000000000385,0.727969274116881948
0.559000000000000385,0.721378949899109445
0.560000000000000386,0.714765356958895648
0.561000000000000387,0.708129956344018652
0.562000000000000388,0.701474196866886501
0.563000000000000389,0.694799514664203421
0.564000000000000390,0.688107332778319369
0.565000000000000391,0.681399060759650177
0.566000000000000392,0.674676094289707873
0.567000000000000393,0.667939814824129008
0.568000000000000393,0.661191589255304968
0.569000000000000394,0.654432769593993213
0.570000000000000395,0.647664692669481346
0.571000000000000396,0.640888679847807174
0.572000000000000397,0.634106036767481673
0.573000000000000398,0.627318053092359107
0.574000000000000399,0.620526002281052702
0.575000000000000400,0.613731141372543698
0.576000000000000401,0.606934710787474296
0.577000000000000401,0.600137934144659768
0.578000000000000402,0.593342018092438805
0.579000000000000403,0.586548152154418245
0.580000000000000404,0.579757508589111348
0.581000000000000405,0.572971242263182745
0.582000000000000406,0.566190490537779589
0.583000000000000407,0.559416373167614278
0.584000000000000408,0.552649992212374874
0.585000000000000409,0.545892431960093516
0.586000000000000409,0.539144758862092344
0.587000000000000410,0.532408021479103821
0.588000000000000411,0.525683250438286231
0.589000000000000412,0.518971458400653951
0.590000000000000413,0.512273640038696243
0.591000000000000414,0.505590772023767232
0.592000000000000415,0.498923813022922602
0.593000000000000416,0.492273703704908194
0.594000000000000417,0.485641366754956283
0.595000000000000417,0.479027706898037919
0.596000000000000418,0.472433610930370673
0.597000000000000419,0.465859947758746895
0.598000000000000420,0.459307568447511305
0.599000000000000421,0.452777306272804381
0.600000000000000422,0.446269976783851163
0.601000000000000423,0.439786377871016820
0.602000000000000424,0.433327289840318985
0.603000000000000425,0.426893475494167673
0.604000000000000425,0.420485680218099123
0.605000000000000426,0.414104632073210410
0.606000000000000427,0.407751041894038657
0.607000000000000428,0.401425603391772579
0.608000000000000429,0.395128993262330142
0.609000000000000430,0.388861871299370498
0.610000000000000431,0.382624880511741872
0.611000000000000432,0.376418647245340743
0.612000000000000433,0.370243781309116116
0.613000000000000433,0.364100876104951621
0.614000000000000434,0.357990508761338144
0.615000000000000435,0.351913240270566696
0.616000000000000436,0.345869615629292693
0.617000000000000437,0.339860163982229180
0.618000000000000438,0.333885398768881347
0.619000000000000439,0.327945817873091183
