# ZnS-sphalerite-110_BSAI4
# h[nm],U(h)[kJ/mol]
0.149999999999999994,151.097981188281607956
0.150999999999999995,149.229412452844030668
0.151999999999999996,147.942337785013165785
0.152999999999999997,146.742611997237105470
0.153999999999999998,145.459344640760804168
0.154999999999999999,144.071303733537490643
0.156000000000000000,142.613424671915851150
0.157000000000000001,141.130572470219419756
0.158000000000000002,139.657995622622223664
0.159000000000000002,138.215920023586193111
0.160000000000000003,136.810871065904507304
0.161000000000000004,135.439546334311700093
0.162000000000000005,134.093046347194984946
0.163000000000000006,132.760448986607372035
0.164000000000000007,131.431380033073025970
0.165000000000000008,130.097582589612159154
0.166000000000000009,128.753649039339109095
0.167000000000000010,127.397131667905910035
0.168000000000000010,126.028242906261311873
0.169000000000000011,124.649324057996679471
0.170000000000000012,123.264220229114926042
0.171000000000000013,121.877658688169319134
0.172000000000000014,120.494692750832655292
0.173000000000000015,119.120245237251850767
0.174000000000000016,117.758764666968460233
0.175000000000000017,116.413992868189581031
0.176000000000000018,115.088833472819231929
0.177000000000000018,113.785305670906836895
0.178000000000000019,112.504565522267810707
0.179000000000000020,111.246977141685079005
0.180000000000000021,110.012217439083343606
0.181000000000000022,108.799400231798784944
0.182000000000000023,107.607208029639565439
0.183000000000000024,106.434022329372510285
0.184000000000000025,105.278045649814288254
0.185000000000000026,104.137410676098937756
0.186000000000000026,103.010273703779219545
0.187000000000000027,101.894891062747504407
0.188000000000000028,100.789678367430227013
0.189000000000000029,99.693253310235519393
0.190000000000000030,98.604463326146202462
0.191000000000000031,97.522399847852767607
0.192000000000000032,96.446401083285223876
0.193000000000000033,95.376045318860434463
0.194000000000000034,94.311136716521971834
0.195000000000000034,93.251685460521755999
0.196000000000000035,92.197883945999109301
0.197000000000000036,91.150080506303339689
0.198000000000000037,90.108751965980928844
0.199000000000000038,89.074476093935700760
0.200000000000000039,88.047904825710730847
0.201000000000000040,87.029738931622006248
0.202000000000000041,86.020704632811529677
0.203000000000000042,85.021532512586446728
0.204000000000000042,84.032938936659235196
0.205000000000000043,83.055610083028454937
0.206000000000000044,82.090188589387764750
0.207000000000000045,81.137262751748039591
0.208000000000000046,80.197358150685062128
0.209000000000000047,79.270931539386992881
0.210000000000000048,78.358366798513060303
0.211000000000000049,77.459972744851626203
0.212000000000000050,76.575982572030667939
0.213000000000000050,75.706554700376983646
0.214000000000000051,74.851774817871927326
0.215000000000000052,74.011658903627846939
0.216000000000000053,73.186157038192192203
0.217000000000000054,72.375157820228537275
0.218000000000000055,71.578493225849030068
0.219000000000000056,70.795943764346276339
0.220000000000000057,70.027243801704258885
0.221000000000000058,69.272086940592132009
0.222000000000000058,68.530131362195106703
0.223000000000000059,67.801005050954643139
0.224000000000000060,67.084310837884771672
0.225000000000000061,66.379631211485133235
0.226000000000000062,65.686532857322177392
0.227000000000000063,65.004570898077403740
0.228000000000000064,64.333292815283442678
0.229000000000000065,63.672242042127990658
0.230000000000000066,63.020961223667882223
0.231000000000000066,62.378995146637997493
0.232000000000000067,61.745893345850753064
0.233000000000000068,61.121212398055071446
0.234000000000000069,60.504517917152305984
0.235000000000000070,59.895386266948868581
0.236000000000000071,59.293406009248279531
0.237000000000000072,58.698179106140017325
0.238000000000000073,58.109321895910660771
0.239000000000000073,57.526465862160556242
0.240000000000000074,56.949258215525254911
0.241000000000000075,56.377362306942153225
0.242000000000000076,55.810457890722389607
0.243000000000000077,55.248241254838504233
0.244000000000000078,54.690425234863859316
0.245000000000000079,54.136739126937428068
0.246000000000000080,53.586928514011788138
0.247000000000000081,53.040755018500078677
0.248000000000000081,52.497995993290849981
0.249000000000000082,51.958444161972650477
0.250000000000000111,51.421907218009302198
0.251000000000000112,50.888207391554480807
0.252000000000000113,50.357180991589856944
0.253000000000000114,49.828677930129444462
0.254000000000000115,49.302561234352445751
0.255000000000000115,48.778706551713604256
0.256000000000000116,48.257001652334345465
0.257000000000000117,47.737345932298389073
0.258000000000000118,47.219649920863211889
0.259000000000000119,46.703834794048752599
0.260000000000000120,46.189831896576606596
0.261000000000000121,45.677582273703080773
0.262000000000000122,45.167036214112471271
0.263000000000000123,44.658152804712415218
0.264000000000000123,44.150899497893611567
0.265000000000000124,43.645251691580696729
0.266000000000000125,43.141192322203401943
0.267000000000000126,42.638711470555321625
0.268000000000000127,42.137805980376562331
0.269000000000000128,41.638479089393612753
0.270000000000000129,41.140740072471636779
0.271000000000000130,40.644603896476482419
0.272000000000000131,40.150090886405962465
0.273000000000000131,39.657226402326479331
0.274000000000000132,39.166040526641559438
0.275000000000000133,38.676567761220709940
0.276000000000000134,38.188846733926510524
0.277000000000000135,37.702919914097428489
0.278000000000000136,37.218833336564941305
0.279000000000000137,36.736636333812597854
0.280000000000000138,36.256381275914968398
0.281000000000000139,35.778123317925668800
0.282000000000000139,35.301920154418311881
0.283000000000000140,34.827831780916490345
0.284000000000000141,34.355920261982149100
0.285000000000000142,33.886249505763601064
0.286000000000000143,33.418885044834418352
0.287000000000000144,32.953893823183094014
0.288000000000000145,32.491343989239375389
0.289000000000000146,32.031304694847982262
0.290000000000000147,31.573845900120851127
0.291000000000000147,31.119038184119524715
0.292000000000000148,30.666952561334920091
0.293000000000000149,30.217660303946747291
0.294000000000000150,29.771232769856066369
0.295000000000000151,29.327741236494382804
0.296000000000000152,28.887256740419580581
0.297000000000000153,28.449849922714740558
0.298000000000000154,28.015590880208328883
0.299000000000000155,27.584549022536418050
0.300000000000000155,27.156792935066960126
0.301000000000000156,26.732390247704596931
0.302000000000000157,26.311407509591010268
0.303000000000000158,25.893910069712369193
0.304000000000000159,25.479961963419295756
0.305000000000000160,25.069625804859111184
0.306000000000000161,24.662962685313150502
0.307000000000000162,24.260032077424231289
0.308000000000000163,23.860891745291723964
0.309000000000000163,23.465597660402899294
0.310000000000000164,23.074203923361181978
0.311000000000000165,22.686762691362687860
0.312000000000000166,22.303324111364183580
0.313000000000000167,21.923936258876466354
0.314000000000000168,21.548645082309000998
0.315000000000000169,21.177494352782854747
0.316000000000000170,20.810525619321278867
0.317000000000000171,20.447778169319036579
0.318000000000000171,20.089288994184663295
0.319000000000000172,19.735092760042100224
0.320000000000000173,19.385221783372251991
0.321000000000000174,19.039706011468393143
0.322000000000000175,18.698573007573696003
0.323000000000000176,18.361847940564349102
0.324000000000000177,18.029553579036399213
0.325000000000000178,17.701710289651110486
0.326000000000000179,17.378336039589093787
0.327000000000000179,17.059446402961185640
0.328000000000000180,16.745054571020649092
0.329000000000000181,16.435171366019865502
0.330000000000000182,16.129805258552337932
0.331000000000000183,15.828962388220265467
0.332000000000000184,15.532646587466800270
0.333000000000000185,15.240859408412186227
0.334000000000000186,14.953600152532848355
0.335000000000000187,14.670865903023265986
0.336000000000000187,14.392651559681203466
0.337000000000000188,14.118949876158604084
0.338000000000000189,13.849751499421580903
0.339000000000000190,13.585045011265197701
0.340000000000000191,13.324816971731143767
0.341000000000000192,13.069051964278703082
0.342000000000000193,12.817732642562223333
0.343000000000000194,12.570839778671508924
0.344000000000000195,12.328352312694889292
0.345000000000000195,12.090247403467563103
0.346000000000000196,11.856500480372298867
0.347000000000000197,11.627085296062539044
0.348000000000000198,11.401973979982374274
0.349000000000000199,11.181137092561515445
0.350000000000000200,10.964543679967681200
0.351000000000000201,10.752161329302857951
0.352000000000000202,10.543956224134202415
0.353000000000000203,10.339893200254556049
0.354000000000000203,10.139935801571823504
0.355000000000000204,9.944046336030902822
0.356000000000000205,9.752185931476086367
0.357000000000000206,9.564314591365935314
0.358000000000000207,9.380391250257487101
0.359000000000000208,9.200373828980291435
0.360000000000000209,9.024219289425271739
0.361000000000000210,8.851883688877716594
0.362000000000000210,8.683322233827386327
0.363000000000000211,8.518489333193240753
0.364000000000000212,8.357338650903860966
0.365000000000000213,8.199823157778762805
0.366000000000000214,8.045895182659529965
0.367000000000000215,7.895506462743412612
0.368000000000000216,7.748608193075561701
0.369000000000000217,7.605151075159847451
0.370000000000000218,7.465085364651261379
0.371000000000000218,7.328360918096675114
0.372000000000000219,7.194927238693433758
0.373000000000000220,7.064733521038799147
0.374000000000000221,6.937728694846009958
0.375000000000000222,6.813861467605863531
0.376000000000000223,6.693080366174998908
0.377000000000000224,6.575333777275425007
0.378000000000000225,6.460569986891814054
0.379000000000000226,6.348737218555938533
0.380000000000000226,6.239783670509590152
0.381000000000000227,6.133657551739991831
0.382000000000000228,6.030307116883454555
0.383000000000000229,5.929680699995313553
0.384000000000000230,5.831726747185984827
0.385000000000000231,5.736393848124805572
0.386000000000000232,5.643630766415154376
0.387000000000000233,5.553386468845728174
0.388000000000000234,5.465610153524748327
0.389000000000000234,5.380251276904948199
0.390000000000000235,5.297259579708703647
0.391000000000000236,5.216585111764020510
0.392000000000000237,5.138178255763017788
0.393000000000000238,5.061989749955863260
0.394000000000000239,4.987970709794045554
0.395000000000000240,4.916072648537712197
0.396000000000000241,4.846247496842792657
0.397000000000000242,4.778447621344406926
0.398000000000000242,4.712625842253538089
0.399000000000000243,4.648735449985030854
0.400000000000000244,4.586730220835046445
0.401000000000000245,4.526564431727030602
0.402000000000000246,4.468192874045580076
0.403000000000000247,4.411570866577835481
0.404000000000000248,4.356654267582626971
0.405000000000000249,4.303399486007768004
0.406000000000000250,4.251763491876158874
0.407000000000000250,4.201703825861501151
0.408000000000000251,4.153178608074719946
0.409000000000000252,4.106146546082191762
0.410000000000000253,4.060566942176945915
0.411000000000000254,4.016399699924129152
0.412000000000000255,3.973605330001966252
0.413000000000000256,3.932144955359360150
0.414000000000000257,3.891980315711387473
0.415000000000000258,3.853073771393557223
0.416000000000000258,3.815388306595973944
0.417000000000000259,3.778887531997964011
0.418000000000000260,3.743535686823925346
0.419000000000000261,3.709297640340670998
0.420000000000000262,3.676138892816584125
0.421000000000000263,3.644025575962417829
0.422000000000000264,3.612924452873504944
0.423000000000000265,3.582802917492796446
0.424000000000000266,3.553628993613809683
0.425000000000000266,3.525371333442459676
0.426000000000000267,3.497999215736126821
0.427000000000000268,3.471482543538343180
0.428000000000000269,3.445791841526891996
0.429000000000000270,3.420898252992814470
0.430000000000000271,3.396773536467660115
0.431000000000000272,3.373390062015641178
0.432000000000000273,3.350720807207325347
0.433000000000000274,3.328739352790853534
0.434000000000000274,3.307419878076518494
0.435000000000000275,3.286737156050018704
0.436000000000000276,3.266666548229392397
0.437000000000000277,3.247183999280269795
0.438000000000000278,3.228266031403698832
0.439000000000000279,3.209889738510335544
0.440000000000000280,3.192032780194589581
0.441000000000000281,3.174673375521788632
0.442000000000000282,3.157790296641057814
0.443000000000000282,3.141362862236390274
0.444000000000000283,3.125370930827791049
0.445000000000000284,3.109794893934190618
0.446000000000000285,3.094615669109423095
0.447000000000000286,3.079814692862040904
0.448000000000000287,3.065373913469695122
0.449000000000000288,3.051275783698125910
0.450000000000000289,3.037503253434713280
0.451000000000000290,3.024039762246069074
0.452000000000000290,3.010869231868759766
0.453000000000000291,2.997976058642168429
0.454000000000000292,2.985345105891824780
0.455000000000000293,2.972961696271520626
0.456000000000000294,2.960811604072034697
0.457000000000000295,2.948881047504004815
0.458000000000000296,2.937156680962291322
0.459000000000000297,2.925625587278702699
0.460000000000000298,2.914275269969842874
0.461000000000000298,2.903093645486369390
0.462000000000000299,2.892069035469884586
0.463000000000000300,2.881190159023224506
0.464000000000000301,2.870446124999727733
0.465000000000000302,2.859826424316808335
0.466000000000000303,2.849320922298920422
0.467000000000000304,2.838919851054654053
0.468000000000000305,2.828613801892630342
0.469000000000000306,2.818393717780486529
0.470000000000000306,2.808250885851010459
0.471000000000000307,2.798176929959468318
0.472000000000000308,2.788163803295661047
0.473000000000000309,2.778203781054231936
0.474000000000000310,2.768289453166510761
0.475000000000000311,2.758413717096958706
0.476000000000000312,2.748569770707071758
0.477000000000000313,2.738751105189452417
0.478000000000000314,2.728951498074620563
0.479000000000000314,2.719165006312799893
0.480000000000000315,2.709385959432990543
0.481000000000000316,2.699608952781244575
0.482000000000000317,2.689828840840074342
0.483000000000000318,2.680040730630659063
0.484000000000000319,2.670239975199454996
0.485000000000000320,2.660422167190639620
0.486000000000000321,2.650583132505642592
0.487000000000000322,2.640718924050951877
0.488000000000000322,2.630825815575308813
0.489000000000000323,2.620900295597031970
0.490000000000000324,2.610939061422489438
0.491000000000000325,2.600939013256243104
0.492000000000000326,2.590897248403568831
0.493000000000000327,2.580811055565759293
0.494000000000000328,2.570677909228645586
0.495000000000000329,2.560495464144614264
0.496000000000000330,2.550261549908353409
0.497000000000000330,2.539974165626369018
0.498000000000000331,2.529631474680466230
0.499000000000000332,2.519231799584959131
0.500000000000000333,2.508773616937638895
0.501000000000000334,2.498255552464320406
0.502000000000000335,2.487676376156591207
0.503000000000000336,2.477034997502592262
0.504000000000000337,2.466330460810371328
0.505000000000000338,2.455561940623400830
0.506000000000000338,2.444728737227771287
0.507000000000000339,2.433830272250525617
0.508000000000000340,2.422866084348567650
0.509000000000000341,2.411835824987436983
0.510000000000000342,2.400739254309395498
0.511000000000000343,2.389576237089971578
0.512000000000000344,2.378346738782343373
0.513000000000000345,2.367050821648667203
0.514000000000000346,2.355688640977558368
0.515000000000000346,2.344260441386909921
0.516000000000000347,2.332766553211111926
0.517000000000000348,2.321207388971774144
0.518000000000000349,2.309583439931050641
0.519000000000000350,2.297895272726542260
0.520000000000000351,2.286143526086898525
0.521000000000000352,2.274328907626975926
0.522000000000000353,2.262452190721714107
0.523000000000000353,2.250514211457513181
0.524000000000000354,2.238515865660235526
0.525000000000000355,2.226458105998630366
0.526000000000000356,2.214341939162239647
0.527000000000000357,2.202168423112572881
0.528000000000000358,2.189938664406602786
0.529000000000000359,2.177653815591339193
0.530000000000000360,2.165315072668538399
0.531000000000000361,2.152923672628289431
0.532000000000000361,2.140480891050480228
0.533000000000000362,2.127988039772956697
0.534000000000000363,2.115446464625339917
0.535000000000000364,2.102857543227276693
0.536000000000000365,2.090222682850128244
0.537000000000000366,2.077543318340893563
0.538000000000000367,2.064820910107324270
0.539000000000000368,2.052056942163047459
0.540000000000000369,2.039252920231683142
0.541000000000000369,2.026410369908755005
0.542000000000000370,2.013530834880420617
0.543000000000000371,2.000615875197802929
0.544000000000000372,1.987667065605952077
0.545000000000000373,1.974685993926267757
0.546000000000000374,1.961674259491396954
0.547000000000000375,1.948633471631493252
0.548000000000000376,1.935565248210791012
0.549000000000000377,1.922471214213493429
0.550000000000000377,1.909353000377855825
0.551000000000000378,1.896212241877550442
0.552000000000000379,1.883050577049202534
0.553000000000000380,1.869869646165135180
0.554000000000000381,1.856671090250360923
0.555000000000000382,1.843456549942750211
0.556000000000000383,1.830227664395513543
0.557000000000000384,1.816986070220921068
0.558000000000000385,1.803733400474450521
0.559000000000000385,1.790471283678291670
0.560000000000000386,1.777201342883354185
0.561000000000000387,1.763925194768876992
0.562000000000000388,1.750644448778708950
0.563000000000000389,1.737360706293369361
0.564000000000000390,1.724075559837040528
0.565000000000000391,1.710790592318623071
0.566000000000000392,1.697507376306008897
0.567000000000000393,1.684227473332677860
0.568000000000000393,1.670952433235923795
0.569000000000000394,1.657683793525750460
0.570000000000000395,1.644423078783752157
0.571000000000000396,1.631171800091151258
0.572000000000000397,1.617931454485183496
0.573000000000000398,1.604703524443179985
0.574000000000000399,1.591489477393465801
0.575000000000000400,1.578290765252457595
0.576000000000000401,1.565108823987187758
0.577000000000000401,1.551945073202518177
0.578000000000000402,1.538800915752423393
0.579000000000000403,1.525677737374636411
0.580000000000000404,1.512576906347909755
0.581000000000000405,1.499499773171387718
0.582000000000000406,1.486447670265296450
0.583000000000000407,1.473421911692413655
0.584000000000000408,1.460423792899678386
0.585000000000000409,1.447454590479301029
0.586000000000000409,1.434515561948843443
0.587000000000000410,1.421607945549593355
0.588000000000000411,1.408732960062793804
0.589000000000000412,1.395891804643012879
0.590000000000000413,1.383085658668252060
0.591000000000000414,1.370315681606149472
0.592000000000000415,1.357583012895824393
0.593000000000000416,1.344888771844807041
0.594000000000000417,1.332234057540584882
0.595000000000000417,1.319619948776224350
0.596000000000000418,1.307047503989667181
0.597000000000000419,1.294517761216145590
0.598000000000000420,1.282031738053333925
0.599000000000000421,1.269590431638725647
0.600000000000000422,1.257194818638827538
0.601000000000000423,1.244845855249785860
0.602000000000000424,1.232544477208918909
0.603000000000000425,1.220291599816845984
0.604000000000000425,1.208088117969795539
0.605000000000000426,1.195934906201667980
0.606000000000000427,1.183832818735476966
0.607000000000000428,1.171782689543900524
0.608000000000000429,1.159785332418369119
0.609000000000000430,1.147841541046611180
0.610000000000000431,1.135952089098066997
0.611000000000000432,1.124117730316984476
0.612000000000000433,1.112339198622841252
0.613000000000000433,1.100617208217724574
0.614000000000000434,1.088952453700437584
0.615000000000000435,1.077345610186957847
0.616000000000000436,1.065797333437043193
0.617000000000000437,1.054308259986575624
0.618000000000000438,1.042879007285485660
