# ZnS-sphalerite-110_BSAI5
# h[nm],U(h)[kJ/mol]
0.149999999999999994,158.991038503040812202
0.150999999999999995,157.384207442750977179
0.151999999999999996,156.267703325070158371
0.152999999999999997,155.214347393195112090
0.153999999999999998,154.080356474538064049
0.154999999999999999,152.851195853873974784
0.156000000000000000,151.559373518358768251
0.157000000000000001,150.244388483831215808
0.158000000000000002,148.936276425964621239
0.159000000000000002,147.651491305692502465
0.160000000000000003,146.394524201054110790
0.161000000000000004,145.161580165393189645
0.162000000000000005,143.944414555411242418
0.163000000000000006,142.733478220162254502
0.164000000000000007,141.520106812483874137
0.165000000000000008,140.297791315260411693
0.166000000000000009,139.062700072858831390
0.167000000000000010,137.813660607660722235
0.168000000000000010,136.551797882741141166
0.169000000000000011,135.279991855188143290
0.170000000000000012,134.002276873680045810
0.171000000000000013,132.723267086657955360
0.172000000000000014,131.447659439847001295
0.173000000000000015,130.179840327563113078
0.174000000000000016,128.923603355904191403
0.175000000000000017,127.681973107357137565
0.176000000000000018,126.457122129330556959
0.177000000000000018,125.250364450069739064
0.178000000000000019,124.062207712050252439
0.179000000000000020,122.892446629740533126
0.180000000000000021,121.740282229265673664
0.181000000000000022,120.604453684136544211
0.182000000000000023,119.483372142410416927
0.183000000000000024,118.375248485577344582
0.184000000000000025,117.278209302330949981
0.185000000000000026,116.190397407379080619
0.186000000000000026,115.110054945149414607
0.187000000000000027,114.035588485580859697
0.188000000000000028,112.965616562897295694
0.189000000000000029,111.899000861298304699
0.190000000000000030,110.834862754058718792
0.191000000000000031,109.772587197041048057
0.192000000000000032,108.711816105477595329
0.193000000000000033,107.652433342256813376
0.194000000000000034,106.594543350725487585
0.195000000000000034,105.538445304175667161
0.196000000000000035,104.484604441801550934
0.197000000000000036,103.433622036373691344
0.198000000000000037,102.386205207295418518
0.199000000000000038,101.343137565448628834
0.200000000000000039,100.305251461449685735
0.201000000000000040,99.273402412099457592
0.202000000000000041,98.248446104241537569
0.203000000000000042,97.231218222544342211
0.204000000000000042,96.222517218188016841
0.205000000000000043,95.223090028406602414
0.206000000000000044,94.233620670950784870
0.207000000000000045,93.254721571011330639
0.208000000000000046,92.286927428918119176
0.209000000000000047,91.330691402839022430
0.210000000000000048,90.386383359568782225
0.211000000000000049,89.454289936227752378
0.212000000000000050,88.534616154305510349
0.213000000000000050,87.627488333191124070
0.214000000000000051,86.732958061505243563
0.215000000000000052,85.851006999773062489
0.216000000000000053,84.981552306018059539
0.217000000000000054,84.124452495674745478
0.218000000000000055,83.279513567948441732
0.219000000000000056,82.446495251682677008
0.220000000000000057,81.625117244369519653
0.221000000000000058,80.815065337723169137
0.222000000000000058,80.015997341906626161
0.223000000000000059,79.227548737830872483
0.224000000000000060,78.449338002787925461
0.225000000000000061,77.680971568954134909
0.226000000000000062,76.922048386979980705
0.227000000000000063,76.172164077989208408
0.228000000000000064,75.430914666888739362
0.229000000000000065,74.697899898021233867
0.230000000000000066,73.972726140965704644
0.231000000000000066,73.255008899814541223
0.232000000000000067,72.544374943640136166
0.233000000000000068,71.840464079225014871
0.234000000000000069,71.142930589581908407
0.235000000000000070,70.451444363447336627
0.236000000000000071,69.765691741897285283
0.237000000000000072,69.085376108613317570
0.238000000000000073,68.410218250209709367
0.239000000000000073,67.739956512509181152
0.240000000000000074,67.074346777798822927
0.241000000000000075,66.413162286984260163
0.242000000000000076,65.756193329249200019
0.243000000000000077,65.103246820372604020
0.244000000000000078,64.454145789308114445
0.245000000000000079,63.808728791027668592
0.246000000000000080,63.166849262009790777
0.247000000000000081,62.528374833141050715
0.248000000000000081,61.893186613220642300
0.249000000000000082,61.261178454732352350
0.250000000000000111,60.632256212088975644
0.251000000000000112,60.006337001174870238
0.252000000000000113,59.383348467717567587
0.253000000000000114,58.763228070819614857
0.254000000000000115,58.145922386873806431
0.255000000000000115,57.531386438075344358
0.256000000000000116,56.919583048828805261
0.257000000000000117,56.310482232525941981
0.258000000000000118,55.704060610439022128
0.259000000000000119,55.100300863829275499
0.260000000000000120,54.499191219806483844
0.261000000000000121,53.900724970989720930
0.262000000000000122,53.304900028604855322
0.263000000000000123,52.711718508305786202
0.264000000000000123,52.121186347718818865
0.265000000000000124,51.533312954477842993
0.266000000000000125,50.948110883334763344
0.267000000000000126,50.365595540793094642
0.268000000000000127,49.785784915614449631
0.269000000000000128,49.208699333484489102
0.270000000000000129,48.634361234094455995
0.271000000000000130,48.062794968886805691
0.272000000000000131,47.494026617732586715
0.273000000000000131,46.928083822842808104
0.274000000000000132,46.364995638269206779
0.275000000000000133,45.804792393413585216
0.276000000000000134,45.247505569040832540
0.277000000000000135,44.693167684373044324
0.278000000000000136,44.141812193930732633
0.279000000000000137,43.593473392879133144
0.280000000000000138,43.048186329732658351
0.281000000000000139,42.505986725364806489
0.282000000000000139,41.966910897365941935
0.283000000000000140,41.430995688884124206
0.284000000000000141,40.898278401174991359
0.285000000000000142,40.368796729173872961
0.286000000000000143,39.842588699486888970
0.287000000000000144,39.319692610278167422
0.288000000000000145,38.800146972603940299
0.289000000000000146,38.283990452816119898
0.290000000000000147,37.771261815721977939
0.291000000000000147,37.261999868248018686
0.292000000000000148,36.756243403410515214
0.293000000000000149,36.254031144446670964
0.294000000000000150,35.755401689005104515
0.295000000000000151,35.260393453335737490
0.296000000000000152,34.769044616455033747
0.297000000000000153,34.281393064295151873
0.298000000000000154,33.797476333872239707
0.299000000000000155,33.317331557534224373
0.300000000000000155,32.840995407367152836
0.301000000000000156,32.368504039857462828
0.302000000000000157,31.899893040918932741
0.303000000000000158,31.435197371405582345
0.304000000000000159,30.974451313238112959
0.305000000000000160,30.517688416277273689
0.306000000000000161,30.064941446080659659
0.307000000000000162,29.616242332679956206
0.308000000000000163,29.171622120515383614
0.309000000000000163,28.731110919661169589
0.310000000000000164,28.294737858472586822
0.311000000000000165,27.862531037779206144
0.312000000000000166,27.434517486744073977
0.313000000000000167,27.010723120500493621
0.314000000000000168,26.591172699671126622
0.315000000000000169,26.175889791865508016
0.316000000000000170,25.764896735243542736
0.317000000000000171,25.358214604223352495
0.318000000000000171,24.955863177402882513
0.319000000000000172,24.557860907754744062
0.320000000000000173,24.164224895145089533
0.321000000000000174,23.774970861217234130
0.322000000000000175,23.390113126671959520
0.323000000000000176,23.009664590967211950
0.324000000000000177,22.633636714450886984
0.325000000000000178,22.262039502932200463
0.326000000000000179,21.894881494688412715
0.327000000000000179,21.532169749896315381
0.328000000000000180,21.173909842469790021
0.329000000000000181,20.820105854278235569
0.330000000000000182,20.470760371713325299
0.331000000000000183,20.125874484565880351
0.332000000000000184,19.785447787168276790
0.333000000000000185,19.449478381752918210
0.334000000000000186,19.117962883971870269
0.335000000000000187,18.790896430518692739
0.336000000000000187,18.468272688788879066
0.337000000000000188,18.150083868512435714
0.338000000000000189,17.836320735288175854
0.339000000000000190,17.526972625946761752
0.340000000000000191,17.222027465667302693
0.341000000000000192,16.921471786770112544
0.342000000000000193,16.625290749106333976
0.343000000000000194,16.333468161964201926
0.344000000000000195,16.045986507410738398
0.345000000000000195,15.762826964986430767
0.346000000000000196,15.483969437670904057
0.347000000000000197,15.209392579036954629
0.348000000000000198,14.939073821510614692
0.349000000000000199,14.672989405655581407
0.350000000000000200,14.411114410400680086
0.351000000000000201,14.153422784130217593
0.352000000000000202,13.899887376557956031
0.353000000000000203,13.650479971306907601
0.354000000000000203,13.405171319118249329
0.355000000000000204,13.163931171614748905
0.356000000000000205,12.926728315545389592
0.357000000000000206,12.693530607439686975
0.358000000000000207,12.464305008602675429
0.359000000000000208,12.239017620382973917
0.360000000000000209,12.017633719648683766
0.361000000000000210,11.800117794408308214
0.362000000000000210,11.586433579515674097
0.363000000000000211,11.376544092400562747
0.364000000000000212,11.170411668768718272
0.365000000000000213,10.967997998217612121
0.366000000000000214,10.769264159716408713
0.367000000000000215,10.574170656901195287
0.368000000000000216,10.382677453138672519
0.369000000000000217,10.194744006314250484
0.370000000000000218,10.010329303302393456
0.371000000000000218,9.829391894079861913
0.372000000000000219,9.651889925444473661
0.373000000000000220,9.477781174304414691
0.374000000000000221,9.307023080505468116
0.375000000000000222,9.139572779165749949
0.376000000000000223,8.975387132489384356
0.377000000000000224,8.814422761033137377
0.378000000000000225,8.656636074401845349
0.379000000000000226,8.501983301350572120
0.380000000000000226,8.350420519273221487
0.381000000000000227,8.201903683059615702
0.382000000000000228,8.056388653304530578
0.383000000000000229,7.913831223854143282
0.384000000000000230,7.774187148677148329
0.385000000000000231,7.637412168049229066
0.386000000000000232,7.503462034041542772
0.387000000000000233,7.372292535304955763
0.388000000000000234,7.243859521143782843
0.389000000000000234,7.118118924873767739
0.390000000000000235,6.995026786460554646
0.391000000000000236,6.874539274436386904
0.392000000000000237,6.756612707093609060
0.393000000000000238,6.641203572955125978
0.394000000000000239,6.528268550522838609
0.395000000000000240,6.417764527306202282
0.396000000000000241,6.309648618134088949
0.397000000000000242,6.203878182754045234
0.398000000000000242,6.100410842723880123
0.399000000000000243,5.999204497601557939
0.400000000000000244,5.900217340439732894
0.401000000000000245,5.803407872592479144
0.402000000000000246,5.708734917842228640
0.403000000000000247,5.616157635855333119
0.404000000000000248,5.525635534975705809
0.405000000000000249,5.437128484366208880
0.406000000000000250,5.350596725508053098
0.407000000000000250,5.266000883068904237
0.408000000000000251,5.183301975150813590
0.409000000000000252,5.102461422929526869
0.410000000000000253,5.023441059696856392
0.411000000000000254,4.946203139318365416
0.412000000000000255,4.870710344118698742
0.413000000000000256,4.796925792207103356
0.414000000000000257,4.724813044256071848
0.415000000000000258,4.654336109745898398
0.416000000000000258,4.585459452688462889
0.417000000000000259,4.518147996843229208
0.418000000000000260,4.452367130438969589
0.419000000000000261,4.388082710414335175
0.420000000000000262,4.325261066190902781
0.421000000000000263,4.263869002991861556
0.422000000000000264,4.203873804719896690
0.423000000000000265,4.145243236407539555
0.424000000000000266,4.087945546253242135
0.425000000000000266,4.031949467256598751
0.426000000000000267,3.977224218465609251
0.427000000000000268,3.923739505849269449
0.428000000000000269,3.871465522808315463
0.429000000000000270,3.820372950336920148
0.430000000000000271,3.770432956848152717
0.431000000000000272,3.721617197675526789
0.432000000000000273,3.673897814263214823
0.433000000000000274,3.627247433056981940
0.434000000000000274,3.581639164107895290
0.435000000000000275,3.537046599400688329
0.436000000000000276,3.493443810918349435
0.437000000000000277,3.450805348454395904
0.438000000000000278,3.409106237184094113
0.439000000000000279,3.368321975005580615
0.440000000000000280,3.328428529661722646
0.441000000000000281,3.289402335653336618
0.442000000000000282,3.251220290953976466
0.443000000000000282,3.213859753536630226
0.444000000000000283,3.177298537722019312
0.445000000000000284,3.141514910358303769
0.446000000000000285,3.106487586841596649
0.447000000000000286,3.072195726986413966
0.448000000000000287,3.038618930755165870
0.449000000000000288,3.005737233855273693
0.450000000000000289,2.973531103212544213
0.451000000000000290,2.941981432328979018
0.452000000000000290,2.911069536533061886
0.453000000000000291,2.880777148130384546
0.454000000000000292,2.851086411462115056
0.455000000000000293,2.821979877878683318
0.456000000000000294,2.793440500635826051
0.457000000000000295,2.765451629719803517
0.458000000000000296,2.737997006608576811
0.459000000000000297,2.711060758975292195
0.460000000000000298,2.684627395340389633
0.461000000000000298,2.658681799678281887
0.462000000000000299,2.633209225984496360
0.463000000000000300,2.608195292808846766
0.464000000000000301,2.583625977760019232
0.465000000000000302,2.559487611986810407
0.466000000000000303,2.535766874641029123
0.467000000000000304,2.512450787326792501
0.468000000000000305,2.489526708540978905
0.469000000000000306,2.466982328109161404
0.470000000000000306,2.444805661621273440
0.471000000000000307,2.422985044871189153
0.472000000000000308,2.401509128304037510
0.473000000000000309,2.380366871474949075
0.474000000000000310,2.359547537522911131
0.475000000000000311,2.339040687663048068
0.476000000000000312,2.318836175700607072
0.477000000000000313,2.298924142569686691
0.478000000000000314,2.279295010899764939
0.479000000000000314,2.259939479612665281
0.480000000000000315,2.240848518552738700
0.481000000000000316,2.222013363152684384
0.482000000000000317,2.203425509137457272
0.483000000000000318,2.185076707268417628
0.484000000000000319,2.166958958129909352
0.485000000000000320,2.149064506960260079
0.486000000000000321,2.131385838529005206
0.487000000000000322,2.113915672062127271
0.488000000000000322,2.096646956217038227
0.489000000000000323,2.079572864108644836
0.490000000000000324,2.062686788388113257
0.491000000000000325,2.045982336375543831
0.492000000000000326,2.029453325247827955
0.493000000000000327,2.013093777282786156
0.494000000000000328,1.996897915160651849
0.495000000000000329,1.980860157323812043
0.496000000000000330,1.964975113395747597
0.497000000000000330,1.949237579659774067
0.498000000000000331,1.933642534598557505
0.499000000000000332,1.918185134494727606
0.500000000000000333,1.902860709093316505
0.501000000000000334,1.887664757326535936
0.502000000000000335,1.872592943101079710
0.503000000000000336,1.857641091148571011
0.504000000000000337,1.842805182939204034
0.505000000000000338,1.828081352658943004
0.506000000000000338,1.813465883250365618
0.507000000000000339,1.798955202517281915
0.508000000000000340,1.784545879293217840
0.509000000000000341,1.770234619673638488
0.510000000000000342,1.756018263312058902
0.511000000000000343,1.741893779779747131
0.512000000000000344,1.727858264989047044
0.513000000000000345,1.713908937680053812
0.514000000000000346,1.700043135970414010
0.515000000000000346,1.686258313968069356
0.516000000000000347,1.672552038446589506
0.517000000000000348,1.658921985582775704
0.518000000000000349,1.645365937756200880
0.519000000000000350,1.631881780410262106
0.520000000000000351,1.618467498974404561
0.521000000000000352,1.605121175846922599
0.522000000000000353,1.591840987438069899
0.523000000000000353,1.578625201272785050
0.524000000000000354,1.565472173152669288
0.525000000000000355,1.552380344376570687
0.526000000000000356,1.539348239019316722
0.527000000000000357,1.526374461267899552
0.528000000000000358,1.513457692814661026
0.529000000000000359,1.500596690306704506
0.530000000000000360,1.487790282851102486
0.531000000000000361,1.475037369575082469
0.532000000000000361,1.462336917240652179
0.533000000000000362,1.449687957912960456
0.534000000000000363,1.437089586681767894
0.535000000000000364,1.424540959435246279
0.536000000000000365,1.412041290685566386
0.537000000000000366,1.399589851445423250
0.538000000000000367,1.387185967154950017
0.539000000000000368,1.374829015658150411
0.540000000000000369,1.362518425228301799
0.541000000000000369,1.350253672641439584
0.542000000000000370,1.338034281297417749
0.543000000000000371,1.325859819387575023
0.544000000000000372,1.313729898108501271
0.545000000000000373,1.301644169921019722
0.546000000000000374,1.289602326853769299
0.547000000000000375,1.277604098850591452
0.548000000000000376,1.265649252161025640
0.549000000000000377,1.253737587773187556
0.550000000000000377,1.241868939888264078
0.551000000000000378,1.230043174436014741
0.552000000000000379,1.218260187630395119
0.553000000000000380,1.206519904564746115
0.554000000000000381,1.194822277845747127
0.555000000000000382,1.183167286265412788
0.556000000000000383,1.171554933510520646
0.557000000000000384,1.159985246908626255
0.558000000000000385,1.148458276210143847
0.559000000000000385,1.136974092405637071
0.560000000000000386,1.125532786577722932
0.561000000000000387,1.114134468786909249
0.562000000000000388,1.102779266990682183
0.563000000000000389,1.091467325995118864
0.564000000000000390,1.080198806438459780
0.565000000000000391,1.068973883805921732
0.566000000000000392,1.057792747475136741
0.567000000000000393,1.046655599791508351
0.568000000000000393,1.035562655172965529
0.569000000000000394,1.024514139243384081
0.570000000000000395,1.013510287994094927
0.571000000000000396,1.002551346972892388
0.572000000000000397,0.991637570499868892
0.573000000000000398,0.980769220909561645
0.574000000000000399,0.969946567818754879
0.575000000000000400,0.959169887419389466
0.576000000000000401,0.948439461796027450
0.577000000000000401,0.937755578267210788
0.578000000000000402,0.927118528750284221
0.579000000000000403,0.916528609149075302
0.580000000000000404,0.905986118763814630
0.581000000000000405,0.895491359722933700
0.582000000000000406,0.885044636436030929
0.583000000000000407,0.874646255067628053
0.584000000000000408,0.864296523031138464
0.585000000000000409,0.853995748502545893
0.586000000000000409,0.843744239953366559
0.587000000000000410,0.833542305702280162
0.588000000000000411,0.823390253485139390
0.589000000000000412,0.813288390042681386
0.590000000000000413,0.803237020725664275
0.591000000000000414,0.793236449116856090
0.592000000000000415,0.783286976669480661
0.593000000000000416,0.773388902361690778
0.594000000000000417,0.763542522366625009
0.595000000000000417,0.753748129737586980
0.596000000000000418,0.744006014108060443
0.597000000000000419,0.734316461405980725
0.598000000000000420,0.724679753582040287
0.599000000000000421,0.715096168351487815
0.600000000000000422,0.705565978949138972
0.601000000000000423,0.696089453897213106
0.602000000000000424,0.686666856785561608
0.603000000000000425,0.677298446063988147
0.604000000000000425,0.667984474846331167
0.605000000000000426,0.658725190725890863
0.606000000000000427,0.649520835601872237
0.607000000000000428,0.640371645516650601
0.608000000000000429,0.631277850503253690
0.609000000000000430,0.622239674443093138
0.610000000000000431,0.613257334933316800
0.611000000000000432,0.604331043163687021
0.612000000000000433,0.595461003802610245
0.613000000000000433,0.586647414892007890
0.614000000000000434,0.577890467750792003
0.615000000000000435,0.569190346886632059
0.616000000000000436,0.560547229915801859
0.617000000000000437,0.551961287490701169
