# ZnS-sphalerite-110_BSAI17
# h[nm],U(h)[kJ/mol]
0.149999999999999994,149.310468816423224325
0.150999999999999995,146.846053670499742339
0.151999999999999996,145.894093724788120880
0.152999999999999997,145.216363179514871717
0.153999999999999998,144.368296706099556559
0.154999999999999999,143.276087601459323650
0.156000000000000000,142.008818779717501002
0.157000000000000001,140.665365813961955155
0.158000000000000002,139.325999485721865767
0.159000000000000002,138.038226856764538297
0.160000000000000003,136.818948929787211455
0.161000000000000004,135.662872538354179142
0.162000000000000005,134.551916562569033431
0.163000000000000006,133.463188476928252157
0.164000000000000007,132.374702366419171540
0.165000000000000008,131.268841103306300511
0.166000000000000009,130.133942553640878259
0.167000000000000010,128.964509164930575480
0.168000000000000010,127.760524263235851095
0.169000000000000011,126.526280390721424851
0.170000000000000012,125.269027332474436776
0.171000000000000013,123.997652776812088860
0.172000000000000014,122.721527513923433617
0.173000000000000015,121.449583378522874000
0.174000000000000016,120.189645601005352660
0.175000000000000017,118.948009763793336901
0.176000000000000018,117.729234346346174789
0.177000000000000018,116.536109992387082457
0.178000000000000019,115.369763525541287663
0.179000000000000020,114.229856173098511363
0.180000000000000021,113.114839684492650917
0.181000000000000022,112.022239731294007470
0.182000000000000023,110.948942200339232045
0.183000000000000024,109.891464097368412922
0.184000000000000025,108.846196360953427984
0.185000000000000026,107.809610721774532749
0.186000000000000026,106.778426736941469244
0.187000000000000027,105.749738279201352498
0.188000000000000028,104.721101120475594826
0.189000000000000029,103.690584905933675941
0.190000000000000030,102.656793872724506400
0.191000000000000031,101.618861234530257320
0.192000000000000032,100.576422333196276782
0.193000000000000033,99.529571546627039424
0.194000000000000034,98.478807620995681305
0.195000000000000034,97.424971635332369146
0.196000000000000035,96.369181265251228297
0.197000000000000036,95.312764435504618632
0.198000000000000037,94.257194873019813031
0.199000000000000038,93.204031518534094403
0.200000000000000039,92.154863243470998668
0.201000000000000040,91.111259860388685183
0.202000000000000041,90.074730016112994235
0.203000000000000042,89.046686218483642961
0.204000000000000042,88.028416969433123995
0.205000000000000043,87.021065755710210965
0.206000000000000044,86.025616479332271069
0.207000000000000045,85.042884787330791596
0.208000000000000046,84.073514678643007869
0.209000000000000047,83.117979719118750381
0.210000000000000048,82.176588177740825358
0.211000000000000049,81.249491402825427144
0.212000000000000050,80.336694781151592792
0.213000000000000050,79.438070661170385733
0.214000000000000051,78.553372669708878107
0.215000000000000052,77.682250906517424482
0.216000000000000053,76.824267559742708045
0.217000000000000054,75.978912545583995097
0.218000000000000055,75.145618835096755106
0.219000000000000056,74.323777188863303422
0.220000000000000057,73.512750074921214605
0.221000000000000058,72.711884596124534141
0.222000000000000058,71.920524299464176465
0.223000000000000059,71.138019781483890824
0.224000000000000060,70.363738040662028084
0.225000000000000061,69.597070559510171961
0.226000000000000062,68.837440126300862175
0.227000000000000063,68.084306429003319749
0.228000000000000064,67.337170472464407567
0.229000000000000065,66.595577884455252615
0.230000000000000066,65.859121187264832997
0.231000000000000066,65.127441119435971473
0.232000000000000067,64.400227097369906915
0.233000000000000068,63.677216909239724885
0.234000000000000069,62.958195734295813395
0.235000000000000070,62.242994579546213174
0.236000000000000071,61.531488223256211256
0.237000000000000072,60.823592751012618862
0.238000000000000073,60.119262765494042355
0.239000000000000073,59.418488345804767903
0.240000000000000074,58.721291826462845620
0.241000000000000075,58.027724460064881384
0.242000000000000076,57.337863021422968757
0.243000000000000077,56.651806404715543408
0.244000000000000078,55.969672259020867955
0.245000000000000079,55.291593701591956744
0.246000000000000080,54.617716142462654716
0.247000000000000081,53.948194248492498559
0.248000000000000081,53.283189069811569993
0.249000000000000082,52.622865346838544554
0.250000000000000111,51.967389011637919793
0.251000000000000112,51.316924893362624971
0.252000000000000113,50.671634633899351741
0.253000000000000114,50.031674816591653610
0.254000000000000115,49.397195308048779339
0.255000000000000115,48.768337810544281297
0.256000000000000116,48.145234620350926491
0.257000000000000117,47.528007585525550382
0.258000000000000118,46.916767255132022285
0.259000000000000119,46.311612210646387666
0.260000000000000120,45.712628569305614690
0.261000000000000121,45.119889648415849592
0.262000000000000122,44.533455779105040051
0.263000000000000123,43.953374257667562119
0.264000000000000123,43.379679422480151629
0.265000000000000124,42.812392844453370344
0.266000000000000125,42.251523619096346351
0.267000000000000126,41.697068748500512925
0.268000000000000127,41.149013601870379375
0.269000000000000128,40.607332443632358832
0.270000000000000129,40.071989018620321588
0.271000000000000130,39.542937184355636759
0.272000000000000131,39.020121580999401090
0.273000000000000131,38.503478330141803099
0.274000000000000132,37.992935754201710097
0.275000000000000133,37.488415108826814048
0.276000000000000134,36.989831321305459255
0.277000000000000135,36.497093728619269370
0.278000000000000136,36.010106809373013448
0.279000000000000137,35.528770904432541045
0.280000000000000138,35.052982921678150774
0.281000000000000139,34.582637020834653185
0.282000000000000139,34.117625274871237195
0.283000000000000140,33.657838304967974352
0.284000000000000141,33.203165886523926531
0.285000000000000142,32.753497524129578267
0.286000000000000143,32.308722993846075155
0.287000000000000144,31.868732851522793226
0.288000000000000145,31.433418906245226054
0.289000000000000146,31.002674658335536151
0.290000000000000147,30.576395701630126212
0.291000000000000147,30.154480090032301121
0.292000000000000148,29.736828668584756485
0.293000000000000149,29.323345369527338278
0.294000000000000150,28.913937474000739769
0.295000000000000151,28.508515840228444205
0.296000000000000152,28.106995099158389451
0.297000000000000153,27.709293818673664589
0.298000000000000154,27.315334637589263167
0.299000000000000155,26.925044370741080257
0.300000000000000155,26.538354086545620447
0.301000000000000156,26.155199158464490949
0.302000000000000157,25.775519291848972614
0.303000000000000158,25.399258527668216345
0.304000000000000159,25.026365224639427254
0.305000000000000160,24.656792021283628458
0.306000000000000161,24.290495779424336575
0.307000000000000162,23.927437510632692863
0.308000000000000163,23.567582287099831717
0.309000000000000163,23.210899138388114693
0.310000000000000164,22.857360935477696984
0.311000000000000165,22.506944263484012225
0.312000000000000166,22.159629284377071912
0.313000000000000167,21.815399590984647205
0.314000000000000168,21.474242053509716044
0.315000000000000169,21.136146659738408005
0.316000000000000170,20.801106350058642391
0.317000000000000171,20.469116848352577165
0.318000000000000171,20.140176489767554813
0.319000000000000172,19.814286046311732292
0.320000000000000173,19.491448551162150693
0.321000000000000174,19.171669122514391148
0.322000000000000175,18.854954787745409561
0.323000000000000176,18.541314308604466277
0.324000000000000177,18.230758008090845124
0.325000000000000178,17.923297599623353449
0.326000000000000179,17.618946019053030483
0.327000000000000179,17.317717260019751535
0.328000000000000180,17.019626213103400403
0.329000000000000181,16.724688509173301298
0.330000000000000182,16.432920367293196051
0.331000000000000183,16.144338447495833577
0.332000000000000184,15.858959708699519098
0.333000000000000185,15.576801271999277887
0.334000000000000186,15.297880289527876485
0.335000000000000187,15.022213819046575267
0.336000000000000187,14.749818704392017921
0.337000000000000188,14.480711461874719248
0.338000000000000189,14.214908172694885380
0.339000000000000190,13.952424381414408217
0.340000000000000191,13.693275000498374538
0.341000000000000192,13.437474220916138634
0.342000000000000193,13.185035428770030208
0.343000000000000194,12.935971127900353750
0.344000000000000195,12.690292868397101245
0.345000000000000195,12.448011180931896291
0.346000000000000196,12.209135516809485722
0.347000000000000197,11.973674193624065154
0.348000000000000198,11.741634346394102195
0.349000000000000199,11.513021884038641574
0.350000000000000200,11.287841451048732822
0.351000000000000201,11.066096394199602670
0.352000000000000202,10.847788734142341127
0.353000000000000203,10.632919141707978028
0.354000000000000203,10.421486918751977413
0.355000000000000204,10.213489983363650992
0.356000000000000205,10.008924859261803419
0.357000000000000206,9.807786669195731832
0.358000000000000207,9.610069132169929418
0.359000000000000208,9.415764564309691664
0.360000000000000209,9.224863883185090430
0.361000000000000210,9.037356615411720639
0.362000000000000210,8.853230907347498402
0.363000000000000211,8.672473538706773510
0.364000000000000212,8.495069938915204233
0.365000000000000213,8.321004206031494377
0.366000000000000214,8.150259128065037828
0.367000000000000215,7.982816206522042712
0.368000000000000216,7.818655682016057540
0.369000000000000217,7.657756561783200411
0.370000000000000218,7.500096648945964617
0.371000000000000218,7.345652573374434446
0.372000000000000219,7.194399823997647658
0.373000000000000220,7.046312782422935683
0.374000000000000221,6.901364757725586330
0.375000000000000222,6.759528022276259485
0.376000000000000223,6.620773848478019197
0.377000000000000224,6.485072546290363782
0.378000000000000225,6.352393501422270106
0.379000000000000226,6.222705214081372560
0.380000000000000226,6.095975338171156110
0.381000000000000227,5.972170720833452684
0.382000000000000228,5.851257442237887574
0.383000000000000229,5.733200855525175221
0.384000000000000230,5.617965626815846214
0.385000000000000231,5.505515775200557016
0.386000000000000232,5.395814712633133503
0.387000000000000233,5.288825283651529929
0.388000000000000234,5.184509804856988424
0.389000000000000234,5.082830104085397593
0.390000000000000235,4.983747559209557032
0.391000000000000236,4.887223136515009614
0.392000000000000237,4.793217428596030949
0.393000000000000238,4.701690691722518523
0.394000000000000239,4.612602882632037549
0.395000000000000240,4.525913694705109513
0.396000000000000241,4.441582593485230213
0.397000000000000242,4.359568851508685228
0.398000000000000242,4.279831582412231938
0.399000000000000243,4.202329774290214814
0.400000000000000244,4.127022322275331945
0.401000000000000245,4.053868060320454880
0.402000000000000246,3.982825792161636347
0.403000000000000247,3.913854321444833140
0.404000000000000248,3.846912481001782957
0.405000000000000249,3.781959161262590019
0.406000000000000250,3.718953337795050995
0.407000000000000250,3.657854097962753404
0.408000000000000251,3.598620666696201731
0.409000000000000252,3.541212431373140568
0.410000000000000253,3.485588965805952455
0.411000000000000254,3.431710053335977229
0.412000000000000255,3.379535709036081581
0.413000000000000256,3.329026201024306797
0.414000000000000257,3.280142070893092843
0.415000000000000258,3.232844153259573083
0.416000000000000258,3.187093594444106781
0.417000000000000259,3.142851870284972371
0.418000000000000260,3.100080803098581583
0.419000000000000261,3.058742577795293016
0.420000000000000262,3.018799757162091701
0.421000000000000263,2.980215296324004282
0.422000000000000264,2.942952556397112840
0.423000000000000265,2.906975317346582877
0.424000000000000266,2.872247790063811035
0.425000000000000266,2.838734627677499400
0.426000000000000267,2.806400936113703892
0.427000000000000268,2.775212283920692080
0.428000000000000269,2.745134711374626058
0.429000000000000270,2.716134738882447941
0.430000000000000271,2.688179374698875357
0.431000000000000272,2.661236121974291713
0.432000000000000273,2.635272985150932890
0.433000000000000274,2.610258475724594796
0.434000000000000274,2.586161617389467260
0.435000000000000275,2.562951950583642002
0.436000000000000276,2.540599536452935236
0.437000000000000277,2.519074960250723194
0.438000000000000278,2.498349334191440896
0.439000000000000279,2.478394299775330545
0.440000000000000280,2.459182029602035691
0.441000000000000281,2.440685228690484543
0.442000000000000282,2.422877135322344166
0.443000000000000282,2.405731521426364594
0.444000000000000283,2.389222692520489577
0.445000000000000284,2.373325487228740371
0.446000000000000285,2.358015276389465065
0.447000000000000286,2.343267961771334562
0.448000000000000287,2.329059974413450362
0.449000000000000288,2.315368272605374589
0.450000000000000289,2.302170339522941589
0.451000000000000290,2.289444180535212148
0.452000000000000290,2.277168320197743512
0.453000000000000291,2.265321798947167231
0.454000000000000292,2.253884169511545021
0.455000000000000293,2.242835493050900020
0.456000000000000294,2.232156335041895368
0.457000000000000295,2.221827760920276340
0.458000000000000296,2.211831331494593211
0.459000000000000297,2.202149098144107420
0.460000000000000298,2.192763597813726761
0.461000000000000298,2.183657847818309072
0.462000000000000299,2.174815340468463809
0.463000000000000300,2.166220037529630549
0.464000000000000301,2.157856364525811088
0.465000000000000302,2.149709204899125758
0.466000000000000303,2.141763894036015081
0.467000000000000304,2.134006213170446475
0.468000000000000305,2.126422383174421338
0.469000000000000306,2.118999058245537803
0.470000000000000306,2.111723319501089602
0.471000000000000307,2.104582668488053976
0.472000000000000308,2.097565020617735421
0.473000000000000309,2.090658698533707671
0.474000000000000310,2.083852425421368615
0.475000000000000311,2.077135318267122166
0.476000000000000312,2.070496881074815221
0.477000000000000313,2.063926998046932137
0.478000000000000314,2.057415926737673484
0.479000000000000314,2.050954291184722944
0.480000000000000315,2.044533075026354840
0.481000000000000316,2.038143614610153698
0.482000000000000317,2.031777592099438756
0.483000000000000318,2.025427028583152822
0.484000000000000319,2.019084277194783894
0.485000000000000320,2.012742016245643750
0.486000000000000321,2.006393242377504382
0.487000000000000322,2.000031263739434184
0.488000000000000322,1.993649693193528138
0.489000000000000323,1.987242441553698002
0.490000000000000324,1.980803710861874123
0.491000000000000325,1.974327987705458920
0.492000000000000326,1.967810036579773492
0.493000000000000327,1.961244893299042058
0.494000000000000328,1.954627858459247136
0.495000000000000329,1.947954490955988049
0.496000000000000330,1.941220601560351255
0.497000000000000330,1.934422246555442371
0.498000000000000331,1.927555721436422287
0.499000000000000332,1.920617554676206540
0.500000000000000333,1.913604501559281301
0.501000000000000334,1.906513538085781390
0.502000000000000335,1.899341854947593999
0.503000000000000336,1.892086851578548501
0.504000000000000337,1.884746130280170462
0.505000000000000338,1.877317490424660118
0.506000000000000338,1.869798922736422231
0.507000000000000339,1.862188603653451180
0.508000000000000340,1.854484889769766554
0.509000000000000341,1.846686312359783866
0.510000000000000342,1.838791571985746831
0.511000000000000343,1.830799533188814721
0.512000000000000344,1.822709219264679437
0.513000000000000345,1.814519807124195250
0.514000000000000346,1.806230622239554773
0.515000000000000346,1.797841133676447711
0.516000000000000347,1.789350949212483499
0.517000000000000348,1.780759810542104304
0.518000000000000349,1.772067588568174035
0.519000000000000350,1.763274278780256665
0.520000000000000351,1.754379996719669377
0.521000000000000352,1.745384973531094008
0.522000000000000353,1.736289551600759484
0.523000000000000353,1.727094180280855040
0.524000000000000354,1.717799411699988621
0.525000000000000355,1.708405896659286327
0.526000000000000356,1.698914380613850028
0.527000000000000357,1.689325699738982056
0.528000000000000358,1.679640777080869229
0.529000000000000359,1.669860618790989903
0.530000000000000360,1.659986310443875013
0.531000000000000361,1.650019013437400428
0.532000000000000361,1.639959961475093264
0.533000000000000362,1.629810457129655443
0.534000000000000363,1.619571868487057476
0.535000000000000364,1.609245625870321827
0.536000000000000365,1.598833218642325082
0.537000000000000366,1.588336192086668319
0.538000000000000367,1.577756144365886737
0.539000000000000368,1.567094723555978231
0.540000000000000369,1.556353624756492637
0.541000000000000369,1.545534587275137595
0.542000000000000370,1.534639391886079895
0.543000000000000371,1.523669858160862534
0.544000000000000372,1.512627841871055479
0.545000000000000373,1.501515232461609006
0.546000000000000374,1.490333950593919932
0.547000000000000375,1.479085945757604659
0.548000000000000376,1.467773193949940769
0.549000000000000377,1.456397695421979943
0.550000000000000377,1.444961472490225329
0.551000000000000378,1.433466567412938542
0.552000000000000379,1.421915040329909008
0.553000000000000380,1.410308967264721325
0.554000000000000381,1.398650438188437928
0.555000000000000382,1.386941555143593074
0.556000000000000383,1.375184430427542237
0.557000000000000384,1.363381184833980964
0.558000000000000385,1.351533945951707283
0.559000000000000385,1.339644846519469912
0.560000000000000386,1.327716022835880194
0.561000000000000387,1.315749613223374137
0.562000000000000388,1.303747756545144076
0.563000000000000389,1.291712590773975267
0.564000000000000390,1.279646251612014396
0.565000000000000391,1.267550871160387116
0.566000000000000392,1.255428576637686033
0.567000000000000393,1.243281489146232044
0.568000000000000393,1.231111722485221716
0.569000000000000394,1.218921382009647392
0.570000000000000395,1.206712563534058535
0.571000000000000396,1.194487352280172221
0.572000000000000397,1.182247821867320692
0.573000000000000398,1.169996033344844033
0.574000000000000399,1.157734034265384349
0.575000000000000400,1.145463857798213025
0.576000000000000401,1.133187521881627857
0.577000000000000401,1.120907028413448137
0.578000000000000402,1.108624362478787040
0.579000000000000403,1.096341491614154506
0.580000000000000404,1.084060365106935375
0.581000000000000405,1.071782913329517140
0.582000000000000406,1.059511047107031922
0.583000000000000407,1.047246657117976154
0.584000000000000408,1.034991613326826654
0.585000000000000409,1.022747764447789809
0.586000000000000409,1.010516937438943552
0.587000000000000410,0.998300937025853985
0.588000000000000411,0.986101545254018164
0.589000000000000412,0.973920521069182477
0.590000000000000413,0.961759599924930653
0.591000000000000414,0.949620493416665878
0.592000000000000415,0.937504888941297354
0.593000000000000416,0.925414449381903870
0.594000000000000417,0.913350812816637214
0.595000000000000417,0.901315592251132669
0.596000000000000418,0.889310375373821183
0.597000000000000419,0.877336724333351858
0.598000000000000420,0.865396175537555878
0.599000000000000421,0.853490239473205348
0.600000000000000422,0.841620400545986636
0.601000000000000423,0.829788116940069598
0.602000000000000424,0.817994820496556030
0.603000000000000425,0.806241916610298426
0.604000000000000425,0.794530784144480640
0.605000000000000426,0.782862775362325070
0.606000000000000427,0.771239215875365702
0.607000000000000428,0.759661404607843482
0.608000000000000429,0.748130613776429199
0.609000000000000430,0.736648088885044072
0.610000000000000431,0.725215048733983125
0.611000000000000432,0.713832685442992276
0.612000000000000433,0.702502164487749048
0.613000000000000433,0.691224624749224303
0.614000000000000434,0.680001178575489695
0.615000000000000435,0.668832911855476220
0.616000000000000436,0.657720884104270653
0.617000000000000437,0.646666128559379660
0.618000000000000438,0.635669652287684128
