# ZnS-sphalerite-110_CHLORANE-AC
# h[nm],U(h)[kJ/mol]
0.149999999999999994,77.449144643659096232
0.150999999999999995,76.723770925807542653
0.151999999999999996,75.760099256556742375
0.152999999999999997,74.737703955850705029
0.153999999999999998,73.722889693325171834
0.154999999999999999,72.730325237991038989
0.156000000000000000,71.755338743201278362
0.157000000000000001,70.789350420108647199
0.158000000000000002,69.826080631210629690
0.159000000000000002,68.863075190523403535
0.160000000000000003,67.901144202357301083
0.161000000000000004,66.943116499428228394
0.162000000000000005,65.992600614277591831
0.163000000000000006,65.053037210857482364
0.164000000000000007,64.127110158150969710
0.165000000000000008,63.216478324734381999
0.166000000000000009,62.321749635405168988
0.167000000000000010,61.442613074762768122
0.168000000000000010,60.578055120454521898
0.169000000000000011,59.726604111508336814
0.170000000000000012,58.886563642533907625
0.171000000000000013,58.056211467953346528
0.172000000000000014,57.233952552523973623
0.173000000000000015,56.418423708981798370
0.174000000000000016,55.608553086399275855
0.175000000000000017,54.803581170601169958
0.176000000000000018,54.003051519500424149
0.177000000000000018,53.206779719638632287
0.178000000000000019,52.414808466780201002
0.179000000000000020,51.627355598145165061
0.180000000000000021,50.844760600908003312
0.181000000000000022,50.067433776375601440
0.182000000000000023,49.295810973156235946
0.183000000000000024,48.530315687340447539
0.184000000000000025,47.771329398179595671
0.185000000000000026,47.019170273026993812
0.186000000000000026,46.274079827293050471
0.187000000000000027,45.536216745306802522
0.188000000000000028,44.805656832256701705
0.189000000000000029,44.082397949867683451
0.190000000000000030,43.366368763685592569
0.191000000000000031,42.657440174285198964
0.192000000000000032,41.955438397708363141
0.193000000000000033,41.260158784473269122
0.194000000000000034,40.571379607302489489
0.195000000000000034,39.888875194086047316
0.196000000000000035,39.212427926075278606
0.197000000000000036,38.541838755855494014
0.198000000000000037,37.876936021243778896
0.199000000000000038,37.217582437538297313
0.200000000000000039,36.563680240436426061
0.201000000000000040,35.915174525373380732
0.202000000000000041,35.272054886663958939
0.203000000000000042,34.634355502822366191
0.204000000000000042,34.002153844266139515
0.205000000000000043,33.375568197935415071
0.206000000000000044,32.754754211892887383
0.207000000000000045,32.139900663403011549
0.208000000000000046,31.531224647926393345
0.209000000000000047,30.928966375388405652
0.210000000000000048,30.333383745317121338
0.211000000000000049,29.744746855164510890
0.212000000000000050,29.163332577322911732
0.213000000000000050,28.589419320870085528
0.214000000000000051,28.023282074600547986
0.215000000000000052,27.465187808978214434
0.216000000000000053,26.915391296690579281
0.217000000000000054,26.374131394804930295
0.218000000000000055,25.841627816332827905
0.219000000000000056,25.318078405426803101
0.220000000000000057,24.803656918522580810
0.221000000000000058,24.298511303507538628
0.222000000000000058,23.802762460397392630
0.223000000000000059,23.316503459970313372
0.224000000000000060,22.839799191238363107
0.225000000000000061,22.372686404417226669
0.226000000000000062,21.915174113060185590
0.227000000000000063,21.467244317119060781
0.228000000000000064,21.028853007752054793
0.229000000000000065,20.599931414583672051
0.230000000000000066,20.180387456712153949
0.231000000000000066,19.770107359933863478
0.232000000000000067,19.368957404304229186
0.233000000000000068,18.976785768176956282
0.234000000000000069,18.593424437168188490
0.235000000000000070,18.218691148996818185
0.236000000000000071,17.852391347784582365
0.237000000000000072,17.494320124097107794
0.238000000000000073,17.144264119715909800
0.239000000000000073,16.802003378807278011
0.240000000000000074,16.467313129756803392
0.241000000000000075,16.139965484441756161
0.242000000000000076,15.819731044089900607
0.243000000000000077,15.506380403107183241
0.244000000000000078,15.199685544334027298
0.245000000000000079,14.899421121102284005
0.246000000000000080,14.605365623208729886
0.247000000000000081,14.317302425492949070
0.248000000000000081,14.035020719111447107
0.249000000000000082,13.758316326838150090
0.250000000000000111,13.486992404799860168
0.251000000000000112,13.220860033981546522
0.252000000000000113,12.959738705617596111
0.253000000000000114,12.703456705232174073
0.254000000000000115,12.451851400611667842
0.255000000000000115,12.204769439397427533
0.256000000000000116,11.962066862285279711
0.257000000000000117,11.723609138021204856
0.258000000000000118,11.489271126499199127
0.259000000000000119,11.258936976307030164
0.260000000000000120,11.032499963037853519
0.261000000000000121,10.809862274599129961
0.262000000000000122,10.590934749612799237
0.263000000000000123,10.375636574820456204
0.264000000000000123,10.163894947190772911
0.265000000000000124,9.955644706181097092
0.266000000000000125,9.750827941336073224
0.267000000000000126,9.549393580119666325
0.268000000000000127,9.351296960577119677
0.269000000000000128,9.156499393115918650
0.270000000000000129,8.964967715381993330
0.271000000000000130,8.776673843894164051
0.272000000000000131,8.591594325788442177
0.273000000000000131,8.409709893717083773
0.274000000000000132,8.231005026647354228
0.275000000000000133,8.055467519014035460
0.276000000000000134,7.883088060398750763
0.277000000000000135,7.713859827640362710
0.278000000000000136,7.547778091023782387
0.279000000000000137,7.384839835951424902
0.280000000000000138,7.225043401272285948
0.281000000000000139,7.068388135228197200
0.282000000000000139,6.914874069776169918
0.283000000000000140,6.764501613859247975
0.284000000000000141,6.617271266026145682
0.285000000000000142,6.473183346641830482
0.286000000000000143,6.332237749786898462
0.287000000000000144,6.194433714812611846
0.288000000000000145,6.059769617400165842
0.289000000000000146,5.928242779867413326
0.290000000000000147,5.799849300371882066
0.291000000000000147,5.674583900576739559
0.292000000000000148,5.552439791273966030
0.293000000000000149,5.433408555397349460
0.294000000000000150,5.317480047805120513
0.295000000000000151,5.204642311168380608
0.296000000000000152,5.094881507265844434
0.297000000000000153,4.988181862957395296
0.298000000000000154,4.884525630087802384
0.299000000000000155,4.783893058557334044
0.300000000000000155,4.686262381787069664
0.301000000000000156,4.591609813803254170
0.302000000000000157,4.499909557166025031
0.303000000000000158,4.411133820973605957
0.304000000000000159,4.325252848182133292
0.305000000000000160,4.242234951494131323
0.306000000000000161,4.162046557084228660
0.307000000000000162,4.084652255448903091
0.308000000000000163,4.010014858687634742
0.309000000000000163,3.938095463544986963
0.310000000000000164,3.868853519567096555
0.311000000000000165,3.802246901751255681
0.312000000000000166,3.738231987093276754
0.313000000000000167,3.676763734464365108
0.314000000000000168,3.617795767276623220
0.315000000000000169,3.561280458424086248
0.316000000000000170,3.507169017014079238
0.317000000000000171,3.455411576431687504
0.318000000000000171,3.405957283307787797
0.319000000000000172,3.358754386988576979
0.320000000000000173,3.313750329131552430
0.321000000000000174,3.270891833079519806
0.322000000000000175,3.230124992689950236
0.323000000000000176,3.191395360322450525
0.324000000000000177,3.154648033711496602
0.325000000000000178,3.119827741475384109
0.326000000000000179,3.086878927035120679
0.327000000000000179,3.055745830739101443
0.328000000000000180,3.026372570010519958
0.329000000000000181,2.998703217354480532
0.330000000000000182,2.972681876081348040
0.331000000000000183,2.948252753620853817
0.332000000000000184,2.925360232319140330
0.333000000000000185,2.903948937627226723
0.334000000000000186,2.883963803604943088
0.335000000000000187,2.865350135679004318
0.336000000000000187,2.848053670607590959
0.337000000000000188,2.832020633616703531
0.338000000000000189,2.817197792685428581
0.339000000000000190,2.803532509968467146
0.340000000000000191,2.790972790354663058
0.341000000000000192,2.779467327169672153
0.342000000000000193,2.768965545039857368
0.343000000000000194,2.759417639942408851
0.344000000000000195,2.750774616474279899
0.345000000000000195,2.742988322378887123
0.346000000000000196,2.736011480375953653
0.347000000000000197,2.729797717345021191
0.348000000000000198,2.724301590918181581
0.349000000000000199,2.719478613541857381
0.350000000000000200,2.715285274071200572
0.351000000000000201,2.711679056964069190
0.352000000000000202,2.708618459144297663
0.353000000000000203,2.706063004606404032
0.354000000000000203,2.703973256835858319
0.355000000000000204,2.702310829120668778
0.356000000000000205,2.701038392831231594
0.357000000000000206,2.700119683746310173
0.358000000000000207,2.699519506503685662
0.359000000000000208,2.699203737254229019
0.360000000000000209,2.699139324598225365
0.361000000000000210,2.699294288882640558
0.362000000000000210,2.699637719937504787
0.363000000000000211,2.700139773329040871
0.364000000000000212,2.700771665206283867
0.365000000000000213,2.701505665817014012
0.366000000000000214,2.702315091767653943
0.367000000000000215,2.703174297100521706
0.368000000000000216,2.704058663260406004
0.369000000000000217,2.704944588020994356
0.370000000000000218,2.705809473439988899
0.371000000000000218,2.706631712910187115
0.372000000000000219,2.707390677371915189
0.373000000000000220,2.708066700750496825
0.374000000000000221,2.708641064680509913
0.375000000000000222,2.709095982576784856
0.376000000000000223,2.709414583109964969
0.377000000000000224,2.709580893142741864
0.378000000000000225,2.709579820180696874
0.379000000000000226,2.709397134389846418
0.380000000000000226,2.709019450230871762
0.381000000000000227,2.708434207758182222
0.382000000000000228,2.707629653629862077
0.383000000000000229,2.706594821872637002
0.384000000000000230,2.705319514444145756
0.385000000000000231,2.703794281632691199
0.386000000000000232,2.702010402332982508
0.387000000000000233,2.699959864234336315
0.388000000000000234,2.697635343956124476
0.389000000000000234,2.695030187163319990
0.390000000000000235,2.692138388693390727
0.391000000000000236,2.688954572723943226
0.392000000000000237,2.685473973008947191
0.393000000000000238,2.681692413209668224
0.394000000000000239,2.677606287344912239
0.395000000000000240,2.673212540383576474
0.396000000000000241,2.668508649001087196
0.397000000000000242,2.663492602519771602
0.398000000000000242,2.658162884051868513
0.399000000000000243,2.652518451862504456
0.400000000000000244,2.646558720968672951
0.401000000000000245,2.640283544988903053
0.402000000000000246,2.633693198257281320
0.403000000000000247,2.626788358214079189
0.404000000000000248,2.619570088084317128
0.405000000000000249,2.612039819854389489
0.406000000000000250,2.604199337555946236
0.407000000000000250,2.596050760865110885
0.408000000000000251,2.587596529024316361
0.409000000000000252,2.578839385093007586
0.410000000000000253,2.569782360532689047
0.411000000000000254,2.560428760130931458
0.412000000000000255,2.550782147268200184
0.413000000000000256,2.540846329530572767
0.414000000000000257,2.530625344670821786
0.415000000000000258,2.520123446919513288
0.416000000000000258,2.509345093647331826
0.417000000000000259,2.498294932379067745
0.418000000000000260,2.486977788159279168
0.419000000000000261,2.475398651269041128
0.420000000000000262,2.463562665292728049
0.421000000000000263,2.451475115533289006
0.422000000000000264,2.439141417774087106
0.423000000000000265,2.426567107384920430
0.424000000000000266,2.413757828769456104
0.425000000000000266,2.400719325151052352
0.426000000000000267,2.387457428693483319
0.427000000000000268,2.373978050952875840
0.428000000000000269,2.360287173656881343
0.429000000000000270,2.346390839806782758
0.430000000000000271,2.332295145098109757
0.431000000000000272,2.318006229655012351
0.432000000000000273,2.303530270073559372
0.433000000000000274,2.288873471768853030
0.434000000000000274,2.274042061620761945
0.435000000000000275,2.259042280912942235
0.436000000000000276,2.243880378559620414
0.437000000000000277,2.228562604614595877
0.438000000000000278,2.213095204056785725
0.439000000000000279,2.197484410846533009
0.440000000000000280,2.181736442246893226
0.441000000000000281,2.165857493404034440
0.442000000000000282,2.149853732180798893
0.443000000000000282,2.133731294237569021
0.444000000000000283,2.117496278354410677
0.445000000000000284,2.101154741988572994
0.446000000000000285,2.084712697061401609
0.447000000000000286,2.068176105968654532
0.448000000000000287,2.051550877808374640
0.449000000000000288,2.034842864820338715
0.450000000000000289,2.018057859031263668
0.451000000000000290,2.001201589099920852
0.452000000000000290,1.984279717356364880
0.453000000000000291,1.967297837029569063
0.454000000000000292,1.950261469657767366
0.455000000000000293,1.933176062675902473
0.456000000000000294,1.916046987174637950
0.457000000000000295,1.898879535825436449
0.458000000000000296,1.881678920966330271
0.459000000000000297,1.864450272843042544
0.460000000000000298,1.847198638000210336
0.461000000000000298,1.829928977817576907
0.462000000000000299,1.812646167186038992
0.463000000000000300,1.795354993318609704
0.464000000000000301,1.778060154691354811
0.465000000000000302,1.760766260109537296
0.466000000000000303,1.743477827894237553
0.467000000000000304,1.726199285184838228
0.468000000000000305,1.708934967352853551
0.469000000000000306,1.691689117522685804
0.470000000000000306,1.674465886194958841
0.471000000000000307,1.657269330968227150
0.472000000000000308,1.640103416354907306
0.473000000000000309,1.622972013687390191
0.474000000000000310,1.605878901110430856
0.475000000000000311,1.588827763655909608
0.476000000000000312,1.571822193396310574
0.477000000000000313,1.554865689673160523
0.478000000000000314,1.537961659396983372
0.479000000000000314,1.521113417415225211
0.480000000000000315,1.504324186944849373
0.481000000000000316,1.487597100066279765
0.482000000000000317,1.470935198275570288
0.483000000000000318,1.454341433091660418
0.484000000000000319,1.437818666715764859
0.485000000000000320,1.421369672739963841
0.486000000000000321,1.404997136902192079
0.487000000000000322,1.388703657884880149
0.488000000000000322,1.372491748154630820
0.489000000000000323,1.356363834840332405
0.490000000000000324,1.340322260647255348
0.491000000000000325,1.324369284804735702
0.492000000000000326,1.308507084045115176
0.493000000000000327,1.292737753611707507
0.494000000000000328,1.277063308293626021
0.495000000000000329,1.261485683485397136
0.496000000000000330,1.246006736269333892
0.497000000000000330,1.230628246518723046
0.498000000000000331,1.215351918019998756
0.499000000000000332,1.200179379612051900
0.500000000000000333,1.185112186340963714
0.501000000000000334,1.170151820628524408
0.502000000000000335,1.155299693452881860
0.503000000000000336,1.140557145539845108
0.504000000000000337,1.125925448563311448
0.505000000000000338,1.111405806353443104
0.506000000000000338,1.096999356111210133
0.507000000000000339,1.082707169628013055
0.508000000000000340,1.068530254509142630
0.509000000000000341,1.054469555399870639
0.510000000000000342,1.040525955213059905
0.511000000000000343,1.026700276357178421
0.512000000000000344,1.012993281963709080
0.513000000000000345,0.999405677112953250
0.514000000000000346,0.985938110057269612
0.515000000000000346,0.972591173440899626
0.516000000000000347,0.959365405515483993
0.517000000000000348,0.946261291350480982
0.518000000000000349,0.933279264037714440
0.519000000000000350,0.920419705889341300
0.520000000000000351,0.907682949628528357
0.521000000000000352,0.895069279572197063
0.522000000000000353,0.882578932805243133
0.523000000000000353,0.870212100345617023
0.524000000000000354,0.857968928299757017
0.525000000000000355,0.845849519007841222
0.526000000000000356,0.833853932178402979
0.527000000000000357,0.821982186011834592
0.528000000000000358,0.810234258312387268
0.529000000000000359,0.798610087588264794
0.530000000000000360,0.787109574139461032
0.531000000000000361,0.775732581132993926
0.532000000000000361,0.764478935665239501
0.533000000000000362,0.753348429811070641
0.534000000000000363,0.742340821659564942
0.535000000000000364,0.731455836336004195
0.536000000000000365,0.720693167009998858
0.537000000000000366,0.710052475889499712
0.538000000000000367,0.699533395200570340
0.539000000000000368,0.689135528152707955
0.540000000000000369,0.678858449889642390
0.541000000000000369,0.668701708425437635
0.542000000000000370,0.658664825565849932
0.543000000000000371,0.648747297814813773
0.544000000000000372,0.638948597266013829
0.545000000000000373,0.629268172479488408
0.546000000000000374,0.619705449343213921
0.547000000000000375,0.610259831919667817
0.548000000000000376,0.600930703277327893
0.549000000000000377,0.591717426307150629
0.550000000000000377,0.582619344523993443
0.551000000000000378,0.573635782853053056
0.552000000000000379,0.564766048401321830
0.553000000000000380,0.556009431214117056
0.554000000000000381,0.547365205016756784
0.555000000000000382,0.538832627941405296
0.556000000000000383,0.530410943239217225
0.557000000000000384,0.522099379977802092
0.558000000000000385,0.513897153724155786
0.559000000000000385,0.505803467213106317
0.560000000000000386,0.497817511001413471
0.561000000000000387,0.489938464107611160
0.562000000000000388,0.482165494637728287
0.563000000000000389,0.474497760396973889
0.564000000000000390,0.466934409487564761
0.565000000000000391,0.459474580892784867
0.566000000000000392,0.452117405047437582
0.567000000000000393,0.444862004394815991
0.568000000000000393,0.437707493930357849
0.569000000000000394,0.430652981732105644
0.570000000000000395,0.423697569478153180
0.571000000000000396,0.416840352951221071
0.572000000000000397,0.410080422530502697
0.573000000000000398,0.403416863670981507
0.574000000000000399,0.396848757370342531
0.575000000000000400,0.390375180623671381
0.576000000000000401,0.383995206866099448
0.577000000000000401,0.377707906403548288
0.578000000000000402,0.371512346831773810
0.579000000000000403,0.365407593443867529
0.580000000000000404,0.359392709626366214
0.581000000000000405,0.353466757244193630
0.582000000000000406,0.347628797014552404
0.583000000000000407,0.341877888869985658
0.584000000000000408,0.336213092310754913
0.585000000000000409,0.330633466746730886
0.586000000000000409,0.325138071828953101
0.587000000000000410,0.319725967771041730
0.588000000000000411,0.314396215660655676
0.589000000000000412,0.309147877761124790
0.590000000000000413,0.303980017803488878
0.591000000000000414,0.298891701269074050
0.592000000000000415,0.293881995662792439
0.593000000000000416,0.288949970777347243
0.594000000000000417,0.284094698948506252
0.595000000000000417,0.279315255301605503
0.596000000000000418,0.274610717989475672
0.597000000000000419,0.269980168421934508
0.598000000000000420,0.265422691487033957
0.599000000000000421,0.260937375764210722
0.600000000000000422,0.256523313729512648
0.601000000000000423,0.252179601953074983
0.602000000000000424,0.247905341288985615
0.603000000000000425,0.243699637057701951
0.604000000000000425,0.239561599221216864
0.605000000000000426,0.235490342551076232
0.606000000000000427,0.231484986789425473
0.607000000000000428,0.227544656803276013
0.608000000000000429,0.223668482732050256
0.609000000000000430,0.219855600128684270
0.610000000000000431,0.216105150094305476
0.611000000000000432,0.212416279406724945
0.612000000000000433,0.208788140642859027
0.613000000000000433,0.205219892295199546
0.614000000000000434,0.201710698882511974
0.615000000000000435,0.198259731054883204
0.616000000000000436,0.194866165693254184
0.617000000000000437,0.191529186003562973
0.618000000000000438,0.188247981605662529
0.619000000000000439,0.185021748617116788
0.620000000000000440,0.181849689732010711
0.621000000000000441,0.178731014294907009
