# TungstenDisulfide-001_AFUC-AC
# h[nm],U(h)[kJ/mol]
0.149999999999999994,150.670579368341293502
0.150999999999999995,146.555378113623135050
0.151999999999999996,143.264372152503995039
0.152999999999999997,140.300341293251136676
0.153999999999999998,137.445620740196972065
0.154999999999999999,134.624531201671800318
0.156000000000000000,131.826168083591454661
0.157000000000000001,129.063473589780471684
0.158000000000000002,126.353394848315772947
0.159000000000000002,123.708738601300680671
0.160000000000000003,121.136077837493445486
0.161000000000000004,118.636439085297098472
0.162000000000000005,116.206970883203013045
0.163000000000000006,113.842681289348050200
0.164000000000000007,111.537847141332605361
0.165000000000000008,109.286980268485223178
0.166000000000000009,107.085377419742556526
0.167000000000000010,104.929339983976845474
0.168000000000000010,102.816163541148881677
0.169000000000000011,100.743988470596036677
0.170000000000000012,98.711584571277327882
0.171000000000000013,96.718122351970038153
0.172000000000000014,94.762965122090363934
0.173000000000000015,92.845500874549571790
0.174000000000000016,90.965021581519096117
0.175000000000000017,89.120649653166239545
0.176000000000000018,87.311306377260038403
0.177000000000000018,85.535714518832548947
0.178000000000000019,83.792426297429258852
0.179000000000000020,82.079868141387208880
0.180000000000000021,80.396394512600750204
0.181000000000000022,78.740344371319793026
0.182000000000000023,77.110095269447597843
0.183000000000000024,75.504111459258083983
0.184000000000000025,73.920983679504061570
0.185000000000000026,72.359459375423554661
0.186000000000000026,70.818462999336560415
0.187000000000000027,69.297106723450795585
0.188000000000000028,67.794692390044843933
0.189000000000000029,66.310705848856116518
0.190000000000000030,64.844805013827425455
0.191000000000000031,63.396803038846130107
0.192000000000000032,61.966647991049356392
0.193000000000000033,60.554400314523888937
0.194000000000000034,59.160209247528882770
0.195000000000000034,57.784289200062040948
0.196000000000000035,56.426896929680125936
0.197000000000000036,55.088310182873613030
0.198000000000000037,53.768808305083815924
0.199000000000000038,52.468655170355432915
0.200000000000000039,51.188084645333901790
0.201000000000000040,49.927288683920195922
0.202000000000000041,48.686408049172911205
0.203000000000000042,47.465525577822958780
0.204000000000000042,46.264661839145027500
0.205000000000000043,45.083772992547388014
0.206000000000000044,43.922750615416831010
0.207000000000000045,42.781423252661127776
0.208000000000000046,41.659559430146984482
0.209000000000000047,40.556871873996371392
0.210000000000000048,39.473022684731759568
0.211000000000000049,38.407629227950963013
0.212000000000000050,37.360270520106091396
0.213000000000000050,36.330493907801169939
0.214000000000000051,35.317821860698217051
0.215000000000000052,34.321758720716161406
0.216000000000000053,33.341797272953257902
0.217000000000000054,32.377425026049635903
0.218000000000000055,31.428130111054393581
0.219000000000000056,30.493406727914173615
0.220000000000000057,29.572760087199917223
0.221000000000000058,28.665710811478923858
0.222000000000000058,27.771798775719265251
0.223000000000000059,26.890586379267908512
0.224000000000000060,26.021661253282616144
0.225000000000000061,25.164638417088102784
0.226000000000000062,24.319161904855654655
0.227000000000000063,23.484905890382471227
0.228000000000000064,22.661575342700015057
0.229000000000000065,21.848906248897854709
0.230000000000000066,21.046665443054255462
0.231000000000000066,20.254650081646918380
0.232000000000000067,19.472686806415904215
0.233000000000000068,18.700630635489936537
0.234000000000000069,17.938363622789374574
0.235000000000000070,17.185793324396279047
0.236000000000000071,16.442851108836975982
0.237000000000000072,15.709490346147498840
0.238000000000000073,14.985684508273511284
0.239000000000000073,14.271425210867018762
0.240000000000000074,13.566720223944155777
0.241000000000000075,12.871591476223850137
0.242000000000000076,12.186073075318690329
0.243000000000000077,11.510209363338661959
0.244000000000000078,10.844053024930200735
0.245000000000000079,10.187663262331014380
0.246000000000000080,9.541104049699743683
0.247000000000000081,8.904442476789911964
0.248000000000000081,8.277747189996338406
0.249000000000000082,7.661086936912565371
0.250000000000000111,7.054529218805076773
0.251000000000000112,6.458139053836750243
0.252000000000000113,5.871977852452738844
0.253000000000000114,5.296102405080100439
0.254000000000000115,4.730563981174645605
0.255000000000000115,4.175407537676566250
0.256000000000000116,3.630671034096998540
0.257000000000000117,3.096384850746370265
0.258000000000000118,2.572571306023202276
0.259000000000000119,2.059244268198763272
0.260000000000000120,1.556408856751169800
0.261000000000000121,1.064061228013892579
0.262000000000000122,0.582188439697027826
0.263000000000000123,0.110768388710170557
0.264000000000000123,-0.350230183348643032
0.265000000000000124,-0.800847622677049231
0.266000000000000125,-1.241133239317305792
0.267000000000000126,-1.671145132269028721
0.268000000000000127,-2.090949969034242795
0.269000000000000128,-2.500622724799122398
0.270000000000000129,-2.900246386266995380
0.271000000000000130,-3.289911624945339064
0.272000000000000131,-3.669716444459960591
0.273000000000000131,-4.039765806227853417
0.274000000000000132,-4.400171237568711646
0.275000000000000133,-4.751050426078355926
0.276000000000000134,-5.092526803827431614
0.277000000000000135,-5.424729124688147053
0.278000000000000136,-5.747791037834549144
0.279000000000000137,-6.061850660207388053
0.280000000000000138,-6.367050150486052829
0.281000000000000139,-6.663535286869394447
0.282000000000000139,-6.951455050733494900
0.283000000000000140,-7.230961218011228375
0.284000000000000141,-7.502207959923923752
0.285000000000000142,-7.765351454492318339
0.286000000000000143,-8.020549510061190546
0.287000000000000144,-8.267961201890255296
0.288000000000000145,-8.507746522694295876
0.289000000000000146,-8.740066047855354014
0.290000000000000147,-8.965080615882977000
0.291000000000000147,-9.182951024560738418
0.292000000000000148,-9.393837743091850712
0.293000000000000149,-9.597900640440347075
0.294000000000000150,-9.795298729959400319
0.295000000000000151,-9.986189930302279194
0.296000000000000152,-10.170730842525308901
0.297000000000000153,-10.349076543214595247
0.298000000000000154,-10.521380393399578423
0.299000000000000155,-10.687793862955524915
0.300000000000000155,-10.848466370143762916
0.301000000000000156,-11.003545135892252915
0.302000000000000157,-11.153175052379832977
0.303000000000000158,-11.297498565453810926
0.304000000000000159,-11.436655570383392089
0.305000000000000160,-11.570783320428814633
0.306000000000000161,-11.700016347689208729
0.307000000000000162,-11.824486395679020490
0.308000000000000163,-11.944322363074292070
0.309000000000000163,-12.059650258065103046
0.310000000000000164,-12.170593162748900795
0.311000000000000165,-12.277271207000826081
0.312000000000000166,-12.379801551261545356
0.313000000000000167,-12.478298377689368337
0.314000000000000168,-12.572872889132487018
0.315000000000000169,-12.663633315387526679
0.316000000000000170,-12.750684926223218696
0.317000000000000171,-12.834130050661176625
0.318000000000000171,-12.914068102020880957
0.319000000000000172,-12.990595608251917170
0.320000000000000173,-13.063806247092779600
0.321000000000000174,-13.133790885613024102
0.322000000000000175,-13.200637623713367574
0.323000000000000176,-13.264431841176300253
0.324000000000000177,-13.325256247878149551
0.325000000000000178,-13.383190936791867998
0.326000000000000179,-13.438313439428549501
0.327000000000000179,-13.490698783383569648
0.328000000000000180,-13.540419551671840637
0.329000000000000181,-13.587545943554477645
0.330000000000000182,-13.632145836576489373
0.331000000000000183,-13.674284849553194121
0.332000000000000184,-13.714026406258920332
0.333000000000000185,-13.751431799588861082
0.334000000000000186,-13.786560255980337075
0.335000000000000187,-13.819468999895510919
0.336000000000000187,-13.850213318182449385
0.337000000000000188,-13.878846624145442235
0.338000000000000189,-13.905420521170061221
0.339000000000000190,-13.929984865760971502
0.340000000000000191,-13.952587829863443147
0.341000000000000192,-13.973275962351868529
0.342000000000000193,-13.992094249579611898
0.343000000000000194,-14.009086174896088650
0.344000000000000195,-14.024293777046597853
0.345000000000000195,-14.037757707381217642
0.346000000000000196,-14.049517285807459288
0.347000000000000197,-14.059610555430756662
0.348000000000000198,-14.068074335834833022
0.349000000000000199,-14.074944274961769253
0.350000000000000200,-14.080254899558861226
0.351000000000000201,-14.084039664166116523
0.352000000000000202,-14.086330998624458033
0.353000000000000203,-14.087160354090713099
0.354000000000000203,-14.086558247550708955
0.355000000000000204,-14.084554304827008764
0.356000000000000205,-14.081177302082148017
0.357000000000000206,-14.076455205822981043
0.358000000000000207,-14.070415211415001622
0.359000000000000208,-14.063083780119518096
0.360000000000000209,-14.054486674669684376
0.361000000000000210,-14.044648993404120318
0.362000000000000210,-14.033595202979693539
0.363000000000000211,-14.021349169687216119
0.364000000000000212,-14.007934189396015867
0.365000000000000213,-13.993373016155128852
0.366000000000000214,-13.977687889480373329
0.367000000000000215,-13.960900560358064482
0.368000000000000216,-13.943032315997436754
0.369000000000000217,-13.924104003364382365
0.370000000000000218,-13.904136051530608498
0.371000000000000218,-13.883148492872209090
0.372000000000000219,-13.861160983152808868
0.373000000000000220,-13.838192820526463933
0.374000000000000221,-13.814262963495712810
0.375000000000000222,-13.789390047860342392
0.376000000000000223,-13.763592402692575334
0.377000000000000224,-13.736888065374014190
0.378000000000000225,-13.709294795729656258
0.379000000000000226,-13.680830089293852581
0.380000000000000226,-13.651511189743118280
0.381000000000000227,-13.621355100529555671
0.382000000000000228,-13.590378595748978441
0.383000000000000229,-13.558598230276677654
0.384000000000000230,-13.526030349203349346
0.385000000000000231,-13.492691096603319778
0.386000000000000232,-13.458596423665998287
0.387000000000000233,-13.423762096221389939
0.388000000000000234,-13.388203701689135983
0.389000000000000234,-13.351936655480418636
0.390000000000000235,-13.314976206880704268
0.391000000000000236,-13.277337444440965086
0.392000000000000237,-13.239035300903861270
0.393000000000000238,-13.200084557690848541
0.394000000000000239,-13.160499848975025117
0.395000000000000240,-13.120295665364062998
0.396000000000000241,-13.079486357216495662
0.397000000000000242,-13.038086137613765558
0.398000000000000242,-12.996109085009971196
0.399000000000000243,-12.953569145579939104
0.400000000000000244,-12.910480135285874681
0.401000000000000245,-12.866855741681835212
0.402000000000000246,-12.822709525474440539
0.403000000000000247,-12.778054921857638249
0.404000000000000248,-12.732905241638466265
0.405000000000000249,-12.687273672170013228
0.406000000000000250,-12.641173278107068256
0.407000000000000250,-12.594617001999241168
0.408000000000000251,-12.547617664735652099
0.409000000000000252,-12.500187965854561156
0.410000000000000253,-12.452340483730683474
0.411000000000000254,-12.404087675652316847
0.412000000000000255,-12.355441877799638206
0.413000000000000256,-12.306415305135249838
0.414000000000000257,-12.257020051216946044
0.415000000000000258,-12.207268087942711787
0.416000000000000258,-12.157171265236836888
0.417000000000000259,-12.106741310685951163
0.418000000000000260,-12.055989829132991886
0.419000000000000261,-12.004928302236731241
0.420000000000000262,-11.953568088003972747
0.421000000000000263,-11.901920420301202341
0.422000000000000264,-11.849996408351680444
0.423000000000000265,-11.797807036224035926
0.424000000000000266,-11.745363162317650207
0.425000000000000266,-11.692675518849799943
0.426000000000000267,-11.639754711349237226
0.427000000000000268,-11.586611218160538073
0.428000000000000269,-11.533255389963009918
0.429000000000000270,-11.479697449307982637
0.430000000000000271,-11.425947490177509991
0.431000000000000272,-11.372015477567796182
0.432000000000000273,-11.317911247099754490
0.433000000000000274,-11.263644504659460210
0.434000000000000274,-11.209224826070419923
0.435000000000000275,-11.154661656799827796
0.436000000000000276,-11.099964311700450281
0.437000000000000277,-11.045141974789610018
0.438000000000000278,-10.990203699066698917
0.439000000000000279,-10.935158406370266704
0.440000000000000280,-10.880014887275587299
0.441000000000000281,-10.824781801033543260
0.442000000000000282,-10.769467675551455343
0.443000000000000282,-10.714080907416144939
0.444000000000000283,-10.658629761959780069
0.445000000000000284,-10.603122373368513820
0.446000000000000285,-10.547566744833966723
0.447000000000000286,-10.491970748747702302
0.448000000000000287,-10.436342126938210839
0.449000000000000288,-10.380688490950465308
0.450000000000000289,-10.325017322367424200
0.451000000000000290,-10.269335973173198795
0.452000000000000290,-10.213651666157360864
0.453000000000000291,-10.157971495359680247
0.454000000000000292,-10.102302426554794934
0.455000000000000293,-10.046651297775950340
0.456000000000000294,-9.991024819877157626
0.457000000000000295,-9.935429577132882883
0.458000000000000296,-9.879872027874387896
0.459000000000000297,-9.824358505161903565
0.460000000000000298,-9.768895217491580851
0.461000000000000298,-9.713488249536361252
0.462000000000000299,-9.658143562919700997
0.463000000000000300,-9.602866997021113349
0.464000000000000301,-9.547664269812578652
0.465000000000000302,-9.492540978724679945
0.466000000000000303,-9.437502601541444491
0.467000000000000304,-9.382554497322761478
0.468000000000000305,-9.327701907353389998
0.469000000000000306,-9.272949956117289005
0.470000000000000306,-9.218303652296478745
0.471000000000000307,-9.163767889792929111
0.472000000000000308,-9.109347448772798117
0.473000000000000309,-9.055046996731642039
0.474000000000000310,-9.000871089579671747
0.475000000000000311,-8.946824172745866832
0.476000000000000312,-8.892910582300096678
0.477000000000000313,-8.839134546091896638
0.478000000000000314,-8.785500184905099985
0.479000000000000314,-8.732011513627240262
0.480000000000000315,-8.678672442432604939
0.481000000000000316,-8.625486777978146335
0.482000000000000317,-8.572458224611047228
0.483000000000000318,-8.519590385587161308
0.484000000000000319,-8.466886764299262680
0.485000000000000320,-8.414350765514274855
0.486000000000000321,-8.361985696618479125
0.487000000000000322,-8.309794768869917192
0.488000000000000322,-8.257781098656959529
0.489000000000000323,-8.205947708762444393
0.490000000000000324,-8.154297529632321684
0.491000000000000325,-8.102833400648128404
0.492000000000000326,-8.051558071402450167
0.493000000000000327,-8.000474202976695537
0.494000000000000328,-7.949584369220305646
0.495000000000000329,-7.898891058030872436
0.496000000000000330,-7.848396672634220472
0.497000000000000330,-7.798103532864073095
0.498000000000000331,-7.748013876440315251
0.499000000000000332,-7.698129860245574108
0.500000000000000333,-7.648453561599241723
0.501000000000000334,-7.598986979528421060
0.502000000000000335,-7.549732036035304183
0.503000000000000336,-7.500690577360380473
0.504000000000000337,-7.451864375240903726
0.505000000000000338,-7.403255128164202503
0.506000000000000338,-7.354864462615286591
0.507000000000000339,-7.306693934318306383
0.508000000000000340,-7.258745029471370458
0.509000000000000341,-7.211019165974439815
0.510000000000000342,-7.163517694649691236
0.511000000000000343,-7.116241900454109093
0.512000000000000344,-7.069193003683847287
0.513000000000000345,-7.022372161170084226
0.514000000000000346,-6.975780467465985346
0.515000000000000346,-6.929418956024447240
0.516000000000000347,-6.883288600366332943
0.517000000000000348,-6.837390315238998539
0.518000000000000349,-6.791724957764623483
0.519000000000000350,-6.746293328578380155
0.520000000000000351,-6.701096172955940844
0.521000000000000352,-6.656134181930295490
0.522000000000000353,-6.611407993397543592
0.523000000000000353,-6.566918193211497723
0.524000000000000354,-6.522665316267020508
0.525000000000000355,-6.478649847571726461
0.526000000000000356,-6.434872223306077998
0.527000000000000357,-6.391332831871674003
0.528000000000000358,-6.348032014927506239
0.529000000000000359,-6.304970068414291973
0.530000000000000360,-6.262147243566484889
0.531000000000000361,-6.219563747912137508
0.532000000000000361,-6.177219746260349531
0.533000000000000362,-6.135115361676325207
0.534000000000000363,-6.093250676443935809
0.535000000000000364,-6.051625733015737474
0.536000000000000365,-6.010240534950412439
0.537000000000000366,-5.969095047837605250
0.538000000000000367,-5.928189200210064236
0.539000000000000368,-5.887522884443204596
0.540000000000000369,-5.847095957641892383
0.541000000000000369,-5.806908242514670526
0.542000000000000370,-5.766959528235210186
0.543000000000000371,-5.727249571291170405
0.544000000000000372,-5.687778096320400323
0.545000000000000373,-5.648544796934535484
0.546000000000000374,-5.609549336530003316
0.547000000000000375,-5.570791349086489319
0.548000000000000376,-5.532270439952930552
0.549000000000000377,-5.493986186621045320
0.550000000000000377,-5.455938139486475436
0.551000000000000378,-5.418125822597574803
0.552000000000000379,-5.380548734391986443
0.553000000000000380,-5.343206348420987517
0.554000000000000381,-5.306098114061674309
0.555000000000000382,-5.269223457217225182
0.556000000000000383,-5.232581781005035459
0.557000000000000384,-5.196172466433131021
0.558000000000000385,-5.159994873064682075
0.559000000000000385,-5.124048339670887131
0.560000000000000386,-5.088332184872227160
0.561000000000000387,-5.052845707768233829
0.562000000000000388,-5.017588188555836659
0.563000000000000389,-4.982558889136440072
0.564000000000000390,-4.947757053711788089
0.565000000000000391,-4.913181909368757871
0.566000000000000392,-4.878832666653155847
0.567000000000000393,-4.844708520132717133
0.568000000000000393,-4.810808648949281618
0.569000000000000394,-4.777132217360356314
0.570000000000000395,-4.743678375270231840
0.571000000000000396,-4.710446258750588200
0.572000000000000397,-4.677434990550926486
0.573000000000000398,-4.644643680598777635
0.574000000000000399,-4.612071426489920967
0.575000000000000400,-4.579717313968648895
0.576000000000000401,-4.547580417398250141
0.577000000000000401,-4.515659800221884623
0.578000000000000402,-4.483954515413822506
0.579000000000000403,-4.452463605921316514
0.580000000000000404,-4.421186105097201668
0.581000000000000405,-4.390121037123277503
0.582000000000000406,-4.359267417424689484
0.583000000000000407,-4.328624253075347816
0.584000000000000408,-4.298190543194612800
0.585000000000000409,-4.267965279335259154
0.586000000000000409,-4.237947445862924489
0.587000000000000410,-4.208136020327147619
0.588000000000000411,-4.178529973824075761
0.589000000000000412,-4.149128271351067099
0.590000000000000413,-4.119929872153174522
0.591000000000000414,-4.090933730061758311
0.592000000000000415,-4.062138793825296190
0.593000000000000416,-4.033544007432483092
0.594000000000000417,-4.005148310427779634
0.595000000000000417,-3.976950638219616252
0.596000000000000418,-3.948949922381091771
0.597000000000000419,-3.921145090943699785
0.598000000000000420,-3.893535068683793732
0.599000000000000421,-3.866118777402197448
0.600000000000000422,-3.838895136196929680
0.601000000000000423,-3.811863061729211744
0.602000000000000424,-3.785021468482859142
0.603000000000000425,-3.758369269017177938
0.604000000000000425,-3.731905374213459137
0.605000000000000426,-3.705628693515211403
0.606000000000000427,-3.679538135162260915
0.607000000000000428,-3.653632606418683704
0.608000000000000429,-3.627911013794965278
0.609000000000000430,-3.602372263264133956
