# TungstenDisulfide-001_HSPSCA-JS
# h[nm],U(h)[kJ/mol]
0.149999999999999994,78.580563137201764334
0.150999999999999995,75.840764304168416743
0.151999999999999996,73.913548446864638208
0.152999999999999997,72.199559156110225899
0.153999999999999998,70.471562341975328536
0.154999999999999999,68.680348959179269741
0.156000000000000000,66.848707355800868868
0.157000000000000001,65.017670959361382188
0.158000000000000002,63.222585694367786857
0.159000000000000002,61.485237703541784526
0.160000000000000003,59.813867039548554771
0.161000000000000004,58.206414034624614828
0.162000000000000005,56.654512965073294595
0.163000000000000006,55.147041244012029892
0.164000000000000007,53.672771172269634121
0.165000000000000008,52.222066001307737793
0.166000000000000009,50.787749838903081923
0.167000000000000010,49.365349471092713429
0.168000000000000010,47.952910380035554283
0.169000000000000011,46.550562488196796096
0.170000000000000012,45.159972949661479902
0.171000000000000013,43.783784350928286244
0.172000000000000014,42.425102276827850289
0.173000000000000015,41.087068429212379783
0.174000000000000016,39.772534635848735718
0.175000000000000017,38.483838503997731095
0.176000000000000018,37.222672108743843467
0.177000000000000018,35.990029820156259177
0.178000000000000019,34.786219098871306699
0.179000000000000020,33.610917909669318249
0.180000000000000021,32.463263574758755681
0.181000000000000022,31.341959840856294051
0.182000000000000023,30.245391246352220094
0.183000000000000024,29.171736253178277565
0.184000000000000025,28.119072859926792063
0.185000000000000026,27.085472423320339885
0.186000000000000026,26.069079126445721784
0.187000000000000027,25.068173926684881536
0.188000000000000028,24.081222903381100053
0.189000000000000029,23.106910731066612641
0.190000000000000030,22.144160563769908379
0.191000000000000031,21.192141968458237500
0.192000000000000032,20.250268730012933815
0.193000000000000033,19.318188402886800503
0.194000000000000034,18.395765438616130893
0.195000000000000034,17.483059602084093598
0.196000000000000035,16.580301226686835037
0.197000000000000036,15.687864668698816573
0.198000000000000037,14.806241119420878505
0.199000000000000038,13.936011731724297746
0.200000000000000039,13.077821823836057291
0.201000000000000040,12.232356743475012451
0.202000000000000041,11.400319813432156835
0.203000000000000042,10.582412637377185405
0.204000000000000042,9.779317922737671864
0.205000000000000043,8.991684875635877816
0.206000000000000044,8.220117140074505002
0.207000000000000045,7.465163188371005454
0.208000000000000046,6.727309020493237313
0.209000000000000047,6.006972994554677037
0.210000000000000048,5.304502587356774157
0.211000000000000049,4.620172870643751040
0.212000000000000050,3.954186483882864422
0.213000000000000050,3.306674886272672698
0.214000000000000051,2.677700677836779342
0.215000000000000052,2.067260790585302210
0.216000000000000053,1.475290364693849998
0.217000000000000054,0.901667140501090314
0.218000000000000055,0.346216214061440319
0.219000000000000056,-0.191284978645641257
0.220000000000000057,-0.711101566481528335
0.221000000000000058,-1.213536137754390953
0.222000000000000058,-1.698923709579285957
0.223000000000000059,-2.167626841983194552
0.224000000000000060,-2.620030953004146568
0.225000000000000061,-3.056539878557220646
0.226000000000000062,-3.477571709666768207
0.227000000000000063,-3.883554929792636834
0.228000000000000064,-4.274924866374051113
0.229000000000000065,-4.652120463324864730
0.230000000000000066,-5.015581374962154726
0.231000000000000066,-5.365745376656702703
0.232000000000000067,-5.703046083264745825
0.233000000000000068,-6.027910963044455173
0.234000000000000069,-6.340759632182160210
0.235000000000000070,-6.642002413161080199
0.236000000000000071,-6.932039138910236709
0.237000000000000072,-7.211258183890899787
0.238000000000000073,-7.480035702932836372
0.239000000000000073,-7.738735058651970533
0.240000000000000074,-7.987706418600792446
0.241000000000000075,-8.227286503862037748
0.242000000000000076,-8.457798471544538899
0.243000000000000077,-8.679551914531682399
0.244000000000000078,-8.892842962826694730
0.245000000000000079,-9.097954471901674722
0.246000000000000080,-9.295156284558638404
0.247000000000000081,-9.484705553927884836
0.248000000000000081,-9.666847116339138068
0.249000000000000082,-9.841813903889672588
0.250000000000000111,-10.009827387587030501
0.251000000000000112,-10.171098042951399520
0.252000000000000113,-10.325825830918402559
0.253000000000000114,-10.474200687778438379
0.254000000000000115,-10.616403018724795970
0.255000000000000115,-10.752604190353201474
0.256000000000000116,-10.882967018163437700
0.257000000000000117,-11.007646245757488401
0.258000000000000118,-11.126789013010840890
0.259000000000000119,-11.240535311016062181
0.260000000000000120,-11.349018422063853251
0.261000000000000121,-11.452365343337953973
0.262000000000000122,-11.550697193362319481
0.263000000000000123,-11.644129600553117854
0.264000000000000123,-11.732773073499654259
0.265000000000000124,-11.816733352829789538
0.266000000000000125,-11.896111744711134861
0.267000000000000126,-11.971005436202172945
0.268000000000000127,-12.041507792801388277
0.269000000000000128,-12.107708638649883781
0.270000000000000129,-12.169694519927681142
0.271000000000000130,-12.227548952048294950
0.272000000000000131,-12.281352651302633205
0.273000000000000131,-12.331183751634796408
0.274000000000000132,-12.377118007250546228
0.275000000000000133,-12.419228981766591957
0.276000000000000134,-12.457588224606910288
0.277000000000000135,-12.492265435342316593
0.278000000000000136,-12.523328616654271883
0.279000000000000137,-12.550844216582811796
0.280000000000000138,-12.574877260694124814
0.281000000000000139,-12.595491474776149943
0.282000000000000139,-12.612749398641355469
0.283000000000000140,-12.626712491585408316
0.284000000000000141,-12.637441230019661020
0.285000000000000142,-12.644995197764188788
0.286000000000000143,-12.649433169457713788
0.287000000000000144,-12.650813187510484781
0.288000000000000145,-12.649192632997777963
0.289000000000000146,-12.644628290863437314
0.290000000000000147,-12.637176409777003627
0.291000000000000147,-12.626892756962911690
0.292000000000000148,-12.613832668297089157
0.293000000000000149,-12.598051093944624412
0.294000000000000150,-12.579602639792085483
0.295000000000000151,-12.558541604909693845
0.296000000000000152,-12.534922015261669159
0.297000000000000153,-12.508797653867620880
0.298000000000000154,-12.480222087603992875
0.299000000000000155,-12.449248690821988816
0.300000000000000155,-12.415930665947094269
0.301000000000000156,-12.380321061215180833
0.302000000000000157,-12.342472785691340320
0.303000000000000158,-12.302438621709381295
0.304000000000000159,-12.260271234863212797
0.305000000000000160,-12.216023181674680487
0.306000000000000161,-12.169746915057444880
0.307000000000000162,-12.121494787691357686
0.308000000000000163,-12.071319053417655098
0.309000000000000163,-12.019271866761716439
0.310000000000000164,-11.965405280686763234
0.311000000000000165,-11.909771242678978354
0.312000000000000166,-11.852421589262144508
0.313000000000000167,-11.793408039037370116
0.314000000000000168,-11.732782184341601805
0.315000000000000169,-11.670595481616476974
0.316000000000000170,-11.606899240577604360
0.317000000000000171,-11.541744612272282211
0.318000000000000171,-11.475182576112308297
0.319000000000000172,-11.407263925966841356
0.320000000000000173,-11.338039255398587812
0.321000000000000174,-11.267558942125093679
0.322000000000000175,-11.195873131785232246
0.323000000000000176,-11.123031721089294166
0.324000000000000177,-11.049084340429320861
0.325000000000000178,-10.974080336024575999
0.326000000000000179,-10.898068751675225485
0.327000000000000179,-10.821098310195230496
0.328000000000000180,-10.743217394593530756
0.329000000000000181,-10.664474029070749594
0.330000000000000182,-10.584915859895939860
0.331000000000000183,-10.504590136226436670
0.332000000000000184,-10.423543690930936023
0.333000000000000185,-10.341822921474076225
0.334000000000000186,-10.259473770918186020
0.335000000000000187,-10.176541709095468846
0.336000000000000187,-10.093071714001592198
0.337000000000000188,-10.009108253458865789
0.338000000000000189,-9.924695267095049900
0.339000000000000190,-9.839876148681030443
0.340000000000000191,-9.754693728868030433
0.341000000000000192,-9.669190258362899471
0.342000000000000193,-9.583407391576791667
0.343000000000000194,-9.497386170780808712
0.344000000000000195,-9.411167010798894950
0.345000000000000195,-9.324789684266493239
0.346000000000000196,-9.238293307480441641
0.347000000000000197,-9.151716326863564177
0.348000000000000198,-9.065096506064850956
0.349000000000000199,-8.978470913713749724
0.350000000000000200,-8.891875911845058766
0.351000000000000201,-8.805347145008337151
0.352000000000000202,-8.718919530073891977
0.353000000000000203,-8.632627246745142813
0.354000000000000203,-8.546503728785172171
0.355000000000000204,-8.460581655963258285
0.356000000000000205,-8.374892946725433163
0.357000000000000206,-8.289468751591101636
0.358000000000000207,-8.204339447276140618
0.359000000000000208,-8.119534631541217351
0.360000000000000209,-8.035083118762425869
0.361000000000000210,-7.951012936219848726
0.362000000000000210,-7.867351321098256633
0.363000000000000211,-7.784124718192741099
0.364000000000000212,-7.701358778310881448
0.365000000000000213,-7.619078357361678044
0.366000000000000214,-7.537307516120667295
0.367000000000000215,-7.456069520659172056
0.368000000000000216,-7.375386843425149941
0.369000000000000217,-7.295281164961714637
0.370000000000000218,-7.215773376249027926
0.371000000000000218,-7.136883581654151598
0.372000000000000219,-7.058631102472998187
0.373000000000000220,-6.981034481047802664
0.374000000000000221,-6.904111485443029217
0.375000000000000222,-6.827879114662043669
0.376000000000000223,-6.752353604386634345
0.377000000000000224,-6.677550433220917014
0.378000000000000225,-6.603484329420974852
0.379000000000000226,-6.530169278091253027
0.380000000000000226,-6.457618528828629856
0.381000000000000227,-6.385844603794737395
0.382000000000000228,-6.314859306197289968
0.383000000000000229,-6.244673729160863829
0.384000000000000230,-6.175298264967644002
0.385000000000000231,-6.106742614648811518
0.386000000000000232,-6.039015797907085314
0.387000000000000233,-5.972126163351212824
0.388000000000000234,-5.906081399023237921
0.389000000000000234,-5.840888543199680427
0.390000000000000235,-5.776553995447725853
0.391000000000000236,-5.713083527918095150
0.392000000000000237,-5.650482296856113251
0.393000000000000238,-5.588754854313199516
0.394000000000000239,-5.527905160040921473
0.395000000000000240,-5.467936593550381197
0.396000000000000241,-5.408851966319851101
0.397000000000000242,-5.350653534133998690
0.398000000000000242,-5.293343009538491017
0.399000000000000243,-5.236921574394001411
0.400000000000000244,-5.181389892514119744
0.401000000000000245,-5.126748122372204897
0.402000000000000246,-5.072995929862379683
0.403000000000000247,-5.020132501100476929
0.404000000000000248,-4.968156555251176165
0.405000000000000249,-4.917066357367927409
0.406000000000000250,-4.866859731232752395
0.407000000000000250,-4.817534072183462079
0.408000000000000251,-4.769086359916240525
0.409000000000000252,-4.721513171252087027
0.410000000000000253,-4.674810692855880134
0.411000000000000254,-4.628974733897504912
0.412000000000000255,-4.584000738644723683
0.413000000000000256,-4.539883798978064711
0.414000000000000257,-4.496618666818315901
0.415000000000000258,-4.454199766457786147
0.416000000000000258,-4.412621206786782935
0.417000000000000259,-4.371876793407302841
0.418000000000000260,-4.331960040626281483
0.419000000000000261,-4.292864183321162486
0.420000000000000262,-4.254582188671010456
0.421000000000000263,-4.217106767746751750
0.422000000000000264,-4.180430386954472333
0.423000000000000265,-4.144545279326178999
0.424000000000000266,-4.109443455652800559
0.425000000000000266,-4.075116715454449867
0.426000000000000267,-4.041556657783472062
0.427000000000000268,-4.008754691856116992
0.428000000000000269,-3.976702047508935856
0.429000000000000270,-3.945389785476450584
0.430000000000000271,-3.914808807486883868
0.431000000000000272,-3.884949866173097011
0.432000000000000273,-3.855803574796162536
0.433000000000000274,-3.827360416779295171
0.434000000000000274,-3.799610755050198296
0.435000000000000275,-3.772544841190049958
0.436000000000000276,-3.746152824387765090
0.437000000000000277,-3.720424760198290492
0.438000000000000278,-3.695350619104021739
0.439000000000000279,-3.670920294878670553
0.440000000000000280,-3.647123612753060851
0.441000000000000281,-3.623950337382651377
0.442000000000000282,-3.601390180616752534
0.443000000000000282,-3.579432809069544419
0.444000000000000283,-3.558067851493365907
0.445000000000000284,-3.537284905954702019
0.446000000000000285,-3.517073546813647589
0.447000000000000286,-3.497423331507800270
0.448000000000000287,-3.478323807141472379
0.449000000000000288,-3.459764516881604468
0.450000000000000289,-3.441735006161596111
0.451000000000000290,-3.424224828694596656
0.452000000000000290,-3.407223552297854674
0.453000000000000291,-3.390720764529841169
0.454000000000000292,-3.374706078142036603
0.455000000000000293,-3.359169136347271767
0.456000000000000294,-3.344099617906744815
0.457000000000000295,-3.329487242037792782
0.458000000000000296,-3.315321773144725093
0.459000000000000297,-3.301593025374972346
0.460000000000000298,-3.288290867002978679
0.461000000000000298,-3.275405224644271307
0.462000000000000299,-3.262926087302285172
0.463000000000000300,-3.250843510250427393
0.464000000000000301,-3.239147618752134861
0.465000000000000302,-3.227828611621499366
0.466000000000000303,-3.216876764627271346
0.467000000000000304,-3.206282433742925431
0.468000000000000305,-3.196036058245665501
0.469000000000000306,-3.186128163667126589
0.470000000000000306,-3.176549364598664216
0.471000000000000307,-3.167290367354073322
0.472000000000000308,-3.158341972492663352
0.473000000000000309,-3.149695077205538318
0.474000000000000310,-3.141340677568027040
0.475000000000000311,-3.133269870661171907
0.476000000000000312,-3.125473856565200492
0.477000000000000313,-3.117943940227866140
0.478000000000000314,-3.110671533210606743
0.479000000000000314,-3.103648155315438029
0.480000000000000315,-3.096865436095412427
0.481000000000000316,-3.090315116251640681
0.482000000000000317,-3.083989048919638876
0.483000000000000318,-3.077879200847932761
0.484000000000000319,-3.071977653471734904
0.485000000000000320,-3.066276603884513285
0.486000000000000321,-3.060768365710251793
0.487000000000000322,-3.055445369879178585
0.488000000000000322,-3.050300165309689060
0.489000000000000323,-3.045325419499223862
0.490000000000000324,-3.040513919026761158
0.491000000000000325,-3.035858569969595244
0.492000000000000326,-3.031352398237021184
0.493000000000000327,-3.026988549823554031
0.494000000000000328,-3.022760290984197518
0.495000000000000329,-3.018661008334350804
0.496000000000000330,-3.014684208876776239
0.497000000000000330,-3.010823519958168770
0.498000000000000331,-3.007072689157662904
0.499000000000000332,-3.003425584109714386
0.500000000000000333,-2.999876192263697838
0.501000000000000334,-2.996418620582487424
0.502000000000000335,-2.993047095182320039
0.503000000000000336,-2.989755960916165911
0.504000000000000337,-2.986539680902771998
0.505000000000000338,-2.983392836003525339
0.506000000000000338,-2.980310124249270221
0.507000000000000339,-2.977286360219091321
0.508000000000000340,-2.974316474373138508
0.509000000000000341,-2.971395512341425960
0.510000000000000342,-2.968518634170584924
0.511000000000000343,-2.965681113530437951
0.512000000000000344,-2.962878336882270425
0.513000000000000345,-2.960105802610590864
0.514000000000000346,-2.957359120120218954
0.515000000000000346,-2.954634008900336006
0.516000000000000347,-2.951926297557263990
0.517000000000000348,-2.949231922817641571
0.518000000000000349,-2.946546928503521734
0.519000000000000350,-2.943867464481056295
0.520000000000000351,-2.941189785584259475
0.521000000000000352,-2.938510250515351974
0.522000000000000353,-2.935825320723121301
0.523000000000000353,-2.933131559260766519
0.524000000000000354,-2.930425629624562767
0.525000000000000355,-2.927704294574694721
0.526000000000000356,-2.924964414939584589
0.527000000000000357,-2.922202948404957201
0.528000000000000358,-2.919416948288911406
0.529000000000000359,-2.916603562304134201
0.530000000000000360,-2.913760031308485043
0.531000000000000361,-2.910883688045032613
0.532000000000000361,-2.907971955872658221
0.533000000000000362,-2.905022347488261936
0.534000000000000363,-2.902032463641634585
0.535000000000000364,-2.898999991843943747
0.536000000000000365,-2.895922705070825387
0.537000000000000366,-2.892798460461012855
0.538000000000000367,-2.889625198011347429
0.539000000000000368,-2.886400939269142096
0.540000000000000369,-2.883123786022617541
0.541000000000000369,-2.879791918990306065
0.542000000000000370,-2.876403596510170413
0.543000000000000371,-2.872957153229167560
0.544000000000000372,-2.869450998794039087
0.545000000000000373,-2.865883616543960510
0.546000000000000374,-2.862253562205765434
0.547000000000000375,-2.858559462592356049
0.548000000000000376,-2.854800014304962552
0.549000000000000377,-2.850973982439786170
0.550000000000000377,-2.847080199299651060
0.551000000000000378,-2.843117563111167367
0.552000000000000379,-2.839085036747963642
0.553000000000000380,-2.834981646460462024
0.554000000000000381,-2.830806480612679366
0.555000000000000382,-2.826558688426543675
0.556000000000000383,-2.822237478734079374
0.557000000000000384,-2.817842118737986734
0.558000000000000385,-2.813371932780909468
0.559000000000000385,-2.808826301123833247
0.560000000000000386,-2.804204658733925104
0.561000000000000387,-2.799506494082188102
0.562000000000000388,-2.794731347951227463
0.563000000000000389,-2.789878812253438589
0.564000000000000390,-2.784948528859885641
0.565000000000000391,-2.779940188440179760
0.566000000000000392,-2.774853529313554112
0.567000000000000393,-2.769688336311417309
0.568000000000000393,-2.764444439651577490
0.569000000000000394,-2.759121713824357780
0.570000000000000395,-2.753720076490801194
0.571000000000000396,-2.748239487393106195
0.572000000000000397,-2.742679947277516739
0.573000000000000398,-2.737041496829761833
0.574000000000000399,-2.731324215623216034
0.575000000000000400,-2.725528221079898117
0.576000000000000401,-2.719653667444411393
0.577000000000000401,-2.713700744770964679
0.578000000000000402,-2.707669677923509433
0.579000000000000403,-2.701560725589120970
0.580000000000000404,-2.695374179304688589
0.581000000000000405,-2.689110362496939022
0.582000000000000406,-2.682769629535897593
0.583000000000000407,-2.676352364801774630
0.584000000000000408,-2.669858981765366401
0.585000000000000409,-2.663289922081931493
0.586000000000000409,-2.656645654698617687
0.587000000000000410,-2.649926674975406904
0.588000000000000411,-2.643133503819584451
0.589000000000000412,-2.636266686833756978
0.590000000000000413,-2.629326793477342772
0.591000000000000414,-2.622314416241570800
0.592000000000000415,-2.615230169837938767
0.593000000000000416,-2.608074690400073337
0.594000000000000417,-2.600848634698987638
0.595000000000000417,-2.593552679371678327
0.596000000000000418,-2.586187520162975595
0.597000000000000419,-2.578753871180659907
0.598000000000000420,-2.571252464163694906
0.599000000000000421,-2.563684047763592933
0.600000000000000422,-2.556049386838769255
0.601000000000000423,-2.548349261761866380
0.602000000000000424,-2.540584467739919639
0.603000000000000425,-2.532755814147326312
0.604000000000000425,-2.524864123871473520
0.605000000000000426,-2.516910232670984904
0.606000000000000427,-2.508894988546473748
0.607000000000000428,-2.500819251123657772
0.608000000000000429,-2.492683891048839140
0.609000000000000430,-2.484489789396508552
0.610000000000000431,-2.476237837089096949
0.611000000000000432,-2.467928934328661672
