# TungstenDisulfide-001_GLUSCA-AC
# h[nm],U(h)[kJ/mol]
0.149999999999999994,116.491827958984373481
0.150999999999999995,114.151692439502340903
0.151999999999999996,112.303810072134723441
0.152999999999999997,110.571920896700021331
0.153999999999999998,108.825438355180111216
0.154999999999999999,107.044802092305260999
0.156000000000000000,105.250765355846539251
0.157000000000000001,103.470558292733173289
0.158000000000000002,101.724317819909401805
0.159000000000000002,100.021871886940331819
0.160000000000000003,98.364182809783073935
0.161000000000000004,96.746350900307405141
0.162000000000000005,95.160632562713459492
0.163000000000000006,93.598819485485833525
0.164000000000000007,92.053809160920877730
0.165000000000000008,90.520434748036791461
0.166000000000000009,88.995718119804820390
0.167000000000000010,87.478728563403976182
0.168000000000000010,85.970210290190479441
0.169000000000000011,84.472107545832017195
0.170000000000000012,82.987079276458942445
0.171000000000000013,81.518062279631152478
0.172000000000000014,80.067915098207222968
0.173000000000000015,78.639155063691674741
0.174000000000000016,77.233787258058413272
0.175000000000000017,75.853215676670728840
0.176000000000000018,74.498222368732001542
0.177000000000000018,73.168998711376204369
0.178000000000000019,71.865213306084626765
0.179000000000000020,70.586102526001724300
0.180000000000000021,69.330571925565806168
0.181000000000000022,68.097299144503224966
0.182000000000000023,66.884831322837229095
0.183000000000000024,65.691672221336858684
0.184000000000000025,64.516356119323035045
0.185000000000000026,63.357507100987881188
0.186000000000000026,62.213883542149538641
0.187000000000000027,61.084408495432583663
0.188000000000000028,59.968187280653623361
0.189000000000000029,58.864513962345100140
0.190000000000000030,57.772868582600963805
0.191000000000000031,56.692907057267291293
0.192000000000000032,55.624445575217315252
0.193000000000000033,54.567441197102070305
0.194000000000000034,53.521970159098465558
0.195000000000000034,52.488205170923038168
0.196000000000000035,51.466392772915625642
0.197000000000000036,50.456831597094563335
0.198000000000000037,49.459852170759290857
0.199000000000000038,48.475798714371720166
0.200000000000000039,47.505013221488852082
0.201000000000000040,46.547821968897359568
0.202000000000000041,45.604524489811375076
0.203000000000000042,44.675384950969075248
0.204000000000000042,43.760625803927908350
0.205000000000000043,42.860423529593006720
0.206000000000000044,41.974906260573774830
0.207000000000000045,41.104153045846047121
0.208000000000000046,40.248194513948774897
0.209000000000000047,39.407014692261043365
0.210000000000000048,38.580553748668705794
0.211000000000000049,37.768711436261725112
0.212000000000000050,36.971351039950334894
0.213000000000000050,36.188303644656123481
0.214000000000000051,35.419372566845268580
0.215000000000000052,34.664337813678308464
0.216000000000000053,33.922960456197543522
0.217000000000000054,33.194986824180702456
0.218000000000000055,32.480152450136486664
0.219000000000000056,31.778185708111085006
0.220000000000000057,31.088811109332244342
0.221000000000000058,30.411752231154867587
0.222000000000000058,29.746734268264550138
0.223000000000000059,29.093486205694272684
0.224000000000000060,28.451742621990142368
0.225000000000000061,27.821245137948029225
0.226000000000000062,27.201743531867133896
0.227000000000000063,26.592996546382476453
0.228000000000000064,25.994772414802344684
0.229000000000000065,25.406849136644655829
0.230000000000000066,24.829014532895008927
0.231000000000000066,24.261066111543033941
0.232000000000000067,23.702810773332188887
0.233000000000000068,23.154064386508345308
0.234000000000000069,22.614651257788921157
0.235000000000000070,22.084403524902132432
0.236000000000000071,21.563160493955301433
0.237000000000000072,21.050767942661106957
0.238000000000000073,20.547077408151231737
0.239000000000000073,20.051945475793854001
0.240000000000000074,19.565233083152012483
0.241000000000000075,19.086804851014644413
0.242000000000000076,18.616528451329269700
0.243000000000000077,18.154274019888649860
0.244000000000000078,17.699913619790173414
0.245000000000000079,17.253320760006992884
0.246000000000000080,16.814369971890734234
0.247000000000000081,16.382936445067883824
0.248000000000000081,15.958895722997135991
0.249000000000000082,15.542123457416934684
0.250000000000000111,15.132495220025939275
0.251000000000000112,14.729886368997791024
0.252000000000000113,14.334171967323580787
0.253000000000000114,13.945226749495191143
0.254000000000000115,13.562925132675156092
0.255000000000000115,13.187141268237686731
0.256000000000000116,12.817749129396833752
0.257000000000000117,12.454622630553311424
0.258000000000000118,12.097635773980337959
0.259000000000000119,11.746662819520230059
0.260000000000000120,11.401578473069589492
0.261000000000000121,11.062258089782439185
0.262000000000000122,10.728577888108778993
0.263000000000000123,10.400415171004746995
0.264000000000000123,10.077648550891499468
0.265000000000000124,9.760158175198265340
0.266000000000000125,9.447825949594164996
0.267000000000000126,9.140535756289470015
0.268000000000000127,8.838173665064381623
0.269000000000000128,8.540628134960199347
0.270000000000000129,8.247790204838960193
0.271000000000000130,7.959553671281486054
0.272000000000000131,7.675815252548268575
0.273000000000000131,7.396474737570147617
0.274000000000000132,7.121435119165552052
0.275000000000000133,6.850602710896673386
0.276000000000000134,6.583887247177662161
0.277000000000000135,6.321201966433916297
0.278000000000000136,6.062463677280779173
0.279000000000000137,5.807592807844761396
0.280000000000000138,5.556513438489064427
0.281000000000000139,5.309153318328646343
0.282000000000000139,5.065443866029065489
0.283000000000000140,4.825320155477693440
0.284000000000000141,4.588720886996981108
0.285000000000000142,4.355588344837181047
0.286000000000000143,4.125868341741688816
0.287000000000000144,3.899510151422552529
0.288000000000000145,3.676466429816719117
0.289000000000000146,3.456693126017971629
0.290000000000000147,3.240149383793244020
0.291000000000000147,3.026797434599025394
0.292000000000000148,2.816602483011616087
0.293000000000000149,2.609532585477674083
0.294000000000000150,2.405558523276927652
0.295000000000000151,2.204653670570023927
0.296000000000000152,2.006793858380228279
0.297000000000000153,1.811957235330016402
0.298000000000000154,1.620124125922044245
0.299000000000000155,1.431276887119906860
0.300000000000000155,1.245399763947592664
0.301000000000000156,1.062478744788359020
0.302000000000000157,0.882501417023762058
0.303000000000000158,0.705456823613365924
0.304000000000000159,0.531335321174083330
0.305000000000000160,0.360128440076882106
0.306000000000000161,0.191828747037072228
0.307000000000000162,0.026429710633320513
0.308000000000000163,-0.136074429849849909
0.309000000000000163,-0.295688791901067560
0.310000000000000164,-0.452417973266380780
0.311000000000000165,-0.606266171160015910
0.312000000000000166,-0.757237296959283435
0.313000000000000167,-0.905335086176142889
0.314000000000000168,-1.050563203531380108
0.315000000000000169,-1.192925342989338278
0.316000000000000170,-1.332425322641435539
0.317000000000000171,-1.469067174355304095
0.318000000000000171,-1.602855228133393428
0.319000000000000172,-1.733794191150437980
0.320000000000000173,-1.861889221462467159
0.321000000000000174,-1.987145996402340797
0.322000000000000175,-2.109570775697018341
0.323000000000000176,-2.229170459360514833
0.324000000000000177,-2.345952640433707881
0.325000000000000178,-2.459925652657610762
0.326000000000000179,-2.571098613181204584
0.327000000000000179,-2.679481460417161287
0.328000000000000180,-2.785084987170455495
0.329000000000000181,-2.887920869174698701
0.330000000000000182,-2.988001689179637044
0.331000000000000183,-3.085340956741004170
0.332000000000000184,-3.179953123869988296
0.333000000000000185,-3.271853596705009970
0.334000000000000186,-3.361058743372718816
0.335000000000000187,-3.447585898208328281
0.336000000000000187,-3.531453362507982696
0.337000000000000188,-3.612680401987014456
0.338000000000000189,-3.691287241119195706
0.339000000000000190,-3.767295054531837106
0.340000000000000191,-3.840725955630886368
0.341000000000000192,-3.911602982629301728
0.342000000000000193,-3.979950082149822155
0.343000000000000194,-4.045792090571281641
0.344000000000000195,-4.109154713284479676
0.345000000000000195,-4.170064502020989217
0.346000000000000196,-4.228548830414210258
0.347000000000000197,-4.284635867948548338
0.348000000000000198,-4.338354552448222101
0.349000000000000199,-4.389734561252932821
0.350000000000000200,-4.438806281223063088
0.351000000000000201,-4.485600777712205556
0.352000000000000202,-4.530149762640010458
0.353000000000000203,-4.572485561793298459
0.354000000000000203,-4.612641081478315641
0.355000000000000204,-4.650649774641669509
0.356000000000000205,-4.686545606572487088
0.357000000000000206,-4.720363020293143919
0.358000000000000207,-4.752136901740285246
0.359000000000000208,-4.781902544833224411
0.360000000000000209,-4.809695616521296735
0.361000000000000210,-4.835552121896641964
0.362000000000000210,-4.859508369454047738
0.363000000000000211,-4.881600936574316485
0.364000000000000212,-4.901866635302965847
0.365000000000000213,-4.920342478491066096
0.366000000000000214,-4.937065646360601079
0.367000000000000215,-4.952073453551999016
0.368000000000000216,-4.965403316707281078
0.369000000000000217,-4.977092722637735278
0.370000000000000218,-4.987179197121137442
0.371000000000000218,-4.995700274369282212
0.372000000000000219,-5.002693467202909972
0.373000000000000220,-5.008196237967294628
0.374000000000000221,-5.012245970218177860
0.375000000000000222,-5.014879941204208436
0.376000000000000223,-5.016135295169011243
0.377000000000000224,-5.016049017492535178
0.378000000000000225,-5.014657909688525095
0.379000000000000226,-5.011998565272005379
0.380000000000000226,-5.008107346508070101
0.381000000000000227,-5.003020362050428105
0.382000000000000228,-4.996773445476042852
0.383000000000000229,-4.989402134719607140
0.384000000000000230,-4.980941652409535791
0.385000000000000231,-4.971426887105176107
0.386000000000000232,-4.960892375432824686
0.387000000000000233,-4.949372285116548476
0.388000000000000234,-4.936900398897900999
0.389000000000000234,-4.923510099337319978
0.390000000000000235,-4.909234354488258845
0.391000000000000236,-4.894105704433995285
0.392000000000000237,-4.878156248675624695
0.393000000000000238,-4.861417634358818241
0.394000000000000239,-4.843921045325588537
0.395000000000000240,-4.825697191976699330
0.396000000000000241,-4.806776301929212458
0.397000000000000242,-4.787188111452993056
0.398000000000000242,-4.766961857669411273
0.399000000000000243,-4.746126271494604865
0.400000000000000244,-4.724709571309380074
0.401000000000000245,-4.702739457337280271
0.402000000000000246,-4.680243106711786005
0.403000000000000247,-4.657247169213571070
0.404000000000000248,-4.633777763658202709
0.405000000000000249,-4.609860474914596828
0.406000000000000250,-4.585520351534303707
0.407000000000000250,-4.560781903971625084
0.408000000000000251,-4.535669103374488031
0.409000000000000252,-4.510205380925950358
0.410000000000000253,-4.484413627716286044
0.411000000000000254,-4.458316195125593850
0.412000000000000255,-4.431934895697017041
0.413000000000000256,-4.405291004480804240
0.414000000000000257,-4.378405260829500989
0.415000000000000258,-4.351297870624931896
0.416000000000000258,-4.323988508917648410
0.417000000000000259,-4.296496322959921343
0.418000000000000260,-4.268839935613542025
0.419000000000000261,-4.241037449113996161
0.420000000000000262,-4.213106449172874690
0.421000000000000263,-4.185064009400768725
0.422000000000000264,-4.156926696033094615
0.423000000000000265,-4.128710572941783674
0.424000000000000266,-4.100431206916127280
0.425000000000000266,-4.072103673196265206
0.426000000000000267,-4.043742561243462319
0.427000000000000268,-4.015361980731451119
0.428000000000000269,-3.986975567743664239
0.429000000000000270,-3.958596491161595399
0.430000000000000271,-3.930237459229755537
0.431000000000000272,-3.901910726283350783
0.432000000000000273,-3.873628099625001653
0.433000000000000274,-3.845400946537377074
0.434000000000000274,-3.817240201418921508
0.435000000000000275,-3.789156373030379221
0.436000000000000276,-3.761159551840107529
0.437000000000000277,-3.733259417456671336
0.438000000000000278,-3.705465246137553237
0.439000000000000279,-3.677785918363301931
0.440000000000000280,-3.650229926466681540
0.441000000000000281,-3.622805382306955035
0.442000000000000282,-3.595520024979745877
0.443000000000000282,-3.568381228553207940
0.444000000000000283,-3.541396009821845325
0.445000000000000284,-3.514571036069439991
0.446000000000000285,-3.487912632833029214
0.447000000000000286,-3.461426791660362934
0.448000000000000287,-3.435119177853280803
0.449000000000000288,-3.408995138190189955
0.450000000000000289,-3.383059708620833383
0.451000000000000290,-3.357317621927088602
0.452000000000000290,-3.331773315343754316
0.453000000000000291,-3.306430938133593678
0.454000000000000292,-3.281294359111286862
0.455000000000000293,-3.256367174111117091
0.456000000000000294,-3.231652713393670329
0.457000000000000295,-3.207154048986959882
0.458000000000000296,-3.182874001957720633
0.459000000000000297,-3.158815149608948047
0.460000000000000298,-3.134979832599875227
0.461000000000000298,-3.111370161984993832
0.462000000000000299,-3.087988026168832612
0.463000000000000300,-3.064835097773502159
0.464000000000000301,-3.041912840416277852
0.465000000000000302,-3.019222515394651474
0.466000000000000303,-2.996765188276477865
0.467000000000000304,-2.974541735393175124
0.468000000000000305,-2.952552850233962189
0.469000000000000306,-2.930799049739420958
0.470000000000000306,-2.909280680492896121
0.471000000000000307,-2.887997924808198391
0.472000000000000308,-2.866950806712563082
0.473000000000000309,-2.846139197823707168
0.474000000000000310,-2.825562823120145062
0.475000000000000311,-2.805221266603967756
0.476000000000000312,-2.785113976855591922
0.477000000000000313,-2.765240272479869255
0.478000000000000314,-2.745599347443330007
0.479000000000000314,-2.726190276302342674
0.480000000000000315,-2.707012019322035279
0.481000000000000316,-2.688063427486097279
0.482000000000000317,-2.669343247397505170
0.483000000000000318,-2.650850126070477319
0.484000000000000319,-2.632582615613936472
0.485000000000000320,-2.614539177806953774
0.486000000000000321,-2.596718188566643715
0.487000000000000322,-2.579117942309141931
0.488000000000000322,-2.561736656204270712
0.489000000000000323,-2.544572474324746203
0.490000000000000324,-2.527623471690646717
0.491000000000000325,-2.510887658210061879
0.492000000000000326,-2.494362982516836524
0.493000000000000327,-2.478047335706462295
0.494000000000000328,-2.461938554971091264
0.495000000000000329,-2.446034427134839095
0.496000000000000330,-2.430332692090450664
0.497000000000000330,-2.414831046138614212
0.498000000000000331,-2.399527145231003633
0.499000000000000332,-2.384418608118482386
0.500000000000000333,-2.369503019405637456
0.501000000000000334,-2.354777932512980954
0.502000000000000335,-2.340240872548244422
0.503000000000000336,-2.325889339088057728
0.504000000000000337,-2.311720808871458921
0.505000000000000338,-2.297732738406622843
0.506000000000000338,-2.283922566492269546
0.507000000000000339,-2.270287716655173593
0.508000000000000340,-2.256825599505223767
0.509000000000000341,-2.243533615009580817
0.510000000000000342,-2.230409154687283735
0.511000000000000343,-2.217449603725920593
0.512000000000000344,-2.204652343021746841
0.513000000000000345,-2.192014751144800933
0.514000000000000346,-2.179534206230527182
0.515000000000000346,-2.167208087799325611
0.516000000000000347,-2.155033778505577313
0.517000000000000348,-2.143008665817655700
0.518000000000000349,-2.131130143630309615
0.519000000000000350,-2.119395613811013934
0.520000000000000351,-2.107802487681659454
0.521000000000000352,-2.096348187437129251
0.522000000000000353,-2.085030147502140885
0.523000000000000353,-2.073845815827838557
0.524000000000000354,-2.062792655129581210
0.525000000000000355,-2.051868144067304112
0.526000000000000356,-2.041069778369883458
0.527000000000000357,-2.030395071904937954
0.528000000000000358,-2.019841557695340128
0.529000000000000359,-2.009406788883965511
0.530000000000000360,-1.999088339647851598
0.531000000000000361,-1.988883806063243664
0.532000000000000361,-1.978790806922766210
0.533000000000000362,-1.968806984506060287
0.534000000000000363,-1.958930005305133504
0.535000000000000364,-1.949157560705739201
0.536000000000000365,-1.939487367625975622
0.537000000000000366,-1.929917169113400277
0.538000000000000367,-1.920444734901776140
0.539000000000000368,-1.911067861928779310
0.540000000000000369,-1.901784374815680634
0.541000000000000369,-1.892592126310313150
0.542000000000000370,-1.883488997694311440
0.543000000000000371,-1.874472899155858796
0.544000000000000372,-1.865541770128972932
0.545000000000000373,-1.856693579600416033
0.546000000000000374,-1.847926326385291418
0.547000000000000375,-1.839238039372353528
0.548000000000000376,-1.830626777740072431
0.549000000000000377,-1.822090631144404727
0.550000000000000377,-1.813627719879294720
0.551000000000000378,-1.805236195010810452
0.552000000000000379,-1.796914238485915360
0.553000000000000380,-1.788660063216729768
0.554000000000000381,-1.780471913141200790
0.555000000000000382,-1.772348063261112161
0.556000000000000383,-1.764286819658166694
0.557000000000000384,-1.756286519489146603
0.558000000000000385,-1.748345530960804695
0.559000000000000385,-1.740462253285425920
0.560000000000000386,-1.732635116617752047
0.561000000000000387,-1.724862581974081932
0.562000000000000388,-1.717143141134259920
0.563000000000000389,-1.709475316527318212
0.564000000000000390,-1.701857661101450647
0.565000000000000391,-1.694288758179021359
0.566000000000000392,-1.686767221297281072
0.567000000000000393,-1.679291694035474292
0.568000000000000393,-1.671860849828921136
0.569000000000000394,-1.664473391770743715
0.570000000000000395,-1.657128052401856122
0.571000000000000396,-1.649823593489730289
0.572000000000000397,-1.642558805796628274
0.573000000000000398,-1.635332508837744614
0.574000000000000399,-1.628143550629892911
0.575000000000000400,-1.620990807431200498
0.576000000000000401,-1.613873183472347206
0.577000000000000401,-1.606789610679889790
0.578000000000000402,-1.599739048392061047
0.579000000000000403,-1.592720483067580961
0.580000000000000404,-1.585732927987952845
0.581000000000000405,-1.578775422953594409
0.582000000000000406,-1.571847033974341112
0.583000000000000407,-1.564946852954644640
0.584000000000000408,-1.558073997373928821
0.585000000000000409,-1.551227609962460452
0.586000000000000409,-1.544406858373112090
0.587000000000000410,-1.537610934849410249
0.588000000000000411,-1.530839055890159228
0.589000000000000412,-1.524090461911068006
0.590000000000000413,-1.517364416903607793
0.591000000000000414,-1.510660208091502144
0.592000000000000415,-1.503977145585120079
0.593000000000000416,-1.497314562034041563
0.594000000000000417,-1.490671812278130393
0.595000000000000417,-1.484048272997382290
0.596000000000000418,-1.477443342360736267
0.597000000000000419,-1.470856439674235627
0.598000000000000420,-1.464287005028647837
0.599000000000000421,-1.457734498946885449
0.600000000000000422,-1.451198402031389723
0.601000000000000423,-1.444678214611707423
0.602000000000000424,-1.438173456392497496
0.603000000000000425,-1.431683666102139041
0.604000000000000425,-1.425208401142125325
0.605000000000000426,-1.418747237237454550
0.606000000000000427,-1.412299768088210339
0.607000000000000428,-1.405865605022380560
0.608000000000000429,-1.399444376650302413
0.609000000000000430,-1.393035728520603866
0.610000000000000431,-1.386639322778053796
0.611000000000000432,-1.380254837823275516
0.612000000000000433,-1.373881967974529328
0.613000000000000433,-1.367520423131712848
