# TungstenDisulfide-001_CS-7720-AC
# h[nm],U(h)[kJ/mol]
0.149999999999999994,97.532494810587678558
0.150999999999999995,94.246324117642757301
0.151999999999999996,92.182487920429608153
0.152999999999999997,90.408363913108630072
0.153999999999999998,88.579652973661694659
0.154999999999999999,86.629132447852882137
0.156000000000000000,84.598422779112155467
0.157000000000000001,82.554014920284842560
0.158000000000000002,80.550894533635343464
0.159000000000000002,78.621445250134456728
0.160000000000000003,76.776485094046520885
0.161000000000000004,75.011039954612485303
0.162000000000000005,73.310972925277809509
0.163000000000000006,71.658665994186677040
0.164000000000000007,70.037121423582931357
0.165000000000000008,68.432462820490130184
0.166000000000000009,66.835096167677548351
0.167000000000000010,65.239882549674774737
0.168000000000000010,63.645666180712701987
0.169000000000000011,62.054447322718182534
0.170000000000000012,60.470420687784724123
0.171000000000000013,58.899032556254255155
0.172000000000000014,57.346151982870921415
0.173000000000000015,55.817405868522790513
0.174000000000000016,54.317694285957770717
0.175000000000000017,52.850879812694266491
0.176000000000000018,51.419630747620182376
0.177000000000000018,50.025390912108775865
0.178000000000000019,48.668446392727403804
0.179000000000000020,47.348060498648912642
0.180000000000000021,46.062651134008078202
0.181000000000000022,44.809988779967326877
0.182000000000000023,43.587397664585424195
0.183000000000000024,42.391947009919931588
0.184000000000000025,41.220623195333985223
0.185000000000000026,40.070477102728361274
0.186000000000000026,38.938743745403250784
0.187000000000000027,37.822933523469842498
0.188000000000000028,36.720896132430183911
0.189000000000000029,35.630859339109854034
0.190000000000000030,34.551445603589584721
0.191000000000000031,33.481669943112521537
0.192000000000000032,32.420922577284720489
0.193000000000000033,31.368939830006041802
0.194000000000000034,30.325766550967408364
0.195000000000000034,29.291713007703407357
0.196000000000000035,28.267308828616343419
0.197000000000000036,27.253256180187612756
0.198000000000000037,26.250383962307541452
0.199000000000000038,25.259604422251975109
0.200000000000000039,24.281873232746200131
0.201000000000000040,23.318153760664419138
0.202000000000000041,22.369385974480060497
0.203000000000000042,21.436460202065624969
0.204000000000000042,20.520195755202387033
0.205000000000000043,19.621324281071103712
0.206000000000000044,18.740477580915090527
0.207000000000000045,17.878179548257882914
0.208000000000000046,17.034841819474571878
0.209000000000000047,16.210762694057411437
0.210000000000000048,15.406128866588057136
0.211000000000000049,14.621019513471917861
0.212000000000000050,13.855412291450983631
0.213000000000000050,13.109190828702812937
0.214000000000000051,12.382153320234625227
0.215000000000000052,11.674021874960706313
0.216000000000000053,10.984452300337535391
0.217000000000000054,10.313044050097301962
0.218000000000000055,9.659350100157510610
0.219000000000000056,9.022886556164220195
0.220000000000000057,8.403141832568083558
0.221000000000000058,7.799585277080296919
0.222000000000000058,7.211675145422256961
0.223000000000000059,6.638865859254368118
0.224000000000000060,6.080614504939855891
0.225000000000000061,5.536386552376994175
0.226000000000000062,5.005660791598620207
0.227000000000000063,4.487933500334555958
0.228000000000000064,3.982721868447401281
0.229000000000000065,3.489566715299454280
0.230000000000000066,3.008034543925265147
0.231000000000000066,2.537718981609265345
0.232000000000000067,2.078241660347900588
0.233000000000000068,1.629252592946231371
0.234000000000000069,1.190430101390344664
0.235000000000000070,0.761480353863856263
0.236000000000000071,0.342136565540709647
0.237000000000000072,-0.067842083730981356
0.238000000000000073,-0.468671764369237187
0.239000000000000073,-0.860545497232793166
0.240000000000000074,-1.243634795070459820
0.241000000000000075,-1.618091404933089450
0.242000000000000076,-1.984049115005167563
0.243000000000000077,-2.341625593118835447
0.244000000000000078,-2.690924227985234563
0.245000000000000079,-3.032035947860067804
0.246000000000000080,-3.365040994904548999
0.247000000000000081,-3.690010636876059458
0.248000000000000081,-4.007008800954741545
0.249000000000000082,-4.316093617466277621
0.250000000000000111,-4.617318863984126054
0.251000000000000112,-4.910735302779171363
0.252000000000000113,-5.196391906831672181
0.253000000000000114,-5.474336971628123827
0.254000000000000115,-5.744619111745178586
0.255000000000000115,-6.007288142777015949
0.256000000000000116,-6.262395850506322859
0.257000000000000117,-6.509996650361808967
0.258000000000000118,-6.750148141160380533
0.259000000000000119,-6.982911557914493805
0.260000000000000120,-7.208352129108082984
0.261000000000000121,-7.426539344321457570
0.262000000000000122,-7.637547138432609017
0.263000000000000123,-7.841453998850823837
0.264000000000000123,-8.038343002363992795
0.265000000000000124,-8.228301788214043455
0.266000000000000125,-8.411422473969391689
0.267000000000000126,-8.587801520648863374
0.268000000000000127,-8.757539553380254915
0.269000000000000128,-8.920741143656467642
0.270000000000000129,-9.077514558993627247
0.271000000000000130,-9.227971485505802818
0.272000000000000131,-9.372226728597320644
0.273000000000000131,-9.510397896643160820
0.274000000000000132,-9.642605072185867598
0.275000000000000133,-9.768970474829682615
0.276000000000000134,-9.889618119662781481
0.277000000000000135,-10.004673474690914503
0.278000000000000136,-10.114263120424535458
0.279000000000000137,-10.218514414427644965
0.280000000000000138,-10.317555163314187539
0.281000000000000139,-10.411513304368101629
0.282000000000000139,-10.500516598667029911
0.283000000000000140,-10.584692337309782317
0.284000000000000141,-10.664167062083027560
0.285000000000000142,-10.739066301655658009
0.286000000000000143,-10.809514324158762122
0.287000000000000144,-10.875633906795910022
0.288000000000000145,-10.937546122932936044
0.289000000000000146,-10.995370146936609856
0.290000000000000147,-11.049223076869660431
0.291000000000000147,-11.099219775002557853
0.292000000000000148,-11.145472725971833583
0.293000000000000149,-11.188091912298041564
0.294000000000000150,-11.227184706874684395
0.295000000000000151,-11.262855781950570133
0.296000000000000152,-11.295207034051852446
0.297000000000000153,-11.324337524225958518
0.298000000000000154,-11.350343432936133681
0.299000000000000155,-11.373318028892445142
0.300000000000000155,-11.393351651071547792
0.301000000000000156,-11.410531703152484440
0.302000000000000157,-11.424942659579098603
0.303000000000000158,-11.436666082449590931
0.304000000000000159,-11.445780648430915249
0.305000000000000160,-11.452362184897722841
0.306000000000000161,-11.456483714503949756
0.307000000000000162,-11.458215507407127021
0.308000000000000163,-11.457625140381869855
0.309000000000000163,-11.454777562079058839
0.310000000000000164,-11.449735163709874541
0.311000000000000165,-11.442557854459209921
0.312000000000000166,-11.433303140960457966
0.313000000000000167,-11.422026210192697704
0.314000000000000168,-11.408780015191677393
0.315000000000000169,-11.393615362997358886
0.316000000000000170,-11.376581004293026211
0.317000000000000171,-11.357723724223017570
0.318000000000000171,-11.337088433909038088
0.319000000000000172,-11.314718262217434486
0.320000000000000173,-11.290654647362007523
0.321000000000000174,-11.264937427958697569
0.322000000000000175,-11.237604933179833111
0.323000000000000176,-11.208694071685906479
0.324000000000000177,-11.178240419042646536
0.325000000000000178,-11.146278303359611783
0.326000000000000179,-11.112840888914528037
0.327000000000000179,-11.077960257553904455
0.328000000000000180,-11.041667487685909776
0.329000000000000181,-11.003992730706219305
0.330000000000000182,-10.964965284719932370
0.331000000000000183,-10.924613665445251698
0.332000000000000184,-10.882965674204694295
0.333000000000000185,-10.840048462929532391
0.334000000000000186,-10.795888596120949643
0.335000000000000187,-10.750512109728806109
0.336000000000000187,-10.703944566924457504
0.337000000000000188,-10.656211110758935234
0.338000000000000189,-10.607336513711267401
0.339000000000000190,-10.557345224144318863
0.340000000000000191,-10.506261409696607600
0.341000000000000192,-10.454108997649445456
0.342000000000000193,-10.400911712317565616
0.343000000000000194,-10.346693109520378684
0.344000000000000195,-10.291476608198076192
0.345000000000000195,-10.235285519243898733
0.346000000000000196,-10.178143071629435212
0.347000000000000197,-10.120072435905056452
0.348000000000000198,-10.061096745162007693
0.349000000000000199,-10.001239113546137816
0.350000000000000200,-9.940522652416573735
0.351000000000000201,-9.878970484244749883
0.352000000000000202,-9.816605754351304114
0.353000000000000203,-9.753451640579555715
0.354000000000000203,-9.689531361005194299
0.355000000000000204,-9.624868179782028577
0.356000000000000205,-9.559485411223889173
0.357000000000000206,-9.493406422222232521
0.358000000000000207,-9.426654633098033642
0.359000000000000208,-9.359253516985997834
0.360000000000000209,-9.291226597847188629
0.361000000000000210,-9.222597447205037824
0.362000000000000210,-9.153389679697486514
0.363000000000000211,-9.083626947536243890
0.364000000000000212,-9.013332933961802240
0.365000000000000213,-8.942531345780411201
0.366000000000000214,-8.871245905066864168
0.367000000000000215,-8.799500340114123631
0.368000000000000216,-8.727318375708309262
0.369000000000000217,-8.654723722804542163
0.370000000000000218,-8.581740067676502548
0.371000000000000218,-8.508391060609451273
0.372000000000000219,-8.434700304203662569
0.373000000000000220,-8.360691341352261219
0.374000000000000221,-8.286387642954410993
0.375000000000000222,-8.211812595421864813
0.376000000000000223,-8.136989488034085838
0.377000000000000224,-8.061941500194020449
0.378000000000000225,-7.986691688633927200
0.379000000000000226,-7.911262974617602417
0.380000000000000226,-7.835678131182876704
0.381000000000000227,-7.759959770465060913
0.382000000000000228,-7.684130331139838788
0.383000000000000229,-7.608212066021143194
0.384000000000000230,-7.532227029846973565
0.385000000000000231,-7.456197067284037416
0.386000000000000232,-7.380143801179140262
0.387000000000000233,-7.304088621083373312
0.388000000000000234,-7.228052672072547757
0.389000000000000234,-7.152056843885501003
0.390000000000000235,-7.076121760399397331
0.391000000000000236,-7.000267769459554756
0.392000000000000237,-6.924514933078988577
0.393000000000000238,-6.848883018021385105
0.394000000000000239,-6.773391486779145154
0.395000000000000240,-6.698059488956634944
0.396000000000000241,-6.622905853067114101
0.397000000000000242,-6.547949078750207264
0.398000000000000242,-6.473207329415532563
0.399000000000000243,-6.398698425316454497
0.400000000000000244,-6.324439837056808678
0.401000000000000245,-6.250448679532266461
0.402000000000000246,-6.176741706306655644
0.403000000000000247,-6.103335304422562224
0.404000000000000248,-6.030245489644642021
0.405000000000000249,-5.957487902132955426
0.406000000000000250,-5.885077802542760139
0.407000000000000250,-5.813030068546556350
0.408000000000000251,-5.741359191773137916
0.409000000000000252,-5.670079275157998921
0.410000000000000253,-5.599204030698514245
0.411000000000000254,-5.528746777606970753
0.412000000000000255,-5.458720440853792155
0.413000000000000256,-5.389137550092954143
0.414000000000000257,-5.320010238960994897
0.415000000000000258,-5.251350244740825346
0.416000000000000258,-5.183168908380984874
0.417000000000000259,-5.115477174860819432
0.418000000000000260,-5.048285593891771228
0.419000000000000261,-4.981604320944628128
0.420000000000000262,-4.915443118592533800
0.421000000000000263,-4.849811358159353603
0.422000000000000264,-4.784718021662731857
0.423000000000000265,-4.720171704041243643
0.424000000000000266,-4.656180615654990085
0.425000000000000266,-4.592752585048695657
0.426000000000000267,-4.529895061966665359
0.427000000000000268,-4.467615120608725121
0.428000000000000269,-4.405919463116430457
0.429000000000000270,-4.344814423278852367
0.430000000000000271,-4.284305970447224610
0.431000000000000272,-4.224399713647977173
0.432000000000000273,-4.165100905883660332
0.433000000000000274,-4.106414448611466206
0.434000000000000274,-4.048344896389062697
0.435000000000000275,-3.990896461677800211
0.436000000000000276,-3.934073019793315584
0.437000000000000277,-3.877878113993796116
0.438000000000000278,-3.822314960696406416
0.439000000000000279,-3.767386454812484686
0.440000000000000280,-3.713095175192311359
0.441000000000000281,-3.659443390170513233
0.442000000000000282,-3.606433063203358991
0.443000000000000282,-3.554065858589313898
0.444000000000000283,-3.502343147264630030
0.445000000000000284,-3.451266012665797689
0.446000000000000285,-3.400835256650905247
0.447000000000000286,-3.351051405472460942
0.448000000000000287,-3.301914715793955679
0.449000000000000288,-3.253425180743231948
0.450000000000000289,-3.205582535995497917
0.451000000000000290,-3.158386265879338239
0.452000000000000290,-3.111835609499216559
0.453000000000000291,-3.065929566868112133
0.454000000000000292,-3.020666905044364192
0.455000000000000293,-2.976046164266755945
0.456000000000000294,-2.932065664082379453
0.457000000000000295,-2.888723509461814221
0.458000000000000296,-2.846017596896513346
0.459000000000000297,-2.803945620473453637
0.460000000000000298,-2.762505077922325025
0.461000000000000298,-2.721693276630784641
0.462000000000000299,-2.681507339623460773
0.463000000000000300,-2.641944211500605544
0.464000000000000301,-2.603000664332545622
0.465000000000000302,-2.564673303506251223
0.466000000000000303,-2.526958573520480478
0.467000000000000304,-2.489852763726228879
0.468000000000000305,-2.453352014009417381
0.469000000000000306,-2.417452320412777134
0.470000000000000306,-2.382149540694325385
0.471000000000000307,-2.347439399819676087
0.472000000000000308,-2.313317495385963873
0.473000000000000309,-2.279779302974967337
0.474000000000000310,-2.246820181433459407
0.475000000000000311,-2.214435378078776662
0.476000000000000312,-2.182620033827940453
0.477000000000000313,-2.151369188248518860
0.478000000000000314,-2.120677784529908294
0.479000000000000314,-2.090540674373611019
0.480000000000000315,-2.060952622801244694
0.481000000000000316,-2.031908312879303846
0.482000000000000317,-2.003402350359574147
0.483000000000000318,-1.975429268234466296
0.484000000000000319,-1.947983531206444185
0.485000000000000320,-1.921059540071013760
0.486000000000000321,-1.894651636012685270
0.487000000000000322,-1.868754104813534100
0.488000000000000322,-1.843361180974025348
0.489000000000000323,-1.818467051745927376
0.490000000000000324,-1.794065861077140056
0.491000000000000325,-1.770151713468430144
0.492000000000000326,-1.746718677742082448
0.493000000000000327,-1.723760790722638436
0.494000000000000328,-1.701272060829883470
0.495000000000000329,-1.679246471584364908
0.496000000000000330,-1.657677985025791001
0.497000000000000330,-1.636560545044706272
0.498000000000000331,-1.615888080627893020
0.499000000000000332,-1.595654509018088030
0.500000000000000333,-1.575853738788524527
0.501000000000000334,-1.556479672832970396
0.502000000000000335,-1.537526211271950327
0.503000000000000336,-1.518987254275887988
0.504000000000000337,-1.500856704805909381
0.505000000000000338,-1.483128471273176485
0.506000000000000338,-1.465796470117569639
0.507000000000000339,-1.448854628306625481
0.508000000000000340,-1.432296885755649285
0.509000000000000341,-1.416117197669984007
0.510000000000000342,-1.400309536810386835
0.511000000000000343,-1.384867895682550643
0.512000000000000344,-1.369786288651798412
0.513000000000000345,-1.355058753984013098
0.514000000000000346,-1.340679355813899853
0.515000000000000346,-1.326642186041646188
0.516000000000000347,-1.312941366159109169
0.517000000000000348,-1.299571049006710499
0.518000000000000349,-1.286525420462078184
0.519000000000000350,-1.273798701061689354
0.520000000000000351,-1.261385147556636444
0.521000000000000352,-1.249279054403687583
0.522000000000000353,-1.237474755192833786
0.523000000000000353,-1.225966624012489570
0.524000000000000354,-1.214749076753579349
0.525000000000000355,-1.203816572353647141
0.526000000000000356,-1.193163613982212601
0.527000000000000357,-1.182784750168596855
0.528000000000000358,-1.172674575873329017
0.529000000000000359,-1.162827733504429251
0.530000000000000360,-1.153238913879667482
0.531000000000000361,-1.143902857136048334
0.532000000000000361,-1.134814353587653590
0.533000000000000362,-1.125968244533067875
0.534000000000000363,-1.117359423013507547
0.535000000000000364,-1.108982834522843186
0.536000000000000365,-1.100833477670673632
0.537000000000000366,-1.092906404799576903
0.538000000000000367,-1.085196722557680182
0.539000000000000368,-1.077699592427709074
0.540000000000000369,-1.070410231213562380
0.541000000000000369,-1.063323911485598350
0.542000000000000370,-1.056435961985672467
0.543000000000000371,-1.049741767993010111
0.544000000000000372,-1.043236771652034545
0.545000000000000373,-1.036916472263146316
0.546000000000000374,-1.030776426537530543
0.547000000000000375,-1.024812248817012605
0.548000000000000376,-1.019019611260010061
0.549000000000000377,-1.013394243994536037
0.550000000000000377,-1.007931935239264387
0.551000000000000378,-1.002628531393660705
0.552000000000000379,-0.997479937098082692
0.553000000000000380,-0.992482115264856746
0.554000000000000381,-0.987631087081201620
0.555000000000000382,-0.982922931984980708
0.556000000000000383,-0.978353787614106962
0.557000000000000384,-0.973919849730564335
0.558000000000000385,-0.969617372119849441
0.559000000000000385,-0.965442666466744370
0.560000000000000386,-0.961392102208196375
0.561000000000000387,-0.957462106364199705
0.562000000000000388,-0.953649163347426332
0.563000000000000389,-0.949949814752436561
0.564000000000000390,-0.946360659125224601
0.565000000000000391,-0.942878351713876128
0.566000000000000392,-0.939499604201069261
0.567000000000000393,-0.936221184419171570
0.568000000000000393,-0.933039916048611695
0.569000000000000394,-0.929952678300274171
0.570000000000000395,-0.926956405582559428
0.571000000000000396,-0.924048087153797937
0.572000000000000397,-0.921224766760689762
0.573000000000000398,-0.918483542263365926
0.574000000000000399,-0.915821565247749825
0.575000000000000400,-0.913236040625784229
0.576000000000000401,-0.910724226224147282
0.577000000000000401,-0.908283432362038567
0.578000000000000402,-0.905911021418595475
0.579000000000000403,-0.903604407390479536
0.580000000000000404,-0.901361055440215608
0.581000000000000405,-0.899178481435771282
0.582000000000000406,-0.897054251481898879
0.583000000000000407,-0.894985981443758738
0.584000000000000408,-0.892971336463282306
0.585000000000000409,-0.891008030468763423
0.586000000000000409,-0.889093825678150984
0.587000000000000410,-0.887226532096464182
0.588000000000000411,-0.885404007007781990
0.589000000000000412,-0.883624154462239964
0.590000000000000413,-0.881884924758417399
0.591000000000000414,-0.880184313921544059
0.592000000000000415,-0.878520363177898389
0.593000000000000416,-0.876891158425773698
0.594000000000000417,-0.875294829703387345
0.595000000000000417,-0.873729550654079867
0.596000000000000418,-0.872193537989138457
0.597000000000000419,-0.870685050948606154
0.598000000000000420,-0.869202390760360544
0.599000000000000421,-0.867743900097801890
0.600000000000000422,-0.866307962536446596
0.601000000000000423,-0.864893002009705647
0.602000000000000424,-0.863497482264140581
0.603000000000000425,-0.862119906314478768
0.604000000000000425,-0.860758815898620910
0.605000000000000426,-0.859412790932920445
0.606000000000000427,-0.858080448967994180
0.607000000000000428,-0.856760444645221164
0.608000000000000429,-0.855451469154298927
0.609000000000000430,-0.854152249691897181
0.610000000000000431,-0.852861548921798329
0.611000000000000432,-0.851578164436593177
