# TungstenDisulfide-001_CHOL-JS
# h[nm],U(h)[kJ/mol]
0.149999999999999994,122.798278179162181800
0.150999999999999995,119.415964802215896157
0.151999999999999996,117.476463501180234061
0.152999999999999997,115.867694780668358590
0.153999999999999998,114.174446866579842208
0.154999999999999999,112.313226222719549696
0.156000000000000000,110.333204940654383108
0.157000000000000001,108.315668904307855769
0.158000000000000002,106.329575185721324715
0.159000000000000002,104.417258445341232687
0.160000000000000003,102.594877379591665090
0.161000000000000004,100.858842099812719084
0.162000000000000005,99.193555519952511190
0.163000000000000006,97.578241639330485668
0.164000000000000007,95.992025085734184131
0.165000000000000008,94.417167930996214409
0.166000000000000009,92.840720881997981451
0.167000000000000010,91.254972302964759479
0.168000000000000010,89.657083884393344420
0.169000000000000011,88.048249183210174351
0.170000000000000012,86.432637495630359581
0.171000000000000013,84.816310756787515857
0.172000000000000014,83.206235330673123940
0.173000000000000015,81.609457532744187347
0.174000000000000016,80.032471979602973988
0.175000000000000017,78.480784102098994026
0.176000000000000018,76.958650364040778413
0.177000000000000018,75.468969709117502020
0.178000000000000019,74.013295470906484752
0.179000000000000020,72.591936672744878933
0.180000000000000021,71.204119899547322348
0.181000000000000022,69.848186652808095687
0.182000000000000023,68.521805503360752709
0.183000000000000024,67.222182876397923224
0.184000000000000025,65.946260575218104805
0.185000000000000026,64.690891957357166575
0.186000000000000026,63.452991911068082231
0.187000000000000027,62.229658409923501949
0.188000000000000028,61.018265468067035329
0.189000000000000029,59.816528829265507738
0.190000000000000030,58.622546767435402160
0.191000000000000031,57.434819029532818035
0.192000000000000032,56.252247288195505348
0.193000000000000033,55.074120561174524369
0.194000000000000034,53.900088959953748713
0.195000000000000034,52.730128905002196404
0.196000000000000035,51.564502634933532477
0.197000000000000036,50.403714477976159003
0.198000000000000037,49.248465975224711144
0.199000000000000038,48.099611567813099100
0.200000000000000039,46.958116200100811000
0.201000000000000040,45.825015858879943664
0.202000000000000041,44.701381771118846586
0.203000000000000042,43.588288723277486270
0.204000000000000042,42.486787744716806969
0.205000000000000043,41.397883215322913486
0.206000000000000044,40.322514311024896472
0.207000000000000045,39.261540587416490666
0.208000000000000046,38.215731417696616745
0.209000000000000047,37.185758942903831326
0.210000000000000048,36.172194156182939651
0.211000000000000049,35.175505724965930199
0.212000000000000050,34.196061152070164724
0.213000000000000050,33.234129885710636643
0.214000000000000051,32.289888006504249063
0.215000000000000052,31.363424144281758288
0.216000000000000053,30.454746306818872625
0.217000000000000054,29.563789334688284072
0.218000000000000055,28.690422729861079887
0.219000000000000056,27.834458639270916791
0.220000000000000057,26.995659807369662531
0.221000000000000058,26.173747343050376202
0.222000000000000058,25.368408175668651694
0.223000000000000059,24.579302101916937318
0.224000000000000060,23.806068349775038939
0.225000000000000061,23.048331607574276347
0.226000000000000062,22.305707485358439612
0.227000000000000063,21.577807392257081887
0.228000000000000064,20.864242827617037079
0.229000000000000065,20.164629095313138407
0.230000000000000066,19.478588460156537110
0.231000000000000066,18.805752772828167707
0.232000000000000067,18.145765595488128952
0.233000000000000068,17.498283864348909589
0.234000000000000069,16.862979128251193828
0.235000000000000070,16.239538403834536950
0.236000000000000071,15.627664688433814177
0.237000000000000072,15.027077171520616616
0.238000000000000073,14.437511184503787121
0.239000000000000073,13.858717927144095228
0.240000000000000074,13.290464006846303135
0.241000000000000075,12.732530824784308976
0.242000000000000076,12.184713840282816122
0.243000000000000077,11.646821742208457451
0.244000000000000078,11.118675553385477528
0.245000000000000079,10.600107691304232915
0.246000000000000080,10.090961005686470031
0.247000000000000081,9.591087810846175898
0.248000000000000081,9.100348928273422899
0.249000000000000082,8.618612752492881057
0.250000000000000111,8.145754351026038620
0.251000000000000112,7.681654607229577714
0.252000000000000113,7.226199412896287200
0.253000000000000114,6.779278915796249194
0.254000000000000115,6.340786825798535808
0.255000000000000115,5.910619781849811183
0.256000000000000116,5.488676780885805684
0.257000000000000117,5.074858668709896214
0.258000000000000118,4.669067691981258150
0.259000000000000119,4.271207109701996352
0.260000000000000120,3.881180861969812490
0.261000000000000121,3.498893293259572435
0.262000000000000122,3.124248927101427320
0.263000000000000123,2.757152288726715916
0.264000000000000123,2.397507772042944740
0.265000000000000124,2.045219547167953955
0.266000000000000125,1.700191504689787525
0.267000000000000126,1.362327232814813938
0.268000000000000127,1.031530023612766467
0.269000000000000128,0.707702904657438792
0.270000000000000129,0.390748692486534543
0.271000000000000130,0.080570064458112906
0.272000000000000131,-0.222930354241460904
0.273000000000000131,-0.519849891488928351
0.274000000000000132,-0.810285719858168108
0.275000000000000133,-1.094334741624680474
0.276000000000000134,-1.372093469548151479
0.277000000000000135,-1.643657905618578940
0.278000000000000136,-1.909123419732126292
0.279000000000000137,-2.168584630046303197
0.280000000000000138,-2.422135286553649181
0.281000000000000139,-2.669868159210996517
0.282000000000000139,-2.911874931767131969
0.283000000000000140,-3.148246102248283051
0.284000000000000141,-3.379070890887581946
0.285000000000000142,-3.604437156123094788
0.286000000000000143,-3.824431319138903440
0.287000000000000144,-4.039138297285154167
0.288000000000000145,-4.248641446587177128
0.289000000000000146,-4.453022513438070540
0.290000000000000147,-4.652361595466858013
0.291000000000000147,-4.846737111481273175
0.292000000000000148,-5.036225780303693611
0.293000000000000149,-5.220902608246842824
0.294000000000000150,-5.400840884915219853
0.295000000000000151,-5.576112186965791473
0.296000000000000152,-5.746786389418305774
0.297000000000000153,-5.912931684070125371
0.298000000000000154,-6.074614604542988516
0.299000000000000155,-6.231900057468005905
0.300000000000000155,-6.384851359300983908
0.301000000000000156,-6.533530278251117984
0.302000000000000157,-6.677997080803102392
0.303000000000000158,-6.818310582313363177
0.304000000000000159,-6.954528201166974455
0.305000000000000160,-7.086706015990463570
0.306000000000000161,-7.214898825428283757
0.307000000000000162,-7.339160210005639229
0.308000000000000163,-7.459542595617717708
0.309000000000000163,-7.576097318204799258
0.310000000000000164,-7.688874689193825773
0.311000000000000165,-7.797924061309053911
0.312000000000000166,-7.903293894377983797
0.313000000000000167,-8.005031820782567920
0.314000000000000168,-8.103184710230184606
0.315000000000000169,-8.197798733543553595
0.316000000000000170,-8.288919425193673973
0.317000000000000171,-8.376591744324034750
0.318000000000000171,-8.460860134038941993
0.319000000000000172,-8.541768578752572338
0.320000000000000173,-8.619360659418360271
0.321000000000000174,-8.693679606481071076
0.322000000000000175,-8.764768350415639730
0.323000000000000176,-8.832669569737708670
0.324000000000000177,-8.897425736390957240
0.325000000000000178,-8.959079158435063306
0.326000000000000179,-9.017672019976789244
0.327000000000000179,-9.073246418303039462
0.328000000000000180,-9.125844398191352624
0.329000000000000181,-9.175507983388019539
0.330000000000000182,-9.222279205257882140
0.331000000000000183,-9.266200128623182763
0.332000000000000184,-9.307312874820256710
0.333000000000000185,-9.345659642014119584
0.334000000000000186,-9.381282722820852626
0.335000000000000187,-9.414224519296535476
0.336000000000000187,-9.444527555359851334
0.337000000000000188,-9.472234486722211244
0.338000000000000189,-9.497388108406035201
0.339000000000000190,-9.520031359937155102
0.340000000000000191,-9.540207328301740120
0.341000000000000192,-9.557959248762799120
0.342000000000000193,-9.573330503633853183
0.343000000000000194,-9.586364619110742780
0.344000000000000195,-9.597105260263736781
0.345000000000000195,-9.605596224294458807
0.346000000000000196,-9.611881432162155292
0.347000000000000197,-9.616004918684859959
0.348000000000000198,-9.618010821220611462
0.349000000000000199,-9.617943367033396029
0.350000000000000200,-9.615846859447781725
0.351000000000000201,-9.611765662894642404
0.352000000000000202,-9.605744186949046082
0.353000000000000203,-9.597826869459368027
0.354000000000000203,-9.588058158864662062
0.355000000000000204,-9.576482495794678584
0.356000000000000205,-9.563144294044681359
0.357000000000000206,-9.548087921014332125
0.358000000000000207,-9.531357677696721709
0.359000000000000208,-9.512997778301087948
0.360000000000000209,-9.493052329589133365
0.361000000000000210,-9.471565310001917481
0.362000000000000210,-9.448580548650820532
0.363000000000000211,-9.424141704242771311
0.364000000000000212,-9.398292244006576368
0.365000000000000213,-9.371075422683691869
0.366000000000000214,-9.342534261643383076
0.367000000000000215,-9.312711528178867937
0.368000000000000216,-9.281649715037616488
0.369000000000000217,-9.249391020235545824
0.370000000000000218,-9.215977327201750668
0.371000000000000218,-9.181450185296858635
0.372000000000000219,-9.145850790745154058
0.373000000000000220,-9.109219968017399083
0.374000000000000221,-9.071598151698188062
0.375000000000000222,-9.033025368868614180
0.376000000000000223,-8.993541222032421345
0.377000000000000224,-8.953184872610671974
0.378000000000000225,-8.911995025027446005
0.379000000000000226,-8.870009911406331327
0.380000000000000226,-8.827267276895208070
0.381000000000000227,-8.783804365633882227
0.382000000000000228,-8.739657907377475610
0.383000000000000229,-8.694864104785628101
0.384000000000000230,-8.649458621385750945
0.385000000000000231,-8.603476570216653130
0.386000000000000232,-8.556952503156502132
0.387000000000000233,-8.509920400937771134
0.388000000000000234,-8.462413663849613243
0.389000000000000234,-8.414465103126877565
0.390000000000000235,-8.366106933023118586
0.391000000000000236,-8.317370763563726399
0.392000000000000237,-8.268287593973759897
0.393000000000000238,-8.218887806774045401
0.394000000000000239,-8.169201162537584437
0.395000000000000240,-8.119256795297605578
0.396000000000000241,-8.069083208597282564
0.397000000000000242,-8.018708272170268714
0.398000000000000242,-7.968159219240571467
0.399000000000000243,-7.917462644429160257
0.400000000000000244,-7.866644502254215965
0.401000000000000245,-7.815730106211340456
0.402000000000000246,-7.764744128419232894
0.403000000000000247,-7.713710599816067770
0.404000000000000248,-7.662652910891287306
0.405000000000000249,-7.611593812937077708
0.406000000000000250,-7.560555419803536736
0.407000000000000250,-7.509559210141269148
0.408000000000000251,-7.458626030114837491
0.409000000000000252,-7.407776096570446889
0.410000000000000253,-7.357029000640979532
0.411000000000000254,-7.306403711771508824
0.412000000000000255,-7.255918582148273899
0.413000000000000256,-7.205591351514257781
0.414000000000000257,-7.155439152354238885
0.415000000000000258,-7.105478515432634978
0.416000000000000258,-7.055725375667186938
0.417000000000000259,-7.006195078321892034
0.418000000000000260,-6.956902385502614194
0.419000000000000261,-6.907861482939057218
0.420000000000000262,-6.859085987036886323
0.421000000000000263,-6.810588952184144951
0.422000000000000264,-6.762382878296170574
0.423000000000000265,-6.714479718583587164
0.424000000000000266,-6.666890887528294840
0.425000000000000266,-6.619627269052401175
0.426000000000000267,-6.572699224865648837
0.427000000000000268,-6.526116602977012349
0.428000000000000269,-6.479888746356472495
0.429000000000000270,-6.434024501733465407
0.430000000000000271,-6.388532228518545075
0.431000000000000272,-6.343419807835537938
0.432000000000000273,-6.298694651651423726
0.433000000000000274,-6.254363711991846486
0.434000000000000274,-6.210433490230320430
0.435000000000000275,-6.166910046439665116
0.436000000000000276,-6.123799008794547305
0.437000000000000277,-6.081105583014310589
0.438000000000000278,-6.038834561835749071
0.439000000000000279,-5.996990334505800213
0.440000000000000280,-5.955576896284391353
0.441000000000000281,-5.914597857948241888
0.442000000000000282,-5.874056455286675416
0.443000000000000282,-5.833955558580712797
0.444000000000000283,-5.794297682057424126
0.445000000000000284,-5.755084993311501584
0.446000000000000285,-5.716319322686517879
0.447000000000000286,-5.678002172608840326
0.448000000000000287,-5.640134726867080062
0.449000000000000288,-5.602717859830830704
0.450000000000000289,-5.565752145602234080
0.451000000000000290,-5.529237867094668246
0.452000000000000290,-5.493175025032934755
0.453000000000000291,-5.457563346869616083
0.454000000000000292,-5.422402295612741341
0.455000000000000293,-5.387691078559990743
0.456000000000000294,-5.353428655935124070
0.457000000000000295,-5.319613749422494209
0.458000000000000296,-5.286244850595779532
0.459000000000000297,-5.253320229237429473
0.460000000000000298,-5.220837941545434013
0.461000000000000298,-5.188795838224413259
0.462000000000000299,-5.157191572458184936
0.463000000000000300,-5.126022607761171912
0.464000000000000301,-5.095286225706384897
0.465000000000000302,-5.064979533527772304
0.466000000000000303,-5.035099471595026799
0.467000000000000304,-5.005642820759147682
0.468000000000000305,-4.976606209567220773
0.469000000000000306,-4.947986121345091526
0.470000000000000306,-4.919778901146829142
0.471000000000000307,-4.891980762569930974
0.472000000000000308,-4.864587794435581536
0.473000000000000309,-4.837595967333259139
0.474000000000000310,-4.811001140029259382
0.475000000000000311,-4.784799065738785551
0.476000000000000312,-4.758985398261527777
0.477000000000000313,-4.733555697980537325
0.478000000000000314,-4.708505437724642029
0.479000000000000314,-4.683830008494587638
0.480000000000000315,-4.659524725053176830
0.481000000000000316,-4.635584831380014315
0.482000000000000317,-4.612005505991276344
0.483000000000000318,-4.588781867125297786
0.484000000000000319,-4.565908977794683743
0.485000000000000320,-4.543381850705847214
0.486000000000000321,-4.521195453046916057
0.487000000000000322,-4.499344711145058184
0.488000000000000322,-4.477824514994293459
0.489000000000000323,-4.456629722655085502
0.490000000000000324,-4.435755164526890226
0.491000000000000325,-4.415195647494990716
0.492000000000000326,-4.394945958953038634
0.493000000000000327,-4.375000870702741906
0.494000000000000328,-4.355355142732156182
0.495000000000000329,-4.336003526874175229
0.496000000000000330,-4.316940770346736400
0.497000000000000330,-4.298161619176482873
0.498000000000000331,-4.279660821507381918
0.499000000000000332,-4.261433130796187463
0.500000000000000333,-4.243473308896350993
0.501000000000000334,-4.225776129032136730
0.502000000000000335,-4.208336378664832012
0.503000000000000336,-4.191148862252733309
0.504000000000000337,-4.174208403906820131
0.505000000000000338,-4.157509849943902935
0.506000000000000338,-4.141048071339147540
0.507000000000000339,-4.124817966079787901
0.508000000000000340,-4.108814461421935071
0.509000000000000341,-4.093032516052404368
0.510000000000000342,-4.077467122157331758
0.511000000000000343,-4.062113307399608964
0.512000000000000344,-4.046966136806906533
0.513000000000000345,-4.032020714572244202
0.514000000000000346,-4.017272185769007464
0.515000000000000346,-4.002715737982209809
0.516000000000000347,-3.988346602857943957
0.517000000000000348,-3.974160057572916571
0.518000000000000349,-3.960151426225801519
0.519000000000000350,-3.946316081152404287
0.520000000000000351,-3.932649444166377073
0.521000000000000352,-3.919146987727361253
0.522000000000000353,-3.905804236038324717
0.523000000000000353,-3.892616766073898393
0.524000000000000354,-3.879580208541548725
0.525000000000000355,-3.866690248777256755
0.526000000000000356,-3.853942627577476632
0.527000000000000357,-3.841333141969164533
0.528000000000000358,-3.828857645919478081
0.529000000000000359,-3.816512050986909710
0.530000000000000360,-3.804292326915467815
0.531000000000000361,-3.792194502173594994
0.532000000000000361,-3.780214664439397687
0.533000000000000362,-3.768348961033824107
0.534000000000000363,-3.756593599303336362
0.535000000000000364,-3.744944846953648376
0.536000000000000365,-3.733399032336051082
0.537000000000000366,-3.721952544687835207
0.538000000000000367,-3.710601834328259852
0.539000000000000368,-3.699343412811602949
0.540000000000000369,-3.688173853038608119
0.541000000000000369,-3.677089789327862235
0.542000000000000370,-3.666087917448366706
0.543000000000000371,-3.655164994614744423
0.544000000000000372,-3.644317839446380880
0.545000000000000373,-3.633543331891800676
0.546000000000000374,-3.622838413119572998
0.547000000000000375,-3.612200085376975345
0.548000000000000376,-3.601625411817711786
0.549000000000000377,-3.591111516299799966
0.550000000000000377,-3.580655583154883637
0.551000000000000378,-3.570254856930072496
0.552000000000000379,-3.559906642103483954
0.553000000000000380,-3.549608302774566848
0.554000000000000381,-3.539357262330261822
0.555000000000000382,-3.529151003088150329
0.556000000000000383,-3.518987065917476009
0.557000000000000384,-3.508863049839214820
0.558000000000000385,-3.498776611606018605
0.559000000000000385,-3.488725465263123660
0.560000000000000386,-3.478707381691071188
0.561000000000000387,-3.468720188131209081
0.562000000000000388,-3.458761767694811251
0.563000000000000389,-3.448830058856769742
0.564000000000000390,-3.438923054934595935
0.565000000000000391,-3.429038803553642545
0.566000000000000392,-3.419175406099300041
0.567000000000000393,-3.409331017156988164
0.568000000000000393,-3.399503843940637982
0.569000000000000394,-3.389692145710462512
0.570000000000000395,-3.379894233180727348
0.571000000000000396,-3.370108467918156769
0.572000000000000397,-3.360333261731752064
0.573000000000000398,-3.350567076054571380
0.574000000000000399,-3.340808421318210097
0.575000000000000400,-3.331055856320516373
0.576000000000000401,-3.321307987587172050
0.577000000000000401,-3.311563468727779735
0.578000000000000402,-3.301820999786895250
0.579000000000000403,-3.292079326590640509
0.580000000000000404,-3.282337240089451935
0.581000000000000405,-3.272593575697345436
0.582000000000000406,-3.262847212628339211
0.583000000000000407,-3.253097073230402536
0.584000000000000408,-3.243342122317462106
0.585000000000000409,-3.233581366499866050
0.586000000000000409,-3.223813853513752825
0.587000000000000410,-3.214038671549758419
0.588000000000000411,-3.204254948581399365
0.589000000000000412,-3.194461851693617849
0.590000000000000413,-3.184658586411740711
0.591000000000000414,-3.174844396031307525
0.592000000000000415,-3.165018560949069304
0.593000000000000416,-3.155180397995461128
0.594000000000000417,-3.145329259768919972
0.595000000000000417,-3.135464533972347478
0.596000000000000418,-3.125585642751914861
0.597000000000000419,-3.115692042038655796
0.598000000000000420,-3.105783220892939678
0.599000000000000421,-3.095858700852221368
0.600000000000000422,-3.085918035282221972
0.601000000000000423,-3.075960808731812435
0.602000000000000424,-3.065986636291825995
0.603000000000000425,-3.055995162958001110
0.604000000000000425,-3.045986062998249366
0.605000000000000426,-3.035959039324450437
0.606000000000000427,-3.025913822869001013
0.607000000000000428,-3.015850171966146576
0.608000000000000429,-3.005767871738504127
0.609000000000000430,-2.995666733488644429
0.610000000000000431,-2.985546594096141426
0.611000000000000432,-2.975407315420041776
0.612000000000000433,-2.965248783706968094
0.613000000000000433,-2.955070909004990920
