# TungstenDisulfide-001_BSAIV4
# h[nm],U(h)[kJ/mol]
0.149999999999999994,101.454313934156587607
0.150999999999999995,99.438977760720561605
0.151999999999999996,96.881670426906069338
0.152999999999999997,94.258632440295258448
0.153999999999999998,91.734837271332963837
0.154999999999999999,89.334149602958717651
0.156000000000000000,87.028745905185488141
0.157000000000000001,84.781990537316261225
0.158000000000000002,82.565743307462966527
0.159000000000000002,80.364605659793113546
0.160000000000000003,78.174283212667148746
0.161000000000000004,75.997963675655128668
0.162000000000000005,73.842650902046287342
0.163000000000000006,71.716272718511504536
0.164000000000000007,69.625773473151610915
0.165000000000000008,67.576105496558653840
0.166000000000000009,65.569915433688620965
0.167000000000000010,63.607699809262420843
0.168000000000000010,61.688229701378460845
0.169000000000000011,59.809088228603954462
0.170000000000000012,57.967210955088525282
0.171000000000000013,56.159360510130433397
0.172000000000000014,54.382499622976503417
0.173000000000000015,52.634050924861959686
0.174000000000000016,50.912048128467510821
0.175000000000000017,49.215192974413277227
0.176000000000000018,47.542837164563849228
0.177000000000000018,45.894909796759399967
0.178000000000000019,44.271809770054595390
0.179000000000000020,42.674280190049955763
0.180000000000000021,41.103278679300970566
0.181000000000000022,39.559854189826609172
0.182000000000000023,38.045037755592602480
0.183000000000000024,36.559751812609405874
0.184000000000000025,35.104740354826944326
0.185000000000000026,33.680520317570014299
0.186000000000000026,32.287353172515302902
0.187000000000000027,30.925234736106990141
0.188000000000000028,29.593900578314315197
0.189000000000000029,28.292844106225750522
0.190000000000000030,27.021344323051629033
0.191000000000000031,25.778500368094704243
0.192000000000000032,24.563270174422257242
0.193000000000000033,23.374510893538872125
0.194000000000000034,22.211019093655337997
0.195000000000000034,21.071569111266839514
0.196000000000000035,19.954948302835116891
0.197000000000000036,18.859988288700158421
0.198000000000000037,17.785591594401246596
0.199000000000000038,16.730753369084787607
0.200000000000000039,15.694578093697069576
0.201000000000000040,14.676291382855319867
0.202000000000000041,13.675247135202614146
0.203000000000000042,12.690930400534540468
0.204000000000000042,11.722956411730644177
0.205000000000000043,10.771066279691419609
0.206000000000000044,9.835119874396829331
0.207000000000000045,8.915086419150762609
0.208000000000000046,8.011033312131644379
0.209000000000000047,7.123113663300699727
0.210000000000000048,6.251552998916296566
0.211000000000000049,5.396635543348609509
0.212000000000000050,4.558690441142732475
0.213000000000000050,3.738078233500832681
0.214000000000000051,2.935177854304846345
0.215000000000000052,2.150374362895541847
0.216000000000000053,1.384047585146912507
0.217000000000000054,0.636561791731196536
0.218000000000000055,-0.091743496583044856
0.219000000000000056,-0.800561521868677906
0.220000000000000057,-1.489625096482740663
0.221000000000000058,-2.158712208130374677
0.222000000000000058,-2.807650448451621372
0.223000000000000059,-3.436320309911439441
0.224000000000000060,-4.044657410985108115
0.225000000000000061,-4.632653721447764994
0.226000000000000062,-5.200357868304319453
0.227000000000000063,-5.747874608855185308
0.228000000000000064,-6.275363560907577742
0.229000000000000065,-6.783037281534426199
0.230000000000000066,-7.271158785358781351
0.231000000000000066,-7.740038591398580081
0.232000000000000067,-8.190031384314398366
0.233000000000000068,-8.621532371716002174
0.234000000000000069,-9.034973414228392841
0.235000000000000070,-9.430818999500251820
0.236000000000000071,-9.809562125436601221
0.237000000000000072,-10.171720151812985833
0.238000000000000073,-10.517830673213646620
0.239000000000000073,-10.848447460046674706
0.240000000000000074,-11.164136508322737740
0.241000000000000075,-11.465472233015026049
0.242000000000000076,-11.753033834210956599
0.243000000000000077,-12.027401859968954057
0.244000000000000078,-12.289154984839584017
0.245000000000000079,-12.538867018424696198
0.246000000000000080,-12.777104154144822701
0.247000000000000081,-13.004422464570854601
0.248000000000000081,-13.221365646248585790
0.249000000000000082,-13.428463013899094136
0.250000000000000111,-13.626227741202200150
0.251000000000000112,-13.815155343049060122
0.252000000000000113,-13.995722392167303738
0.253000000000000114,-14.168385461354564114
0.254000000000000115,-14.333580281187144223
0.255000000000000115,-14.491721101973032759
0.256000000000000116,-14.643200247873028985
0.257000000000000117,-14.788387850496345521
0.258000000000000118,-14.927631748864433447
0.259000000000000119,-15.061257542409412835
0.260000000000000120,-15.189568783608009994
0.261000000000000121,-15.312847296929003704
0.262000000000000122,-15.431353610973886248
0.263000000000000123,-15.545327490996532660
0.264000000000000123,-15.654988559384463542
0.265000000000000124,-15.760536992153371116
0.266000000000000125,-15.862154280036923737
0.267000000000000126,-15.960004043329353962
0.268000000000000127,-16.054232890250862198
0.269000000000000128,-16.144971309241523016
0.270000000000000129,-16.232334586241673691
0.271000000000000130,-16.316423738675833732
0.272000000000000131,-16.397326458516396031
0.273000000000000131,-16.475118057456523246
0.274000000000000132,-16.549862407862832470
0.275000000000000133,-16.621612873804433974
0.276000000000000134,-16.690413227060172829
0.277000000000000135,-16.756298543588449945
0.278000000000000136,-16.819296076501839110
0.279000000000000137,-16.879426102118067377
0.280000000000000138,-16.936702736160672345
0.281000000000000139,-16.991134717654041708
0.282000000000000139,-17.042726158499128530
0.283000000000000140,-17.091477257127131395
0.284000000000000141,-17.137384975009211985
0.285000000000000142,-17.180443675151128247
0.286000000000000143,-17.220645722023299129
0.287000000000000144,-17.257982042669194556
0.288000000000000145,-17.292442649001049659
0.289000000000000146,-17.324017121529372787
0.290000000000000147,-17.352695054986774892
0.291000000000000147,-17.378466466494771225
0.292000000000000148,-17.401322167088501658
0.293000000000000149,-17.421254097557945073
0.294000000000000150,-17.438255629688345749
0.295000000000000151,-17.452321834086838237
0.296000000000000152,-17.463449715869440837
0.297000000000000153,-17.471638419552910193
0.298000000000000154,-17.476889404551211982
0.299000000000000155,-17.479206592717918767
0.300000000000000155,-17.478596489404242931
0.301000000000000156,-17.475068279519639702
0.302000000000000157,-17.468633900088459399
0.303000000000000158,-17.459308090793403068
0.304000000000000159,-17.447108423985159931
0.305000000000000160,-17.432055315619020774
0.306000000000000161,-17.414172018554097576
0.307000000000000162,-17.393484599619561948
0.308000000000000163,-17.370021901816667054
0.309000000000000163,-17.343815492984852256
0.310000000000000164,-17.314899602216819119
0.311000000000000165,-17.283311045260568051
0.312000000000000166,-17.249089140097588313
0.313000000000000167,-17.212275613835519295
0.314000000000000168,-17.172914502001322745
0.315000000000000169,-17.131052041268084452
0.316000000000000170,-17.086736556594985359
0.317000000000000171,-17.040018343705973791
0.318000000000000171,-16.990949547779329976
0.319000000000000172,-16.939584039167122853
0.320000000000000173,-16.885977286910790696
0.321000000000000174,-16.830186230767804290
0.322000000000000175,-16.772269152413755933
0.323000000000000176,-16.712285546434863193
0.324000000000000177,-16.650295991678241592
0.325000000000000178,-16.586362023480653249
0.326000000000000179,-16.520546007252072229
0.327000000000000179,-16.452911013846961197
0.328000000000000180,-16.383520697114967390
0.329000000000000181,-16.312439173983499074
0.330000000000000182,-16.239730907386178416
0.331000000000000183,-16.165460592316062360
0.332000000000000184,-16.089693045247877023
0.333000000000000185,-16.012493097141387466
0.334000000000000186,-15.933925490207718312
0.335000000000000187,-15.854054778591535779
0.336000000000000187,-15.772945233095228446
0.337000000000000188,-15.690660750045893224
0.338000000000000189,-15.607264764382600575
0.339000000000000190,-15.522820167019329318
0.340000000000000191,-15.437389226518593688
0.341000000000000192,-15.351033515092373349
0.342000000000000193,-15.263813838929142008
0.343000000000000194,-15.175790172830307512
0.344000000000000195,-15.087021599124534887
0.345000000000000195,-14.997566250815529187
0.346000000000000196,-14.907481258906505772
0.347000000000000197,-14.816822703834001018
0.348000000000000198,-14.725645570934043249
0.349000000000000199,-14.634003709854800590
0.350000000000000200,-14.541949797822644186
0.351000000000000201,-14.449535306661440259
0.352000000000000202,-14.356810473459514554
0.353000000000000203,-14.263824274773659440
0.354000000000000203,-14.170624404255367068
0.355000000000000204,-14.077257253581104024
0.356000000000000205,-13.983767896565922229
0.357000000000000206,-13.890200076337340107
0.358000000000000207,-13.796596195445090416
0.359000000000000208,-13.702997308781457164
0.360000000000000209,-13.609443119186405369
0.361000000000000210,-13.515971975611753564
0.362000000000000210,-13.422620873719106172
0.363000000000000211,-13.329425458787094172
0.364000000000000212,-13.236420030804785242
0.365000000000000213,-13.143637551629392846
0.366000000000000214,-13.051109654088440593
0.367000000000000215,-12.958866652908486827
0.368000000000000216,-12.866937557354834354
0.369000000000000217,-12.775350085469053596
0.370000000000000218,-12.684130679793973684
0.371000000000000218,-12.593304524478325490
0.372000000000000219,-12.502895563656487354
0.373000000000000220,-12.412926521001573121
0.374000000000000221,-12.323418920353399031
0.375000000000000222,-12.234393107325878702
0.376000000000000223,-12.145868271802012117
0.377000000000000224,-12.057862471227474899
0.378000000000000225,-11.970392654617565853
0.379000000000000226,-11.883474687195336728
0.380000000000000226,-11.797123375582252436
0.381000000000000227,-11.711352493465856384
0.382000000000000228,-11.626174807672558842
0.383000000000000229,-11.541602104576554666
0.384000000000000230,-11.457645216779447139
0.385000000000000231,-11.374314049998256237
0.386000000000000232,-11.291617610102587577
0.387000000000000233,-11.209564030244900223
0.388000000000000234,-11.128160598030843786
0.389000000000000234,-11.047413782679708305
0.390000000000000235,-10.967329262127627487
0.391000000000000236,-10.887911950029479868
0.392000000000000237,-10.809166022617676006
0.393000000000000238,-10.731094945379217265
0.394000000000000239,-10.653701499514482975
0.395000000000000240,-10.576987808144208358
0.396000000000000241,-10.500955362233199253
0.397000000000000242,-10.425605046201848580
0.398000000000000242,-10.350937163198832280
0.399000000000000243,-10.276951460010314676
0.400000000000000244,-10.203647151583378871
0.401000000000000245,-10.131022945143278946
0.402000000000000246,-10.059077063886027403
0.403000000000000247,-9.987807270229669854
0.404000000000000248,-9.917210888609542252
0.405000000000000249,-9.847284827804315910
0.406000000000000250,-9.778025602781266201
0.407000000000000250,-9.709429356050900850
0.408000000000000251,-9.641491878522330694
0.409000000000000252,-9.574208629852360986
0.410000000000000253,-9.507574758282412830
0.411000000000000254,-9.441585119958791239
0.412000000000000255,-9.376234297732874978
0.413000000000000256,-9.311516619439057507
0.414000000000000257,-9.247426175649080093
0.415000000000000258,-9.183956836902691379
0.416000000000000258,-9.121102270415240909
0.417000000000000259,-9.058855956263801801
0.418000000000000260,-8.997211203054238382
0.419000000000000261,-8.936161163072236846
0.420000000000000262,-8.875698846922318808
0.421000000000000263,-8.815817137659223590
0.422000000000000264,-8.756508804416686331
0.423000000000000265,-8.697766515539417043
0.424000000000000266,-8.639582851224380633
0.425000000000000266,-8.581950315677975283
0.426000000000000267,-8.524861348796214600
0.427000000000000268,-8.468308337375379580
0.428000000000000269,-8.412283625860883518
0.429000000000000270,-8.356779526642570843
0.430000000000000271,-8.301788329904720598
0.431000000000000272,-8.247302313039527988
0.432000000000000273,-8.193313749632853416
0.433000000000000274,-8.139814918031348157
0.434000000000000274,-8.086798109500126230
0.435000000000000275,-8.034255635980388277
0.436000000000000276,-7.982179837456465421
0.437000000000000277,-7.930563088941752881
0.438000000000000278,-7.879397807093274864
0.439000000000000279,-7.828676456464480182
0.440000000000000280,-7.778391555405924862
0.441000000000000281,-7.728535681623631248
0.442000000000000282,-7.679101477404747911
0.443000000000000282,-7.630081654520141754
0.444000000000000283,-7.581468998813662097
0.445000000000000284,-7.533256374487517171
0.446000000000000285,-7.485436728093281644
0.447000000000000286,-7.438003092238096414
0.448000000000000287,-7.390948589015136072
0.449000000000000288,-7.344266433167845776
0.450000000000000289,-7.297949934996860399
0.451000000000000290,-7.251992503018700909
0.452000000000000290,-7.206387646385141288
0.453000000000000291,-7.161128977071899548
0.454000000000000292,-7.116210211845391598
0.455000000000000293,-7.071625174015837345
0.456000000000000294,-7.027367794985215355
0.457000000000000295,-6.983432115598057877
0.458000000000000296,-6.939812287303179339
0.459000000000000297,-6.896502573134164038
0.460000000000000298,-6.853497348516239818
0.461000000000000298,-6.810791101907075706
0.462000000000000299,-6.768378435278873617
0.463000000000000300,-6.726254064448802694
0.464000000000000301,-6.684412819264918149
0.465000000000000302,-6.642849643654287206
0.466000000000000303,-6.601559595539991498
0.467000000000000304,-6.560537846633495818
0.468000000000000305,-6.519779682108675090
0.469000000000000306,-6.479280500163611123
0.470000000000000306,-6.439035811476212068
0.471000000000000307,-6.399041238559241229
0.472000000000000308,-6.359292515020641190
0.473000000000000309,-6.319785484734356196
0.474000000000000310,-6.280516100927092005
0.475000000000000311,-6.241480425186042069
0.476000000000000312,-6.202674626392664869
0.477000000000000313,-6.164094979587085632
0.478000000000000314,-6.125737864767978103
0.479000000000000314,-6.087599765632305093
0.480000000000000315,-6.049677268259208596
0.481000000000000316,-6.011967059742322483
0.482000000000000317,-5.974465926774425562
0.483000000000000318,-5.937170754188398014
0.484000000000000319,-5.900078523458142321
0.485000000000000320,-5.863186311163143927
0.486000000000000321,-5.826491287420045850
0.487000000000000322,-5.789990714284616757
0.488000000000000322,-5.753681944127233550
0.489000000000000323,-5.717562417985030621
0.490000000000000324,-5.681629663893577487
0.491000000000000325,-5.645881295200910088
0.492000000000000326,-5.610315008866583852
0.493000000000000327,-5.574928583748397948
0.494000000000000328,-5.539719878879130199
0.495000000000000329,-5.504686831735750019
0.496000000000000330,-5.469827456503223218
0.497000000000000330,-5.435139842335179772
0.498000000000000331,-5.400622151613298172
0.499000000000000332,-5.366272618207537981
0.500000000000000333,-5.332089545738887715
0.501000000000000334,-5.298071305846438150
0.502000000000000335,-5.264216336460414425
0.503000000000000336,-5.230523140082767419
0.504000000000000337,-5.196990282076713541
0.505000000000000338,-5.163616388966692838
0.506000000000000338,-5.130400146750018209
0.507000000000000339,-5.097340299221451154
0.508000000000000340,-5.064435646311849837
0.509000000000000341,-5.031685042442052946
0.510000000000000342,-4.999087394892880454
0.511000000000000343,-4.966641662192327722
0.512000000000000344,-4.934346852520748783
0.513000000000000345,-4.902202022134893866
0.514000000000000346,-4.870206273811573894
0.515000000000000346,-4.838358755311591430
0.516000000000000347,-4.806658657864629092
0.517000000000000348,-4.775105214675735787
0.518000000000000349,-4.743697699453808703
0.519000000000000350,-4.712435424962718500
0.520000000000000351,-4.681317741595416138
0.521000000000000352,-4.650344035971485823
0.522000000000000353,-4.619513729558432757
0.523000000000000353,-4.588826277317052948
0.524000000000000354,-4.558281166371203952
0.525000000000000355,-4.527877914702085782
0.526000000000000356,-4.497616069867346411
0.527000000000000357,-4.467495207745137975
0.528000000000000358,-4.437514931303205401
0.529000000000000359,-4.407674869393162886
0.530000000000000360,-4.377974675569999974
0.531000000000000361,-4.348414026936850973
0.532000000000000361,-4.318992623015040166
0.533000000000000362,-4.289710184639376145
0.534000000000000363,-4.260566452878691734
0.535000000000000364,-4.231561187981503380
0.536000000000000365,-4.202694168346745585
0.537000000000000366,-4.173965189519494245
0.538000000000000367,-4.145374063211431093
0.539000000000000368,-4.116920616346117612
0.540000000000000369,-4.088604690128651242
0.541000000000000369,-4.060426139139758916
0.542000000000000370,-4.032384830453986879
0.543000000000000371,-4.004480642781797606
0.544000000000000372,-3.976713465635428602
0.545000000000000373,-3.949083198518168025
0.546000000000000374,-3.921589750136860175
0.547000000000000375,-3.894233037637364614
0.548000000000000376,-3.867012985862724683
0.549000000000000377,-3.839929526633729218
0.550000000000000377,-3.812982598051563254
0.551000000000000378,-3.786172143822331915
0.552000000000000379,-3.759498112603072428
0.553000000000000380,-3.732960457368988294
0.554000000000000381,-3.706559134801552524
0.555000000000000382,-3.680294104697244162
0.556000000000000383,-3.654165329396440676
0.557000000000000384,-3.628172773232324566
0.558000000000000385,-3.602316401999294815
0.559000000000000385,-3.576596182440676674
0.560000000000000386,-3.551012081755309246
0.561000000000000387,-3.525564067122716416
0.562000000000000388,-3.500252105246494772
0.563000000000000389,-3.475076161915576112
0.564000000000000390,-3.450036201583030593
0.565000000000000391,-3.425132186962051684
0.566000000000000392,-3.400364078638782761
0.567000000000000393,-3.375731834701645617
0.568000000000000393,-3.351235410386812053
0.569000000000000394,-3.326874757739465061
0.570000000000000395,-3.302649825290571606
0.571000000000000396,-3.278560557748706028
0.572000000000000397,-3.254606895706713576
0.573000000000000398,-3.230788775362770426
0.574000000000000399,-3.207106128255586164
0.575000000000000400,-3.183558881013333952
0.576000000000000401,-3.160146955116042822
0.577000000000000401,-3.136870266671115459
0.578000000000000402,-3.113728726201588692
0.579000000000000403,-3.090722238446872439
0.580000000000000404,-3.067850702175649591
0.581000000000000405,-3.045114010010561589
0.582000000000000406,-3.022512048264439422
0.583000000000000407,-3.000044696787699472
0.584000000000000408,-2.977711828826680396
0.585000000000000409,-2.955513310892530221
0.586000000000000409,-2.933449002640414527
0.587000000000000410,-2.911518756758726401
0.588000000000000411,-2.889722418867994858
0.589000000000000412,-2.868059827429243480
0.590000000000000413,-2.846530813661463100
0.591000000000000414,-2.825135201467979584
0.592000000000000415,-2.803872807371420528
0.593000000000000416,-2.782743440456978856
0.594000000000000417,-2.761746902323756636
0.595000000000000417,-2.740882987043953722
0.596000000000000418,-2.720151481129509996
0.597000000000000419,-2.699552163506157676
0.598000000000000420,-2.679084805494435617
0.599000000000000421,-2.658749170797571004
0.600000000000000422,-2.638545015495903368
0.601000000000000423,-2.618472088047667956
0.602000000000000424,-2.598530129295883562
0.603000000000000425,-2.578718872481133850
0.604000000000000425,-2.559038043260012607
0.605000000000000426,-2.539487359729029503
0.606000000000000427,-2.520066532453781871
0.607000000000000428,-2.500775264503103390
0.608000000000000429,-2.481613251488147487
0.609000000000000430,-2.462580181606004448
