# TungstenDisulfide-001_OXIDOLAMBDA4SULFANE-AC
# h[nm],U(h)[kJ/mol]
0.149999999999999994,82.450775195275781471
0.150999999999999995,80.002631195680180554
0.151999999999999996,78.322505540056511109
0.152999999999999997,76.806843339202742982
0.153999999999999998,75.246017416956831880
0.154999999999999999,73.609610501584057829
0.156000000000000000,71.933010065232892316
0.157000000000000001,70.262688465410192862
0.158000000000000002,68.633917804183880662
0.159000000000000002,67.065191406758572157
0.160000000000000003,65.560268799194815870
0.161000000000000004,64.112867182968074076
0.162000000000000005,62.711489034158809375
0.163000000000000006,61.343301257896953871
0.164000000000000007,59.996760427122254100
0.165000000000000008,58.663067064562781638
0.166000000000000009,57.336693312351428631
0.167000000000000010,56.015265095553317565
0.168000000000000010,54.699054416004869950
0.169000000000000011,53.390286325028604608
0.170000000000000012,52.092408751340485651
0.171000000000000013,50.809422014148168500
0.172000000000000014,49.545322881537742887
0.173000000000000015,48.303686423170681508
0.174000000000000016,47.087386883508841606
0.175000000000000017,45.898444819008780371
0.176000000000000018,44.737980036919779536
0.177000000000000018,43.606246769195898594
0.178000000000000019,42.502727567857270685
0.179000000000000020,41.426264452157333551
0.180000000000000021,40.375208982352653209
0.181000000000000022,39.347576533527920617
0.182000000000000023,38.341193653239471928
0.183000000000000024,37.353830727324847771
0.184000000000000025,36.383315089743767601
0.185000000000000026,35.427622123843697466
0.186000000000000026,34.484943803997040845
0.187000000000000027,33.553735547547908880
0.188000000000000028,32.632743239959424386
0.189000000000000029,31.721012924778648312
0.190000000000000030,30.817885981372690196
0.191000000000000031,29.922982711765051533
0.192000000000000032,29.036177182017162579
0.193000000000000033,28.157565964652455648
0.194000000000000034,27.287433149649757524
0.195000000000000034,26.426213667471472490
0.196000000000000035,25.574456625824588230
0.197000000000000036,24.732790023002515056
0.198000000000000037,23.901887879530594461
0.199000000000000038,23.082440536376651607
0.200000000000000039,22.275128608185980283
0.201000000000000040,21.480600856742604776
0.202000000000000041,20.699456063672233341
0.203000000000000042,19.932228831082788645
0.204000000000000042,19.179379121983821221
0.205000000000000043,18.441285265772691560
0.206000000000000044,17.718240094228683290
0.207000000000000045,17.010449836565733506
0.208000000000000046,16.318035384439330215
0.209000000000000047,15.641035535837321646
0.210000000000000048,14.979411837227422311
0.211000000000000049,14.333054663232308812
0.212000000000000050,13.701790199848989715
0.213000000000000050,13.085388028585054343
0.214000000000000051,12.483569042953167383
0.215000000000000052,11.896013463991632619
0.216000000000000053,11.322368756608037543
0.217000000000000054,10.762257282596227270
0.218000000000000055,10.215283558419645971
0.219000000000000056,9.681041015760541768
0.220000000000000057,9.159118190054483577
0.221000000000000058,8.649104286569206934
0.222000000000000058,8.150594094959872749
0.223000000000000059,7.663192241665394810
0.224000000000000060,7.186516785088639558
0.225000000000000061,6.720202171378926614
0.226000000000000062,6.263901578994862440
0.227000000000000063,5.817288688282759246
0.228000000000000064,5.380058918290357539
0.229000000000000065,4.951930177179437287
0.230000000000000066,4.532643175140123937
0.231000000000000066,4.121961349866401392
0.232000000000000067,3.719670454644642632
0.233000000000000068,3.325577858132478415
0.234000000000000069,2.939511603150696040
0.235000000000000070,2.561319269442043911
0.236000000000000071,2.190866682518927355
0.237000000000000072,1.828036507557395440
0.238000000000000073,1.472726763914970594
0.239000000000000073,1.124849292352927854
0.240000000000000074,0.784328203511610922
0.241000000000000075,0.451098332693622706
0.242000000000000076,0.125103722607586398
0.243000000000000077,-0.193703847538622215
0.244000000000000078,-0.505366271296810998
0.245000000000000079,-0.809920450183710394
0.246000000000000080,-1.107399545102098593
0.247000000000000081,-1.397834136696954443
0.248000000000000081,-1.681253289581944088
0.249000000000000082,-1.957685517355912452
0.250000000000000111,-2.227159647085047212
0.251000000000000112,-2.489705583460060989
0.252000000000000113,-2.745354974160725270
0.253000000000000114,-2.994141779080399246
0.254000000000000115,-3.236102746998191115
0.255000000000000115,-3.471277804045158177
0.256000000000000116,-3.699710358911533437
0.257000000000000117,-3.921447530196714659
0.258000000000000118,-4.136540301627305460
0.259000000000000119,-4.345043611076184753
0.260000000000000120,-4.547016379419941856
0.261000000000000121,-4.742521485286088634
0.262000000000000122,-4.931625691678824808
0.263000000000000123,-5.114399530342720546
0.264000000000000123,-5.290917149539880349
0.265000000000000124,-5.461256130686567900
0.266000000000000125,-5.625497279029975317
0.267000000000000126,-5.783724393252127172
0.268000000000000127,-5.936024018574360461
0.269000000000000128,-6.082485187607435506
0.270000000000000129,-6.223199152856432548
0.271000000000000130,-6.358259114450403260
0.272000000000000131,-6.487759946328694127
0.273000000000000131,-6.611797923782944508
0.274000000000000132,-6.730470454929060153
0.275000000000000133,-6.843875818369481223
0.276000000000000134,-6.952112909005137453
0.277000000000000135,-7.055280993669758693
0.278000000000000136,-7.153479477988945234
0.279000000000000137,-7.246807685612405514
0.280000000000000138,-7.335364650731297509
0.281000000000000139,-7.419248924573958348
0.282000000000000139,-7.498558396372311918
0.283000000000000140,-7.573390129107951729
0.284000000000000141,-7.643840210180881556
0.285000000000000142,-7.710003616995019904
0.286000000000000143,-7.771974097321844965
0.287000000000000144,-7.829844064186438857
0.288000000000000145,-7.883704504918635614
0.289000000000000146,-7.933644903923488201
0.290000000000000147,-7.979753178651412426
0.291000000000000147,-8.022115628185769509
0.292000000000000148,-8.060816893815671236
0.293000000000000149,-8.095939930921668193
0.294000000000000150,-8.127565991472327056
0.295000000000000151,-8.155774616408720590
0.296000000000000152,-8.180643637181107763
0.297000000000000153,-8.202249185696720346
0.298000000000000154,-8.220665711938686115
0.299000000000000155,-8.235966008523202930
0.300000000000000155,-8.248221241474176679
0.301000000000000156,-8.257500986511109531
0.302000000000000157,-8.263873270166556040
0.303000000000000158,-8.267404615073061791
0.304000000000000159,-8.268160088786098427
0.305000000000000160,-8.266203355537829367
0.306000000000000161,-8.261596730347324780
0.307000000000000162,-8.254401234944305443
0.308000000000000163,-8.244676654996180076
0.309000000000000163,-8.232481598161616176
0.310000000000000164,-8.217873552527198200
0.311000000000000165,-8.200908945017490126
0.312000000000000166,-8.181643199402085287
0.313000000000000167,-8.160130793556138684
0.314000000000000168,-8.136425315663061042
0.315000000000000169,-8.110579519079541555
0.316000000000000170,-8.082645375613605410
0.317000000000000171,-8.052674126995658099
0.318000000000000171,-8.020716334350847632
0.319000000000000172,-7.986821925508166942
0.320000000000000173,-7.951040240007202442
0.321000000000000174,-7.913420071687983004
0.322000000000000175,-7.874009708772393701
0.323000000000000176,-7.832856971367050392
0.324000000000000177,-7.790009246337953996
0.325000000000000178,-7.745513519525798252
0.326000000000000179,-7.699416405288580734
0.327000000000000179,-7.651764173373841516
0.328000000000000180,-7.602602773137813408
0.329000000000000181,-7.551977855142363971
0.330000000000000182,-7.499934790172254395
0.331000000000000183,-7.446518685726900344
0.332000000000000184,-7.391774400049980542
0.333000000000000185,-7.335746553769348921
0.334000000000000186,-7.278479539227049600
0.335000000000000187,-7.220017527585926409
0.336000000000000187,-7.160404473804939940
0.337000000000000188,-7.099684119579869446
0.338000000000000189,-7.037899994350165223
0.339000000000000190,-6.975095414475509514
0.340000000000000191,-6.911313480688065169
0.341000000000000192,-6.846597073928025523
0.342000000000000193,-6.780988849670853469
0.343000000000000194,-6.714531230855216748
0.344000000000000195,-6.647266399520047386
0.345000000000000195,-6.579236287258948046
0.346000000000000196,-6.510482564598509825
0.347000000000000197,-6.441046629405910551
0.348000000000000198,-6.370969594429087834
0.349000000000000199,-6.300292274070457665
0.350000000000000200,-6.229055170492761917
0.351000000000000201,-6.157298459152622527
0.352000000000000202,-6.085061973854488215
0.353000000000000203,-6.012385191414397312
0.354000000000000203,-5.939307216019575009
0.355000000000000204,-5.865866763366311076
0.356000000000000205,-5.792102144655137508
0.357000000000000206,-5.718051250518414896
0.358000000000000207,-5.643751534951709559
0.359000000000000208,-5.569239999316705436
0.360000000000000209,-5.494553176479377576
0.361000000000000210,-5.419727115143452956
0.362000000000000210,-5.344797364435331488
0.363000000000000211,-5.269798958792906163
0.364000000000000212,-5.194766403206996230
0.365000000000000213,-5.119733658860373460
0.366000000000000214,-5.044734129205835416
0.367000000000000215,-4.969800646521201237
0.368000000000000216,-4.894965458975690353
0.369000000000000217,-4.820260218238761496
0.370000000000000218,-4.745715967659292822
0.371000000000000218,-4.671363131039718120
0.372000000000000219,-4.597231502026833283
0.373000000000000220,-4.523350234137947901
0.374000000000000221,-4.449747831438328305
0.375000000000000222,-4.376452139883025616
0.376000000000000223,-4.303490339333809978
0.377000000000000224,-4.230888936259297850
0.378000000000000225,-4.158673757124079273
0.379000000000000226,-4.086869942470416461
0.380000000000000226,-4.015501941694049393
0.381000000000000227,-3.944593508513455138
0.382000000000000228,-3.874167697130309396
0.383000000000000229,-3.804246859076945153
0.384000000000000230,-3.734852640744939833
0.385000000000000231,-3.666005981587669105
0.386000000000000232,-3.597727112987906484
0.387000000000000233,-3.530035557780518474
0.388000000000000234,-3.462950130418845252
0.389000000000000234,-3.396488937772498051
0.390000000000000235,-3.330669380542985003
0.391000000000000236,-3.265508155282959901
0.392000000000000237,-3.201021257003736853
0.393000000000000238,-3.137223982355261231
0.394000000000000239,-3.074130933361812978
0.395000000000000240,-3.011756021696283536
0.396000000000000241,-2.950112473475308139
0.397000000000000242,-2.889212834557032927
0.398000000000000242,-2.829068976323087181
0.399000000000000243,-2.769692101925836702
0.400000000000000244,-2.711092752981837162
0.401000000000000245,-2.653280816692345390
0.402000000000000246,-2.596265533371377110
0.403000000000000247,-2.540055504361893757
0.404000000000000248,-2.484658700320685476
0.405000000000000249,-2.430082469852467231
0.406000000000000250,-2.376333548473770207
0.407000000000000250,-2.323418067887440763
0.408000000000000251,-2.271341565548508079
0.409000000000000252,-2.220108994502605348
0.410000000000000253,-2.169724733478092027
0.411000000000000254,-2.120192597213500729
0.412000000000000255,-2.071515847002026955
0.413000000000000256,-2.023697201435225690
0.414000000000000257,-1.976738847328239901
0.415000000000000258,-1.930642450809423760
0.416000000000000258,-1.885409168557397930
0.417000000000000259,-1.841039659169089848
0.418000000000000260,-1.797534094642641023
0.419000000000000261,-1.754892171959461677
0.420000000000000262,-1.713113124750195393
0.421000000000000263,-1.672195735029732067
0.422000000000000264,-1.632138344986839851
0.423000000000000265,-1.592938868814436137
0.424000000000000266,-1.554594804567066557
0.425000000000000266,-1.517103246032402764
0.426000000000000267,-1.480460894604243460
0.427000000000000268,-1.444664071144820428
0.428000000000000269,-1.409708727824723340
0.429000000000000270,-1.375590459929241005
0.430000000000000271,-1.342304517620270810
0.431000000000000272,-1.309845817643542132
0.432000000000000273,-1.278208954971226774
0.433000000000000274,-1.247388214370548365
0.434000000000000274,-1.217377581889361071
0.435000000000000275,-1.188170756250191529
0.436000000000000276,-1.159761160144610725
0.437000000000000277,-1.132141951420221115
0.438000000000000278,-1.105306034153020089
0.439000000000000279,-1.079246069598267965
0.440000000000000280,-1.053954487013375019
0.441000000000000281,-1.029423494346763057
0.442000000000000282,-1.005645088787049390
0.443000000000000282,-0.982611067167167063
0.444000000000000283,-0.960313036218610860
0.445000000000000284,-0.938742422671138166
0.446000000000000285,-0.917890483193713580
0.447000000000000286,-0.897748314172914896
0.448000000000000287,-0.878306861325097388
0.449000000000000288,-0.859556929139244752
0.450000000000000289,-0.841489190147475030
0.451000000000000290,-0.824094194020661641
0.452000000000000290,-0.807362376486826960
0.453000000000000291,-0.791284068070267410
0.454000000000000292,-0.775849502649675671
0.455000000000000293,-0.761048825833724463
0.456000000000000294,-0.746872103152916522
0.457000000000000295,-0.733309328066655497
0.458000000000000296,-0.720350429784818891
0.459000000000000297,-0.707985280903256187
0.460000000000000298,-0.696203704852932370
0.461000000000000298,-0.684995483162564200
0.462000000000000299,-0.674350362534885117
0.463000000000000300,-0.664258061736752281
0.464000000000000301,-0.654708278303613556
0.465000000000000302,-0.645690695058939168
0.466000000000000303,-0.637194986449404532
0.467000000000000304,-0.629210824696772697
0.468000000000000305,-0.621727885767621058
0.469000000000000306,-0.614735855162080957
0.470000000000000306,-0.608224433523025132
0.471000000000000307,-0.602183342067155403
0.472000000000000308,-0.596602327839638624
0.473000000000000309,-0.591471168793993640
0.474000000000000310,-0.586779678699068552
0.475000000000000311,-0.582517711875038202
0.476000000000000312,-0.578675167760448361
0.477000000000000313,-0.575241995312380294
0.478000000000000314,-0.572208197241940497
0.479000000000000314,-0.569563834087345233
0.480000000000000315,-0.567299028126866167
0.481000000000000316,-0.565403967134092467
0.482000000000000317,-0.563868907977872591
0.483000000000000318,-0.562684180069489726
0.484000000000000319,-0.561840188659551543
0.485000000000000320,-0.561327417987217636
0.486000000000000321,-0.561136434284343899
0.487000000000000322,-0.561257888637198055
0.488000000000000322,-0.561682519708414540
0.489000000000000323,-0.562401156321901352
0.490000000000000324,-0.563404719913390806
0.491000000000000325,-0.564684226849385684
0.492000000000000326,-0.566230790617223478
0.493000000000000327,-0.568035623889028285
0.494000000000000328,-0.570090040462313818
0.495000000000000329,-0.572385457079972459
0.496000000000000330,-0.574913395132435445
0.497000000000000330,-0.577665482244758555
0.498000000000000331,-0.580633453751367767
0.499000000000000332,-0.583809154061221802
0.500000000000000333,-0.587184537916135563
0.501000000000000334,-0.590751671544946233
0.502000000000000335,-0.594502733716267828
0.503000000000000336,-0.598430016692486855
0.504000000000000337,-0.602525927087686375
0.505000000000000338,-0.606782986632133925
0.506000000000000338,-0.611193832845959628
0.507000000000000339,-0.615751219624618429
0.508000000000000340,-0.620448017738711388
0.509000000000000341,-0.625277215250717000
0.510000000000000342,-0.630231917851132417
0.511000000000000343,-0.635305349116523699
0.512000000000000344,-0.640490850691938673
0.513000000000000345,-0.645781882400091822
0.514000000000000346,-0.651172022279745244
0.515000000000000346,-0.656654966555594966
0.516000000000000347,-0.662224529542012053
0.517000000000000348,-0.667874643482941899
0.518000000000000349,-0.673599358330165043
0.519000000000000350,-0.679392841462165942
0.520000000000000351,-0.685249377345796273
0.521000000000000352,-0.691163367142833218
0.522000000000000353,-0.697129328263571324
0.523000000000000353,-0.703141893869489332
0.524000000000000354,-0.709195812327027775
0.525000000000000355,-0.715285946614465873
0.526000000000000356,-0.721407273683821404
0.527000000000000357,-0.727554883779723993
0.528000000000000358,-0.733723979717094354
0.529000000000000359,-0.739909876119475896
0.530000000000000360,-0.746107998619807256
0.531000000000000361,-0.752313883025396812
0.532000000000000361,-0.758523174448797688
0.533000000000000362,-0.764731626406276677
0.534000000000000363,-0.770935099885493136
0.535000000000000364,-0.777129562384008987
0.536000000000000365,-0.783311086920170707
0.537000000000000366,-0.789475851017901631
0.538000000000000367,-0.795620135666865957
0.539000000000000368,-0.801740324259494264
0.540000000000000369,-0.807832901506226997
0.541000000000000369,-0.813894452330398033
0.542000000000000370,-0.819921660744066472
0.543000000000000371,-0.825911308706105629
0.544000000000000372,-0.831860274963826973
0.545000000000000373,-0.837765533879353597
0.546000000000000374,-0.843624154241949475
0.547000000000000375,-0.849433298067460818
0.548000000000000376,-0.855190219386015804
0.549000000000000377,-0.860892263019050974
0.550000000000000377,-0.866536863346740960
0.551000000000000378,-0.872121543066876947
0.552000000000000379,-0.877643911946152322
0.553000000000000380,-0.883101665564877125
0.554000000000000381,-0.888492584055996959
0.555000000000000382,-0.893814530839386001
0.556000000000000383,-0.899065451352226375
0.557000000000000384,-0.904243371776379257
0.558000000000000385,-0.909346397763520664
0.559000000000000385,-0.914372713158869033
0.560000000000000386,-0.919320578724227233
0.561000000000000387,-0.924188330861117402
0.562000000000000388,-0.928974380334677052
0.563000000000000389,-0.933677210999041662
0.564000000000000390,-0.938295378524817814
0.565000000000000391,-0.942827509129334551
0.566000000000000392,-0.947272298310239291
0.567000000000000393,-0.951628509583043347
0.568000000000000393,-0.955894973223164635
0.569000000000000394,-0.960070585013019118
0.570000000000000395,-0.964154304994660372
0.571000000000000396,-0.968145156228464310
0.572000000000000397,-0.972042223558348129
0.573000000000000398,-0.975844652383942246
0.574000000000000399,-0.979551647440171758
0.575000000000000400,-0.983162471584644981
0.576000000000000401,-0.986676444593239110
0.577000000000000401,-0.990092941964269557
0.578000000000000402,-0.993411393731578718
0.579000000000000403,-0.996631283286880665
0.580000000000000404,-0.999752146211699055
0.581000000000000405,-1.002773569119176589
0.582000000000000406,-1.005695188506051441
0.583000000000000407,-1.008516689615068573
0.584000000000000408,-1.011237805308080606
0.585000000000000409,-1.013858314950057515
0.586000000000000409,-1.016378043304264844
0.587000000000000410,-1.018796859438774627
0.588000000000000411,-1.021114675644536174
0.589000000000000412,-1.023331446365178365
0.590000000000000413,-1.025447167138694882
0.591000000000000414,-1.027461873551189120
0.592000000000000415,-1.029375640202818021
0.593000000000000416,-1.031188579686042051
0.594000000000000417,-1.032900841576331441
0.595000000000000417,-1.034512611435420615
0.596000000000000418,-1.036024109827197837
0.597000000000000419,-1.037435591346340003
0.598000000000000420,-1.038747343659747857
0.599000000000000421,-1.039959686560850471
0.600000000000000422,-1.041072971036855588
0.601000000000000423,-1.042087578348954713
0.602000000000000424,-1.043003919125559786
0.603000000000000425,-1.043822432468588080
0.604000000000000425,-1.044543585072799541
0.605000000000000426,-1.045167870358219897
0.606000000000000427,-1.045695807615670603
0.607000000000000428,-1.046127941165336139
0.608000000000000429,-1.046464839528477686
0.609000000000000430,-1.046707094612130629
0.610000000000000431,-1.046855320906910913
0.611000000000000432,-1.046910154697791473
0.612000000000000433,-1.046872253287859156
0.613000000000000433,-1.046742294235037729
