# TungstenDisulfide-001_OXIDOLAMBDA4SULFANE-AC
# h[nm],U(h)[kJ/mol]
0.149999999999999994,82.450773509589993182
0.150999999999999995,80.002629168128052584
0.151999999999999996,78.322503275527225242
0.152999999999999997,76.806840940156163811
0.153999999999999998,75.246014963121396590
0.154999999999999999,73.609608045729572723
0.156000000000000000,71.933007636385099204
0.157000000000000001,70.262686074710032358
0.158000000000000002,68.633915450918451029
0.159000000000000002,67.065189083453262242
0.160000000000000003,65.560266495413657140
0.161000000000000004,64.112864887859160490
0.162000000000000005,62.711486737953997306
0.163000000000000006,61.343298952625730180
0.164000000000000007,59.996758106787943632
0.165000000000000008,58.663064724987656007
0.166000000000000009,57.336690950850062620
0.167000000000000010,56.015262710545833613
0.168000000000000010,54.699052006643299251
0.169000000000000011,53.390283890877825002
0.170000000000000012,52.092406292132842793
0.171000000000000013,50.809419529615595934
0.172000000000000014,49.545320371314858221
0.173000000000000015,48.303683886757603716
0.174000000000000016,47.087384320279674910
0.175000000000000017,45.898442228252136488
0.176000000000000018,44.737977417898505905
0.177000000000000018,43.606244121215368637
0.178000000000000019,42.502724890333901442
0.179000000000000020,41.426261744680793697
0.180000000000000021,40.375206244737796624
0.181000000000000022,39.347573765853894656
0.182000000000000023,38.341190855875048271
0.183000000000000024,37.353827900940089535
0.184000000000000025,36.383312235308963523
0.185000000000000026,35.427619242617012674
0.186000000000000026,34.484940897502895041
0.187000000000000027,33.553732617547794348
0.188000000000000028,32.632740288417288355
0.189000000000000029,31.721009953822743910
0.190000000000000030,30.817882993255533819
0.191000000000000031,29.922979708822992961
0.192000000000000032,29.036174166630889459
0.193000000000000033,28.157562939209505259
0.194000000000000034,27.287430116509721501
0.195000000000000034,26.426210628934551750
0.196000000000000035,25.574453584103970627
0.197000000000000036,24.732786980200639704
0.198000000000000037,23.901884837619533641
0.199000000000000038,23.082437497182489494
0.200000000000000039,22.275125573377057009
0.201000000000000040,21.480597827821419799
0.202000000000000041,20.699453041970777178
0.203000000000000042,19.932225817760954811
0.204000000000000042,19.179376118030546650
0.205000000000000043,18.441282272009580367
0.206000000000000044,17.718237111315655596
0.207000000000000045,17.010446865008471917
0.208000000000000046,16.318032424598179375
0.209000000000000047,15.641032587937271359
0.210000000000000048,14.979408901369032137
0.211000000000000049,14.333051739403199321
0.212000000000000050,13.701787287935752957
0.213000000000000050,13.085385128385345510
0.214000000000000051,12.483566154187830222
0.215000000000000052,11.896010586316680957
0.216000000000000053,11.322365889626356150
0.217000000000000054,10.762254425868935215
0.218000000000000055,10.215280711476960818
0.219000000000000056,9.681038178112162385
0.220000000000000057,9.159115361199337002
0.221000000000000058,8.649101466004582406
0.222000000000000058,8.150591282189912690
0.223000000000000059,7.663189436208902805
0.224000000000000060,7.186513986486201766
0.225000000000000061,6.720199379199345735
0.226000000000000062,6.263898792840937979
0.227000000000000063,5.817285907796376776
0.228000000000000064,5.380056143156947357
0.229000000000000065,4.951927407131803349
0.230000000000000066,4.532640409961669725
0.231000000000000066,4.121958589393779349
0.232000000000000067,3.719667698769859587
0.233000000000000068,3.325575106804472991
0.234000000000000069,2.939508856376443102
0.235000000000000070,2.561316527287181621
0.236000000000000071,2.190863945107975663
0.237000000000000072,1.828033775073550249
0.238000000000000073,1.472724036599569075
0.239000000000000073,1.124846570504532517
0.240000000000000074,0.784325487484812678
0.241000000000000075,0.451095622897558335
0.242000000000000076,0.125101019504186450
0.243000000000000077,-0.193706543436595713
0.244000000000000078,-0.505368959427945463
0.245000000000000079,-0.809923129940287034
0.246000000000000080,-1.107402215832613113
0.247000000000000081,-1.397836797708751577
0.248000000000000081,-1.681255940143982386
0.249000000000000082,-1.957688156701611337
0.250000000000000111,-2.227162274415213084
0.251000000000000112,-2.489708197945871948
0.252000000000000113,-2.745357574946753587
0.253000000000000114,-2.994144365287661369
0.254000000000000115,-3.236105317727198560
0.255000000000000115,-3.471280358378973752
0.256000000000000116,-3.699712895918810140
0.257000000000000117,-3.921450048934699062
0.258000000000000118,-4.136542801144809545
0.259000000000000119,-4.345046090416496476
0.260000000000000120,-4.547018837623689080
0.261000000000000121,-4.742523921394027120
0.262000000000000122,-4.931628104734554263
0.263000000000000123,-5.114401919395312746
0.264000000000000123,-5.290919513646427319
0.265000000000000124,-5.461258468914631514
0.266000000000000125,-5.625499590459936528
0.267000000000000126,-5.783726676979435766
0.268000000000000127,-5.936026273711673795
0.269000000000000128,-6.082487413286655098
0.270000000000000129,-6.223201348230619878
0.271000000000000130,-6.358261278695592544
0.272000000000000131,-6.487762078645583408
0.273000000000000131,-6.611800023398477499
0.274000000000000132,-6.730472521097873084
0.275000000000000133,-6.843877850375273297
0.276000000000000134,-6.952114906161879659
0.277000000000000135,-7.055282955322826233
0.278000000000000136,-7.153481403516119386
0.279000000000000137,-7.246809574424766254
0.280000000000000138,-7.335366502274004219
0.281000000000000139,-7.419250738326928385
0.282000000000000139,-7.498560171850800593
0.283000000000000140,-7.573391865863015937
0.284000000000000141,-7.643841907799751922
0.285000000000000142,-7.710005275101376121
0.286000000000000143,-7.771975715575992538
0.287000000000000144,-7.829845642285413021
0.288000000000000145,-7.883706042596193342
0.289000000000000146,-7.933646400950043365
0.290000000000000147,-7.979754634833869709
0.291000000000000147,-8.022117043367293476
0.292000000000000148,-8.060818267875383469
0.293000000000000149,-8.095941263774284025
0.294000000000000150,-8.127567283067701709
0.295000000000000151,-8.155775866731364232
0.296000000000000152,-8.180644846249625957
0.297000000000000153,-8.202250353563210084
0.298000000000000154,-8.220666838688071465
0.299000000000000155,-8.235967094272542255
0.300000000000000155,-8.248222286371907686
0.301000000000000156,-8.257501990736269448
0.302000000000000157,-8.263874233927966273
0.303000000000000158,-8.267405538608471716
0.304000000000000159,-8.268160972361298988
0.305000000000000160,-8.266204199445763123
0.306000000000000161,-8.261597534907149765
0.307000000000000162,-8.254402000500437708
0.308000000000000163,-8.244677381917352221
0.309000000000000163,-8.232482286839880814
0.310000000000000164,-8.217874203376956288
0.311000000000000165,-8.200909558474480221
0.312000000000000166,-8.181643775922388784
0.313000000000000167,-8.160131333615176175
0.314000000000000168,-8.136425819754583344
0.315000000000000169,-8.110579987714627848
0.316000000000000170,-8.082645809319657815
0.317000000000000171,-8.052674526315398040
0.318000000000000171,-8.020716699841347719
0.319000000000000172,-7.986822257739843778
0.320000000000000173,-7.951040539562859166
0.321000000000000174,-7.913420339161852723
0.322000000000000175,-7.874009944769186475
0.323000000000000176,-7.832857176501017094
0.324000000000000177,-7.790009421231978592
0.325000000000000178,-7.745513664810499854
0.326000000000000179,-7.699416521601422758
0.327000000000000179,-7.651764261358276364
0.328000000000000180,-7.602602833442436925
0.329000000000000181,-7.551977888420088547
0.330000000000000182,-7.499934797079513160
0.331000000000000183,-7.446518666922860241
0.332000000000000184,-7.391774356195791817
0.333000000000000185,-7.335746485527401717
0.334000000000000186,-7.278479447260264301
0.335000000000000187,-7.220017412557059977
0.336000000000000187,-7.160404336375925993
0.337000000000000188,-7.099683960411175221
0.338000000000000189,-7.037899814100160079
0.339000000000000190,-6.975095213799889393
0.340000000000000191,-6.911313260239261069
0.341000000000000192,-6.846596834354667926
0.342000000000000193,-6.780988591617253647
0.343000000000000194,-6.714530954960847176
0.344000000000000195,-6.647266106419084331
0.345000000000000195,-6.579235977579806161
0.346000000000000196,-6.510482238963410495
0.347000000000000197,-6.441046288430483102
0.348000000000000198,-6.370969238721978734
0.349000000000000199,-6.300291904232966367
0.350000000000000200,-6.229054787118498027
0.351000000000000201,-6.157298062827189611
0.352000000000000202,-6.085061565155177377
0.353000000000000203,-6.012384770909922516
0.354000000000000203,-5.939306784269789752
0.355000000000000204,-5.865866320921997001
0.356000000000000205,-5.792101692057761042
0.357000000000000206,-5.718050788299940734
0.358000000000000207,-5.643751063634413256
0.359000000000000208,-5.569239519413005546
0.360000000000000209,-5.494552688491692649
0.361000000000000210,-5.419726619564062986
0.362000000000000210,-5.344796861746273109
0.363000000000000211,-5.269798449465860735
0.364000000000000212,-5.194765887703218787
0.365000000000000213,-5.119733137630612774
0.366000000000000214,-5.044733602690284258
0.367000000000000215,-4.969800115149451081
0.368000000000000216,-4.894964923166709170
0.369000000000000217,-4.820259678400869774
0.370000000000000218,-4.745715424190164455
0.371000000000000218,-4.671362584326389289
0.372000000000000219,-4.597230952445718444
0.373000000000000220,-4.523349682054870868
0.374000000000000221,-4.449747277208564000
0.375000000000000222,-4.376451583851346250
0.376000000000000223,-4.303489781834546335
0.377000000000000224,-4.230888377616404128
0.378000000000000225,-4.158673197651211240
0.379000000000000226,-4.086869382471014944
0.380000000000000226,-4.015501381461429098
0.381000000000000227,-3.944592948330908566
0.382000000000000228,-3.874167137271206318
0.383000000000000229,-3.804246299804842746
0.384000000000000230,-3.734852082313705246
0.385000000000000231,-3.666005424241594479
0.386000000000000232,-3.597726556961843958
0.387000000000000233,-3.530035003300006302
0.388000000000000234,-3.462949577700244586
0.389000000000000234,-3.396488387023136823
0.390000000000000235,-3.330668831961299592
0.391000000000000236,-3.265507609058640348
0.392000000000000237,-3.201020713317879629
0.393000000000000238,-3.137223441380522448
0.394000000000000239,-3.074130395262562043
0.395000000000000240,-3.011755486628762579
0.396000000000000241,-2.950111941587791442
0.397000000000000242,-2.889212305989986795
0.398000000000000242,-2.829068451209331592
0.399000000000000243,-2.769691580390712282
0.400000000000000244,-2.711092235143364171
0.401000000000000245,-2.653280302661395140
0.402000000000000246,-2.596265023251834059
0.403000000000000247,-2.540054998250822482
0.404000000000000248,-2.484658198308497656
0.405000000000000249,-2.430081972023082848
0.406000000000000250,-2.376333054904791631
0.407000000000000250,-2.323417578650308180
0.408000000000000251,-2.271341080708672244
0.409000000000000252,-2.220108514119685683
0.410000000000000253,-2.169724257606043594
0.411000000000000254,-2.120192125900773217
0.412000000000000255,-2.071515380291727215
0.413000000000000256,-2.023696739365276720
0.414000000000000257,-1.976738389931537609
0.415000000000000258,-1.930641998113996394
0.416000000000000258,-1.885408720586557951
0.417000000000000259,-1.841039215941588925
0.418000000000000260,-1.797533656172821237
0.419000000000000261,-1.754891738257404743
0.420000000000000262,-1.713112695821870091
0.421000000000000263,-1.672195310877142349
0.422000000000000264,-1.632137925608163398
0.423000000000000265,-1.592938454204169574
0.424000000000000266,-1.554594394716166228
0.425000000000000266,-1.517102840928419516
0.426000000000000267,-1.480460494231454316
0.427000000000000268,-1.444663675484366694
0.428000000000000269,-1.409708336854739397
0.429000000000000270,-1.375590073624979315
0.430000000000000271,-1.342304135954228927
0.431000000000000272,-1.309845440585587495
0.432000000000000273,-1.278208582488714828
0.433000000000000274,-1.247387846428439362
0.434000000000000274,-1.217377218450339749
0.435000000000000275,-1.188170397274777468
0.436000000000000276,-1.159760805591268928
0.437000000000000277,-1.132141601245471696
0.438000000000000278,-1.105305688311543744
0.439000000000000279,-1.079245728043006114
0.440000000000000280,-1.053954149695634834
0.441000000000000281,-1.029423161216312277
0.442000000000000282,-1.005644759792214460
0.443000000000000282,-0.982610742254925951
0.444000000000000283,-0.960312715334682210
0.445000000000000284,-0.938742105760071666
0.446000000000000285,-0.917890170198976785
0.447000000000000286,-0.897748005036973717
0.448000000000000287,-0.878306555989501136
0.449000000000000288,-0.859556627544701746
0.450000000000000289,-0.841488892233933528
0.451000000000000290,-0.824093899727379564
0.452000000000000290,-0.807362085752448166
0.453000000000000291,-0.791283780832887751
0.454000000000000292,-0.775849218846915156
0.455000000000000293,-0.761048545402789323
0.456000000000000294,-0.746871826030663710
0.457000000000000295,-0.733309054189654974
0.458000000000000296,-0.720350159089411357
0.459000000000000297,-0.707985013325611812
0.460000000000000298,-0.696203440329104639
0.461000000000000298,-0.684995221628545536
0.462000000000000299,-0.674350103926654398
0.463000000000000300,-0.664257805990326577
0.464000000000000301,-0.654708025355096979
0.465000000000000302,-0.645690444844565170
0.466000000000000303,-0.637194738905582314
0.467000000000000304,-0.629210579760128619
0.468000000000000305,-0.621727643375039052
0.469000000000000306,-0.614735615250740497
0.470000000000000306,-0.608224196030439090
0.471000000000000307,-0.602183106931205692
0.472000000000000308,-0.596602094998608612
0.473000000000000309,-0.591470938186602568
0.474000000000000310,-0.586779450264499736
0.475000000000000311,-0.582517485552969450
0.476000000000000312,-0.578674943491080951
0.477000000000000313,-0.575241773036463178
0.478000000000000314,-0.572207976900796944
0.479000000000000314,-0.569563615622895258
0.480000000000000315,-0.567298811481650178
0.481000000000000316,-0.565403752251290581
0.482000000000000317,-0.563868694801326398
0.483000000000000318,-0.562683968543720603
0.484000000000000319,-0.561839978729776091
0.485000000000000320,-0.561327209599367105
0.486000000000000321,-0.561136227385075292
0.487000000000000322,-0.561257683173912447
0.488000000000000322,-0.561682315629268070
0.489000000000000323,-0.562400953575815987
0.490000000000000324,-0.563404518450068337
0.491000000000000325,-0.564684026619316604
0.492000000000000326,-0.566230591571693642
0.493000000000000327,-0.568035425980132014
0.494000000000000328,-0.570089843642957339
0.495000000000000329,-0.572385261303880677
0.496000000000000330,-0.574913200354160603
0.497000000000000330,-0.577665288419682232
0.498000000000000331,-0.580633260835706655
0.499000000000000332,-0.583808962012030475
0.500000000000000333,-0.587184346691308479
0.501000000000000334,-0.590751481103221732
0.502000000000000335,-0.594502544017227463
0.503000000000000336,-0.598429827696557837
0.504000000000000337,-0.602525738756141016
0.505000000000000338,-0.606782798927088640
0.506000000000000338,-0.611193645730374713
0.507000000000000339,-0.615751033062296171
0.508000000000000340,-0.620447831694294072
0.509000000000000341,-0.625277029689684238
0.510000000000000342,-0.630231732739797934
0.511000000000000343,-0.635305164422032775
0.512000000000000344,-0.640490666382262486
0.513000000000000345,-0.645781698444024554
0.514000000000000346,-0.651171838646899537
0.515000000000000346,-0.656654783216394589
0.516000000000000347,-0.662224346467688796
0.517000000000000348,-0.667874460645528245
0.518000000000000349,-0.673599175702489061
0.519000000000000350,-0.679392659017843181
0.520000000000000351,-0.685249195059224769
0.521000000000000352,-0.691163184989185275
0.522000000000000353,-0.697129146218786966
0.523000000000000353,-0.703141711910267864
0.524000000000000354,-0.709195630430820012
0.525000000000000355,-0.715285764759466369
0.526000000000000356,-0.721407091848961346
0.527000000000000357,-0.727554701944660431
0.528000000000000358,-0.733723797862203098
0.529000000000000359,-0.739909694225842074
0.530000000000000360,-0.746107816669216772
0.531000000000000361,-0.752313701000327351
0.532000000000000361,-0.758522992332409274
0.533000000000000362,-0.764731444182401132
0.534000000000000363,-0.770934917538627196
0.535000000000000364,-0.777129379899302086
0.536000000000000365,-0.783310904283417431
0.537000000000000366,-0.789475668215529280
0.538000000000000367,-0.795619952685928000
0.539000000000000368,-0.801740141087658342
0.540000000000000369,-0.807832718131765271
0.541000000000000369,-0.813894268742177851
0.542000000000000370,-0.819921476931539273
0.543000000000000371,-0.825911124659297946
0.544000000000000372,-0.831860090673329333
0.545000000000000373,-0.837765349336311416
0.546000000000000374,-0.843623969438052734
0.547000000000000375,-0.849433112994933071
0.548000000000000376,-0.855190034037605740
0.549000000000000377,-0.860892077388019650
0.550000000000000377,-0.866536677426855251
0.551000000000000378,-0.872121356852395890
0.552000000000000379,-0.877643725431820343
0.553000000000000380,-0.883101478745911495
0.554000000000000381,-0.888492396928079464
0.555000000000000382,-0.893814343398651401
0.556000000000000383,-0.899065263595255182
0.557000000000000384,-0.904243183700184749
0.558000000000000385,-0.909346209365541780
0.559000000000000385,-0.914372524436959266
0.560000000000000386,-0.919320389676644867
0.561000000000000387,-0.924188141486516734
0.562000000000000388,-0.928974190632098074
0.563000000000000389,-0.933677020967901838
0.564000000000000390,-0.938295188164902094
0.565000000000000391,-0.942827318440784601
0.566000000000000392,-0.947272107293547494
0.567000000000000393,-0.951628318239041038
0.568000000000000393,-0.955894781553013884
0.569000000000000394,-0.960070393018204293
0.570000000000000395,-0.964154112676978370
0.571000000000000396,-0.968144963590017560
0.572000000000000397,-0.972042030601534046
0.573000000000000398,-0.975844459111445017
0.574000000000000399,-0.979551453854954679
0.575000000000000400,-0.983162277689942243
0.576000000000000401,-0.986676250392546250
0.577000000000000401,-0.990092747461337241
0.578000000000000402,-0.993411198930402861
0.579000000000000403,-0.996631088191695325
0.580000000000000404,-0.999751950826969660
0.581000000000000405,-1.002773373449589167
0.582000000000000406,-1.005694992556508183
0.583000000000000407,-1.008516493390679836
0.584000000000000408,-1.011237608814155475
0.585000000000000409,-1.013858118192099145
0.586000000000000409,-1.016377846287960685
0.587000000000000410,-1.018796662169992429
0.588000000000000411,-1.021114478129314218
0.589000000000000412,-1.023331248609721245
0.590000000000000413,-1.025446969149363508
0.591000000000000414,-1.027461675334497837
0.592000000000000415,-1.029375441765424171
0.593000000000000416,-1.031188381034742640
0.594000000000000417,-1.032900642718056261
0.595000000000000417,-1.034512412377225576
0.596000000000000418,-1.036023910576258533
0.597000000000000419,-1.037435391909947269
0.598000000000000420,-1.038747144045299997
0.599000000000000421,-1.039959486775849040
0.600000000000000422,-1.041072771088898730
0.601000000000000423,-1.042087378245732721
0.602000000000000424,-1.043003718874848440
0.603000000000000425,-1.043822232078244650
0.604000000000000425,-1.044543384550756793
0.605000000000000426,-1.045167669712481651
0.606000000000000427,-1.045695606854305071
0.607000000000000428,-1.046127740296473707
0.608000000000000429,-1.046464638560303584
0.609000000000000430,-1.046706893552882267
0.610000000000000431,-1.046855119764871889
0.611000000000000432,-1.046909953481287792
0.612000000000000433,-1.046872052005254350
0.613000000000000433,-1.046742092894730192
