# CNT15-NH3+-4_VALSCA-AC
# h[nm],U(h)[kJ/mol]
0.149999999999999994,139.521293431969127141
0.150999999999999995,136.824316274025420626
0.151999999999999996,135.481126430570498087
0.152999999999999997,134.425924570254636592
0.153999999999999998,133.259425231987876259
0.154999999999999999,131.900799161621847588
0.156000000000000000,130.397388448223807700
0.157000000000000001,128.828223975581352079
0.158000000000000002,127.261128299378967199
0.159000000000000002,125.738711259431823919
0.160000000000000003,124.278560139972498177
0.161000000000000004,122.879242116570978283
0.162000000000000005,121.527634605061578554
0.163000000000000006,120.205430442360608367
0.164000000000000007,118.893999336820087365
0.165000000000000008,117.577501682350657575
0.166000000000000009,116.244491635679423780
0.167000000000000010,114.888371140902862066
0.168000000000000010,113.507064440215657442
0.169000000000000011,112.102233984271947520
0.170000000000000012,110.678288978374297358
0.171000000000000013,109.241366617100680969
0.172000000000000014,107.798403094533654212
0.173000000000000015,106.356360597149432579
0.174000000000000016,104.921638247392408516
0.175000000000000017,103.499668209608060465
0.176000000000000018,102.094680994799006157
0.177000000000000018,100.709614325821604552
0.178000000000000019,99.346135794809953268
0.179000000000000020,98.004749273841099466
0.180000000000000021,96.684957259794913398
0.181000000000000022,95.385454988428506340
0.182000000000000023,94.104336462793654050
0.183000000000000024,92.839296962996741058
0.184000000000000025,91.587820780946458399
0.185000000000000026,90.347346642119575222
0.186000000000000026,89.115406429813532441
0.187000000000000027,87.889735384327750012
0.188000000000000028,86.668353928867446712
0.189000000000000029,85.449622725809376789
0.190000000000000030,84.232273558500693866
0.191000000000000031,83.015419239074304869
0.192000000000000032,81.798546035916658070
0.193000000000000033,80.581492164903693265
0.194000000000000034,79.364415758661507994
0.195000000000000034,78.147755471739301925
0.196000000000000035,76.932186541726437667
0.197000000000000036,75.718574743459257093
0.198000000000000037,74.507930274130870885
0.199000000000000038,73.301363212919625312
0.200000000000000039,72.100041825255800632
0.201000000000000040,70.905154639578512388
0.202000000000000041,69.717876919831070381
0.203000000000000042,68.539341893190254495
0.204000000000000042,67.370616870320645830
0.205000000000000043,66.212684213649396270
0.206000000000000044,65.066426965322690990
0.207000000000000045,63.932618837341067319
0.208000000000000046,62.811918188080369418
0.209000000000000047,61.704865557975949741
0.210000000000000048,60.611884308550543210
0.211000000000000049,59.533283899324430877
0.212000000000000050,58.469265342816029829
0.213000000000000050,57.419928395512599195
0.214000000000000051,56.385280069391534141
0.215000000000000052,55.365244081716284086
0.216000000000000053,54.359670898187133048
0.217000000000000054,53.368348064226736938
0.218000000000000055,52.391010559682321457
0.219000000000000056,51.427350952295533659
0.220000000000000057,50.477029163954298951
0.221000000000000058,49.539681700283821897
0.222000000000000058,48.614930228020327263
0.223000000000000059,47.702389415511085247
0.224000000000000060,46.801673979391587466
0.225000000000000061,45.912404904932657246
0.226000000000000062,45.034214828745199100
0.227000000000000063,44.166752590576187742
0.228000000000000064,43.309686975976902090
0.229000000000000065,42.462709683868453681
0.230000000000000066,41.625537562694169935
0.231000000000000066,40.797914166168666839
0.232000000000000067,39.979610684860574565
0.233000000000000068,39.170426313221810233
0.234000000000000069,38.370188113446694445
0.235000000000000070,37.578750437936172091
0.236000000000000071,36.795993971378237575
0.237000000000000072,36.021824451733223782
0.238000000000000073,35.256171126922204451
0.239000000000000073,34.498985000924683675
0.240000000000000074,33.750236919446663819
0.241000000000000075,33.009915541459875499
0.242000000000000076,32.278025238849224365
0.243000000000000077,31.554583962240361217
0.244000000000000078,30.839621106898420066
0.245000000000000079,30.133175408461710276
0.246000000000000080,29.435292894261397834
0.247000000000000081,28.746024912122873474
0.248000000000000081,28.065426254888215851
0.249000000000000082,27.393553395464227407
0.250000000000000111,26.730462844009611700
0.251000000000000112,26.076209635938436548
0.252000000000000113,25.430845956741617186
0.253000000000000114,24.794419907216465049
0.254000000000000115,24.166974410540635887
0.255000000000000115,23.548546260727352575
0.256000000000000116,22.939165310342421122
0.257000000000000117,22.338853793939716041
0.258000000000000118,21.747625782468155364
0.259000000000000119,21.165486762903764628
0.260000000000000120,20.592433336551579259
0.261000000000000121,20.028453028829236615
0.262000000000000122,19.473524202869086253
0.263000000000000123,18.927616068946733208
0.264000000000000123,18.390688781542635866
0.265000000000000124,17.862693615757944343
0.266000000000000125,17.343573214820764861
0.267000000000000126,16.833261900521719667
0.268000000000000127,16.331686038595403687
0.269000000000000128,15.838764451306428072
0.270000000000000129,15.354408869793275016
0.271000000000000130,14.878524419060195072
0.272000000000000131,14.411010128880146652
0.273000000000000131,13.951759464268272737
0.274000000000000132,13.500660869602189251
0.275000000000000133,13.057598320892939370
0.276000000000000134,12.622451881144266750
0.277000000000000135,12.195098254173649011
0.278000000000000136,11.775411332699075473
0.279000000000000137,11.363262736920269447
0.280000000000000138,10.958522340236809711
0.281000000000000139,10.561058779145614750
0.282000000000000139,10.170739944745388783
0.283000000000000140,9.787433453643240355
0.284000000000000141,9.411007096407530526
0.285000000000000142,9.041329262040415315
0.286000000000000143,8.678269337252267235
0.287000000000000144,8.321698079608564669
0.288000000000000145,7.971487963886313644
0.289000000000000146,7.627513501224214565
0.290000000000000147,7.289651530875177698
0.291000000000000147,6.957781484575958686
0.292000000000000148,6.631785623733252422
0.293000000000000149,6.311549249792617999
0.294000000000000150,5.996960888303939363
0.295000000000000151,5.687912447327706289
0.296000000000000152,5.384299350939843798
0.297000000000000153,5.086020648690687374
0.298000000000000154,4.792979101956244214
0.299000000000000155,4.505081248189003240
0.300000000000000155,4.222237444131123674
0.301000000000000156,3.944361889096890561
0.302000000000000157,3.671372629463257820
0.303000000000000158,3.403191545530420026
0.304000000000000159,3.139744321926569270
0.305000000000000160,2.880960402735824655
0.306000000000000161,2.626772932525018867
0.307000000000000162,2.377118684434610607
0.308000000000000163,2.131937976483032848
0.309000000000000163,1.891174577211926167
0.310000000000000164,1.654775601773050386
0.311000000000000165,1.422691399527386658
0.312000000000000166,1.194875434192556041
0.313000000000000167,0.971284157537706028
0.314000000000000168,0.751876877585508252
0.315000000000000169,0.536615622239315915
0.316000000000000170,0.325464999210403672
0.317000000000000171,0.118392053076265838
0.318000000000000171,-0.084633879744162629
0.319000000000000172,-0.283641317358065637
0.320000000000000173,-0.478656779413876410
0.321000000000000174,-0.669704934114448203
0.322000000000000175,-0.856808744623733021
0.323000000000000176,-1.039989614306593868
0.324000000000000177,-1.219267530285264023
0.325000000000000178,-1.394661204838229196
0.326000000000000179,-1.566188214209385920
0.327000000000000179,-1.733865134435033983
0.328000000000000180,-1.897707673835756337
0.329000000000000181,-2.057730801857594827
0.330000000000000182,-2.213948873982998222
0.331000000000000183,-2.366375752466886251
0.332000000000000184,-2.515024922685827669
0.333000000000000185,-2.659909604919989512
0.334000000000000186,-2.801042861417300855
0.335000000000000187,-2.938437698617360816
0.336000000000000187,-3.072107164439463300
0.337000000000000188,-3.202064440563622050
0.338000000000000189,-3.328322929657459017
0.339000000000000190,-3.450896337523345014
0.340000000000000191,-3.569798750160428025
0.341000000000000192,-3.685044705755314620
0.342000000000000193,-3.796649261632367711
0.343000000000000194,-3.904628056210745601
0.344000000000000195,-4.008997366029529275
0.345000000000000195,-4.109774157916402437
0.346000000000000196,-4.206976136386481713
0.347000000000000197,-4.300621786369555721
0.348000000000000198,-4.390730411373238162
0.349000000000000199,-4.477322167198322767
0.350000000000000200,-4.560418091330261881
0.351000000000000201,-4.640040128137135511
0.352000000000000202,-4.716211150010192199
0.353000000000000203,-4.788954974587836588
0.354000000000000203,-4.858296378207905164
0.355000000000000204,-4.924261105735927124
0.356000000000000205,-4.986875876919897088
0.357000000000000206,-5.046168389423669076
0.358000000000000207,-5.102167318691821052
0.359000000000000208,-5.154902314799955754
0.360000000000000209,-5.204403996443931923
0.361000000000000210,-5.250703942221020881
0.362000000000000210,-5.293834679355141404
0.363000000000000211,-5.333829670016689839
0.364000000000000212,-5.370723295385907647
0.365000000000000213,-5.404550837606208802
0.366000000000000214,-5.435348459771816465
0.367000000000000215,-5.463153184090887571
0.368000000000000216,-5.488002868362704234
0.369000000000000217,-5.509936180903816982
0.370000000000000218,-5.528992574055068943
0.371000000000000218,-5.545212256397331174
0.372000000000000219,-5.558636163800491303
0.373000000000000220,-5.569305929426110247
0.374000000000000221,-5.577263852800241395
0.375000000000000222,-5.582552868068798801
0.376000000000000223,-5.585216511544044415
0.377000000000000224,-5.585298888646264892
0.378000000000000225,-5.582844640340691278
0.379000000000000226,-5.577898909165549313
0.380000000000000226,-5.570507304943068227
0.381000000000000227,-5.560715870260652061
0.382000000000000228,-5.548571045805994473
0.383000000000000229,-5.534119635635148526
0.384000000000000230,-5.517408772448828991
0.385000000000000231,-5.498485882948385139
0.386000000000000232,-5.477398653338468648
0.387000000000000233,-5.454194995040107408
0.388000000000000234,-5.428923010673625704
0.389000000000000234,-5.401630960367572065
0.390000000000000235,-5.372367228445858345
0.391000000000000236,-5.341180290542006048
0.392000000000000237,-5.308118681185833410
0.393000000000000238,-5.273230961904763703
0.394000000000000239,-5.236565689878365681
0.395000000000000240,-5.198171387182073389
0.396000000000000241,-5.158096510652611322
0.397000000000000242,-5.116389422404807874
0.398000000000000242,-5.073098361026955772
0.399000000000000243,-5.028271413478696772
0.400000000000000244,-4.981956487713151915
0.401000000000000245,-4.934201286042458889
0.402000000000000246,-4.885053279263281034
0.403000000000000247,-4.834559681556821253
0.404000000000000248,-4.782767426175515979
0.405000000000000249,-4.729723141926575281
0.406000000000000250,-4.675473130460428450
0.407000000000000250,-4.620063344370433533
0.408000000000000251,-4.563539366108175344
0.409000000000000252,-4.505946387717196799
0.410000000000000253,-4.447329191386231173
0.411000000000000254,-4.387732130821558663
0.412000000000000255,-4.327199113436641653
0.413000000000000256,-4.265773583355917609
0.414000000000000257,-4.203498505228173698
0.415000000000000258,-4.140416348844036420
0.416000000000000258,-4.076569074550680405
0.417000000000000259,-4.011998119456053224
0.418000000000000260,-3.946744384413886308
0.419000000000000261,-3.880848221779793938
0.420000000000000262,-3.814349423928069971
0.421000000000000263,-3.747287212517958377
0.422000000000000264,-3.679700228497469361
0.423000000000000265,-3.611626522832157349
0.424000000000000266,-3.543103547945930298
0.425000000000000266,-3.474168149859974797
0.426000000000000267,-3.404856561015964012
0.427000000000000268,-3.335204393768822051
0.428000000000000269,-3.265246634534255232
0.429000000000000270,-3.195017638575921470
0.430000000000000271,-3.124551125416508590
0.431000000000000272,-3.053880174857282359
0.432000000000000273,-2.983037223589982467
0.433000000000000274,-2.912054062385153852
0.434000000000000274,-2.840961833840532691
0.435000000000000275,-2.769791030673405707
0.436000000000000276,-2.698571494540502602
0.437000000000000277,-2.627332415369030283
0.438000000000000278,-2.556102331182576570
0.439000000000000279,-2.484909128405535572
0.440000000000000280,-2.413780042629720235
0.441000000000000281,-2.342741659827039413
0.442000000000000282,-2.271819917992163873
0.443000000000000282,-2.201040109199102535
0.444000000000000283,-2.130426882055996174
0.445000000000000284,-2.060004244542394947
0.446000000000000285,-1.989795567213409999
0.447000000000000286,-1.919823586755733391
0.448000000000000287,-1.850110409880027618
0.449000000000000288,-1.780677517535176335
0.450000000000000289,-1.711545769429417163
0.451000000000000290,-1.642735408844141487
0.452000000000000290,-1.574266067726123097
0.453000000000000291,-1.506156772044192182
0.454000000000000292,-1.438425947396823057
0.455000000000000293,-1.371091424857094454
0.456000000000000294,-1.304170447042048320
0.457000000000000295,-1.237679674393559193
0.458000000000000296,-1.171635191658111808
0.459000000000000297,-1.106052514553365063
0.460000000000000298,-1.040946596609358066
0.461000000000000298,-0.976331836172886325
0.462000000000000299,-0.912222083563503316
0.463000000000000300,-0.848630648370118812
0.464000000000000301,-0.785570306877463098
0.465000000000000302,-0.723053309611912609
0.466000000000000303,-0.661091388996377316
0.467000000000000304,-0.599695767104517996
0.468000000000000305,-0.538877163504611567
0.469000000000000306,-0.478645803183708807
0.470000000000000306,-0.419011424543241418
0.471000000000000307,-0.359983287457102341
0.472000000000000308,-0.301570181384002434
0.473000000000000309,-0.243780433525766005
0.474000000000000310,-0.186621917023826522
0.475000000000000311,-0.130102059186117863
0.476000000000000312,-0.074227849737387608
0.477000000000000313,-0.019005849085424912
0.478000000000000314,0.035557803403248454
0.479000000000000314,0.089457381124871158
0.480000000000000315,0.142687561963474402
0.481000000000000316,0.195243420025329545
0.482000000000000317,0.247120417388740160
0.483000000000000318,0.298314395874591187
0.484000000000000319,0.348821568843062313
0.485000000000000320,0.398638513021470020
0.486000000000000321,0.447762160368159190
0.487000000000000322,0.496189789976994700
0.488000000000000322,0.543919020026967903
0.489000000000000323,0.590947799780888072
0.490000000000000324,0.637274401637379917
0.491000000000000325,0.682897413239766271
0.492000000000000326,0.727815729645573506
0.493000000000000327,0.772028545559893864
0.494000000000000328,0.815535347635895413
0.495000000000000329,0.858335906845477892
0.496000000000000330,0.900430270922893738
0.497000000000000330,0.941818756883981201
0.498000000000000331,0.982501943623607099
0.499000000000000332,1.022480664593456323
0.500000000000000333,1.061756000562543267
0.501000000000000334,1.100329272462389429
0.502000000000000335,1.138202034318692935
0.503000000000000336,1.175376066271280662
0.504000000000000337,1.211853367683942251
0.505000000000000338,1.247636150345544648
0.506000000000000338,1.282726831763790543
0.507000000000000339,1.317128028552851715
0.508000000000000340,1.350842549915911794
0.509000000000000341,1.383873391223548577
0.510000000000000342,1.416223727688922462
0.511000000000000343,1.447896908140392958
0.512000000000000344,1.478896448892281779
0.513000000000000345,1.509226027714269058
0.514000000000000346,1.538889477899879399
0.515000000000000346,1.567890782434418373
0.516000000000000347,1.596234068262621708
0.517000000000000348,1.623923600656108635
0.518000000000000349,1.650963777680885203
0.519000000000000350,1.677359124764737697
0.520000000000000351,1.703114289364597411
0.521000000000000352,1.728234035733624996
0.522000000000000353,1.752723239787882026
0.523000000000000353,1.776586884072335337
0.524000000000000354,1.799830052825758031
0.525000000000000355,1.822457927144262468
0.526000000000000356,1.844475780242950780
0.527000000000000357,1.865888972815128666
0.528000000000000358,1.886702948488720555
0.529000000000000359,1.906923229378989060
0.530000000000000360,1.926555411737223000
0.531000000000000361,1.945605161694451635
0.532000000000000361,1.964078211099647975
0.533000000000000362,1.981980353451465504
0.534000000000000363,1.999317439922890571
0.535000000000000364,2.016095375477813256
0.536000000000000365,2.032320115078743328
0.537000000000000366,2.047997659984712282
0.538000000000000367,2.063134054138493489
0.539000000000000368,2.077735380642075746
0.540000000000000369,2.091807758319567778
0.541000000000000369,2.105357338366359521
0.542000000000000370,2.118390301083654670
0.543000000000000371,2.130912852697274928
0.544000000000000372,2.142931222259655932
0.545000000000000373,2.154451658634000566
0.546000000000000374,2.165480427559505205
0.547000000000000375,2.176023808796520687
0.548000000000000376,2.186088093350546657
0.549000000000000377,2.195679580773964634
0.550000000000000377,2.204804576544360017
0.551000000000000378,2.213469389518270880
0.552000000000000379,2.221680329459272851
0.553000000000000380,2.229443704639189949
0.554000000000000381,2.236765819511332687
0.555000000000000382,2.243652972454555528
0.556000000000000383,2.250111453587035459
0.557000000000000384,2.256147542648524240
0.558000000000000385,2.261767506950027151
0.559000000000000385,2.266977599389639941
0.560000000000000386,2.271784056533458607
0.561000000000000387,2.276193096760381174
0.562000000000000388,2.280210918469643744
0.563000000000000389,2.283843698349957041
0.564000000000000390,2.287097589709086165
0.565000000000000391,2.289978720862738015
0.566000000000000392,2.292493193581654598
0.567000000000000393,2.294647081595702964
0.568000000000000393,2.296446429153953694
0.569000000000000394,2.297897249639533346
0.570000000000000395,2.299005524238226350
0.571000000000000396,2.299777200659681498
0.572000000000000397,2.300218191910116339
0.573000000000000398,2.300334375115558050
0.574000000000000399,2.300131590394355996
0.575000000000000400,2.299615639778128440
0.576000000000000401,2.298792286179925703
0.577000000000000401,2.297667252408627903
0.578000000000000402,2.296246220228584267
0.579000000000000403,2.294534829463456660
0.580000000000000404,2.292538677143205916
0.581000000000000405,2.290263316693328832
0.582000000000000406,2.287714257165291976
0.583000000000000407,2.284896962507202645
0.584000000000000408,2.281816850873806146
0.585000000000000409,2.278479293974797315
0.586000000000000409,2.274889616460566977
0.587000000000000410,2.271053095344435668
0.588000000000000411,2.266974959460485550
0.589000000000000412,2.262660388956070356
0.590000000000000413,2.258114514818156060
0.591000000000000414,2.253342418432601413
0.592000000000000415,2.248349131175523929
0.593000000000000416,2.243139634035910213
0.594000000000000417,2.237718857268666817
0.595000000000000417,2.232091680077223472
0.596000000000000418,2.226262930324993228
0.597000000000000419,2.220237384274792003
0.598000000000000420,2.214019766355515451
0.599000000000000421,2.207614748955271544
0.600000000000000422,2.201026952240220602
0.601000000000000423,2.194260943998409097
0.602000000000000424,2.187321239507839188
0.603000000000000425,2.180212301428073651
0.604000000000000425,2.172938539714684758
0.605000000000000426,2.165504311555873418
0.606000000000000427,2.157913921330494755
0.607000000000000428,2.150171620587022936
0.608000000000000429,2.142281608042508445
0.609000000000000430,2.134248029601249819
0.610000000000000431,2.126074978392217929
0.611000000000000432,2.117766494824836698
0.612000000000000433,2.109326566662472313
0.613000000000000433,2.100759129112962587
0.614000000000000434,2.092068064935716176
0.615000000000000435,2.083257204564759490
0.616000000000000436,2.074330326247196599
