# CNT15-NH3+-4_CS-1057-AC
# h[nm],U(h)[kJ/mol]
0.200000000000000011,67.248191366423824888
0.201000000000000012,66.445299292775047206
0.202000000000000013,65.249992443120461871
0.203000000000000014,63.889867279513168796
0.204000000000000015,62.488058245772023724
0.205000000000000016,61.103793136999151159
0.206000000000000016,59.759215675484540498
0.207000000000000017,58.456641129384500744
0.208000000000000018,57.189253018120915328
0.209000000000000019,55.947391456104526242
0.210000000000000020,54.721952706688512080
0.211000000000000021,53.505958648459696292
0.212000000000000022,52.295021112094353555
0.213000000000000023,51.087186779794571123
0.214000000000000024,49.882478845195507233
0.215000000000000024,48.682333292068214803
0.216000000000000025,47.489046500934378514
0.217000000000000026,46.305296515254141809
0.218000000000000027,45.133764966616283232
0.219000000000000028,43.976864680955429776
0.220000000000000029,42.836565208027749918
0.221000000000000030,41.714301925782706348
0.222000000000000031,40.610951817354688842
0.223000000000000032,39.526858982190702818
0.224000000000000032,38.461894370786794184
0.225000000000000033,37.415536409980390431
0.226000000000000034,36.386961642260267524
0.227000000000000035,35.375136941311318139
0.228000000000000036,34.378907111760632631
0.229000000000000037,33.397073641973264557
0.230000000000000038,32.428462018526268196
0.231000000000000039,31.471976329179945253
0.232000000000000040,30.526640898936243218
0.233000000000000040,29.591629454180338854
0.234000000000000041,28.666282831248558693
0.235000000000000042,27.750116577260392603
0.236000000000000043,26.842819970072689273
0.237000000000000044,25.944248044745052084
0.238000000000000045,25.054408185740225434
0.239000000000000046,24.173442752588904625
0.240000000000000047,23.301609072935036693
0.241000000000000048,22.439257977724270887
0.242000000000000048,21.586811882140370500
0.243000000000000049,20.744743242909315484
0.244000000000000050,19.913554055267002951
0.245000000000000051,19.093756896457751537
0.246000000000000052,18.285857880527863983
0.247000000000000053,17.490341763359229077
0.248000000000000054,16.707659328194701231
0.249000000000000055,15.938217090324190650
0.250000000000000056,15.182369284488640204
0.251000000000000056,14.440412038849945731
0.252000000000000057,13.712579593716487381
0.253000000000000058,12.999042390100475686
0.254000000000000059,12.299906831037548116
0.255000000000000060,11.615216505856347240
0.256000000000000061,10.944954662732515160
0.257000000000000062,10.289047716480265393
0.258000000000000063,9.647369585322548957
0.259000000000000064,9.019746661164003143
0.260000000000000064,8.405963231631606192
0.261000000000000065,7.805767187942796781
0.262000000000000066,7.218875869735117412
0.263000000000000067,6.644981915698599195
0.264000000000000068,6.083759006654045898
0.265000000000000069,5.534867405186066236
0.266000000000000070,4.997959212731916345
0.267000000000000071,4.472683280885764390
0.268000000000000071,3.958689728420537790
0.269000000000000072,3.455634029028169518
0.270000000000000073,2.963180646962205067
0.271000000000000074,2.481006208602859253
0.272000000000000075,2.008802207457297762
0.273000000000000076,1.546277248290203410
0.274000000000000077,1.093158843003271485
0.275000000000000078,0.649194776617991076
0.276000000000000079,0.214154066344624139
0.277000000000000079,-0.212172459670898400
0.278000000000000080,-0.629971934645466414
0.279000000000000081,-1.039409545374202715
0.280000000000000082,-1.440628912117958293
0.281000000000000083,-1.833752723448470734
0.282000000000000084,-2.218883593423700784
0.283000000000000085,-2.596105109027350366
0.284000000000000086,-2.965483036765042435
0.285000000000000087,-3.327066658590851489
0.286000000000000087,-3.680890208879092906
0.287000000000000088,-4.026974385895132791
0.288000000000000089,-4.365327913103354440
0.289000000000000090,-4.695949127632909281
0.290000000000000091,-5.018827575259401819
0.291000000000000092,-5.333945593319795009
0.292000000000000093,-5.641279865024431572
0.293000000000000094,-5.940802930640563417
0.294000000000000095,-6.232484642972921485
0.295000000000000095,-6.516293556442262158
0.296000000000000096,-6.792198240846881063
0.297000000000000097,-7.060168512575860866
0.298000000000000098,-7.320176577617073299
0.299000000000000099,-7.572198082163536625
0.300000000000000100,-7.816213067964556060
0.301000000000000101,-8.052206830793686265
0.302000000000000102,-8.280170681512068143
0.303000000000000103,-8.500102610198567277
0.304000000000000103,-8.712007854696398823
0.305000000000000104,-8.915899375697385665
0.306000000000000105,-9.111798241152090583
0.307000000000000106,-9.299733923362712318
0.308000000000000107,-9.479744512592569450
0.309000000000000108,-9.651876851415455150
0.310000000000000109,-9.816186594338685012
0.311000000000000110,-9.972738197468753896
0.312000000000000111,-10.121604843157843590
0.313000000000000111,-10.262868304675627940
0.314000000000000112,-10.396618756002844464
0.315000000000000113,-10.522954531845028825
0.316000000000000114,-10.641981842923213364
0.317000000000000115,-10.753814451517829553
0.318000000000000116,-10.858573312128489974
0.319000000000000117,-10.956386181969657301
0.320000000000000118,-11.047387205855489611
0.321000000000000119,-11.131716479840354950
0.322000000000000119,-11.209519597778188071
0.323000000000000120,-11.280947184747779133
0.324000000000000121,-11.346154421065824280
0.325000000000000122,-11.405300560376844032
0.326000000000000123,-11.458548445072988642
0.327000000000000124,-11.506064022058358987
0.328000000000000125,-11.548015861634974399
0.329000000000000126,-11.584574682051528072
0.330000000000000127,-11.615912882024405306
0.331000000000000127,-11.642204083313581364
0.332000000000000128,-11.663622685215669250
0.333000000000000129,-11.680343432623134348
0.334000000000000130,-11.692540999093731457
0.335000000000000131,-11.700389586178168599
0.336000000000000132,-11.704062540066763276
0.337000000000000133,-11.703731986438913992
0.338000000000000134,-11.699568484231814836
0.339000000000000135,-11.691740698887654659
0.340000000000000135,-11.680415095491680333
0.341000000000000136,-11.665755652076581939
0.342000000000000137,-11.647923593242056839
0.343000000000000138,-11.627077144121445329
0.344000000000000139,-11.603371304620473836
0.345000000000000140,-11.576957643755431349
0.346000000000000141,-11.547984113829611985
0.347000000000000142,-11.516594884107444585
0.348000000000000143,-11.482930193574555133
0.349000000000000143,-11.447126222309135457
0.350000000000000144,-11.409314980934745165
0.351000000000000145,-11.369624217576850711
0.352000000000000146,-11.328177341704561698
0.353000000000000147,-11.285093364204618283
0.354000000000000148,-11.240486853006396828
0.355000000000000149,-11.194467903554365051
0.356000000000000150,-11.147142123407041581
0.357000000000000151,-11.098610630229543972
0.358000000000000151,-11.048970062438797868
0.359000000000000152,-10.998312601757351814
0.360000000000000153,-10.946726006931863040
0.361000000000000154,-10.894293657876234604
0.362000000000000155,-10.841094609506376045
0.363000000000000156,-10.787203654543409570
0.364000000000000157,-10.732691394574398913
0.365000000000000158,-10.677624318674542536
0.366000000000000159,-10.622064888911108227
0.367000000000000159,-10.566071632067860264
0.368000000000000160,-10.509699236948579326
0.369000000000000161,-10.452998656639241659
0.370000000000000162,-10.396017215130573419
0.371000000000000163,-10.338798717725845577
0.372000000000000164,-10.281383564682105458
0.373000000000000165,-10.223808867557568902
0.374000000000000166,-10.166108567762140780
0.375000000000000167,-10.108313556832838387
0.376000000000000167,-10.050451797980795021
0.377000000000000168,-9.992548448481104018
0.378000000000000169,-9.934625982501513519
0.379000000000000170,-9.876704313990403605
0.380000000000000171,-9.818800919268287686
0.381000000000000172,-9.760930958991140827
0.382000000000000173,-9.703107399176527537
0.383000000000000174,-9.645341131006698987
0.384000000000000175,-9.587641089144444351
0.385000000000000175,-9.530014368319147167
0.386000000000000176,-9.472466337961348515
0.387000000000000177,-9.415000754683934048
0.388000000000000178,-9.357619872427756391
0.389000000000000179,-9.300324550107925248
0.390000000000000180,-9.243114356614887228
0.391000000000000181,-9.185987673041710266
0.392000000000000182,-9.128941792025127455
0.393000000000000183,-9.071973014103582145
0.394000000000000183,-9.015076741010357608
0.395000000000000184,-8.958247565833833193
0.396000000000000185,-8.901479359990284834
0.397000000000000186,-8.844765356967149827
0.398000000000000187,-8.788098232806493826
0.399000000000000188,-8.731470183309509636
0.400000000000000189,-8.674872997953320564
0.401000000000000190,-8.618298130520889444
0.402000000000000191,-8.561736766454178138
0.403000000000000191,-8.505179886948656787
0.404000000000000192,-8.448618329815483108
0.405000000000000193,-8.392042847144399076
0.406000000000000194,-8.335444159807204656
0.407000000000000195,-8.278813008847681232
0.408000000000000196,-8.222140203809022552
0.409000000000000197,-8.165416668055062388
0.410000000000000198,-8.108633481145970379
0.411000000000000199,-8.051781918332796550
0.412000000000000199,-7.994853487239121925
0.413000000000000200,-7.937839961800909450
0.414000000000000201,-7.880733413538449028
0.415000000000000202,-7.823526240236423845
0.416000000000000203,-7.766211192110309192
0.417000000000000204,-7.708781395538624182
0.418000000000000205,-7.651230374441963633
0.419000000000000206,-7.593552069390757886
0.420000000000000207,-7.535740854524080490
0.421000000000000207,-7.477791552362698546
0.422000000000000208,-7.419699446599163473
0.423000000000000209,-7.361460292948192929
0.424000000000000210,-7.303070328139929401
0.425000000000000211,-7.244526277138319870
0.426000000000000212,-7.185825358666242835
0.427000000000000213,-7.126965289118031066
0.428000000000000214,-7.067944284939213340
0.429000000000000214,-7.008761063552027437
0.430000000000000215,-6.949414842904093170
0.431000000000000216,-6.889905339716269950
0.432000000000000217,-6.830232766504155784
0.433000000000000218,-6.770397827446258177
0.434000000000000219,-6.710401713170133675
0.435000000000000220,-6.650246094526147900
0.436000000000000221,-6.589933115416663156
0.437000000000000222,-6.529465384746681700
0.438000000000000222,-6.468845967560173271
0.439000000000000223,-6.408078375424260287
0.440000000000000224,-6.347166556121682568
0.441000000000000225,-6.286114882709792795
0.442000000000000226,-6.224928142002738696
0.443000000000000227,-6.163611522530989539
0.444000000000000228,-6.102170602030946966
0.445000000000000229,-6.040611334514988329
0.446000000000000230,-5.978940036970509020
0.447000000000000230,-5.917163375734594055
0.448000000000000231,-5.855288352588983614
0.449000000000000232,-5.793322290617903825
0.450000000000000233,-5.731272819869862367
0.451000000000000234,-5.669147862862111253
0.452000000000000235,-5.606955619965116711
0.453000000000000236,-5.544704554702160948
0.454000000000000237,-5.482403378997805277
0.455000000000000238,-5.420061038406844389
0.456000000000000238,-5.357686697353973848
0.457000000000000239,-5.295289724412473475
0.458000000000000240,-5.232879677648909045
0.459000000000000241,-5.170466290058778114
0.460000000000000242,-5.108059455117120784
0.461000000000000243,-5.045669212465941911
0.462000000000000244,-4.983305733759493705
0.463000000000000245,-4.920979308686385778
0.464000000000000246,-4.858700331186788901
0.465000000000000246,-4.796479285881146026
0.466000000000000247,-4.734326734725804897
0.467000000000000248,-4.672253303909656097
0.468000000000000249,-4.610269671004754599
0.469000000000000250,-4.548386552382597259
0.470000000000000251,-4.486614690906835179
0.471000000000000252,-4.424964843911881829
0.472000000000000253,-4.363447771476219650
0.473000000000000254,-4.302074224997795682
0.474000000000000254,-4.240854936078367388
0.475000000000000255,-4.179800605722478579
0.476000000000000256,-4.118921893856049010
0.477000000000000257,-4.058229409168753854
0.478000000000000258,-3.997733699283403830
0.479000000000000259,-3.937445241255117079
0.480000000000000260,-3.877374432402087567
0.481000000000000261,-3.817531581469180146
0.482000000000000262,-3.757926900125100556
0.483000000000000262,-3.698570494793061325
0.484000000000000263,-3.639472358814434649
0.485000000000000264,-3.580642364944367273
0.486000000000000265,-3.522090258177778654
0.487000000000000266,-3.463825648903689824
0.488000000000000267,-3.405858006385458658
0.489000000000000268,-3.348196652564064291
0.490000000000000269,-3.290850756181106451
0.491000000000000270,-3.233829327218030958
0.492000000000000270,-3.177141211647502850
0.493000000000000271,-3.120795086492828663
0.494000000000000272,-3.064799455190807986
0.495000000000000273,-3.009162643253213254
0.496000000000000274,-2.953892794222027440
0.497000000000000275,-2.898997865913003125
0.498000000000000276,-2.844485626942273360
0.499000000000000277,-2.790363653530359311
0.500000000000000222,-2.736639326577770426
0.501000000000000334,-2.683319829006365342
0.502000000000000224,-2.630412143360466359
0.503000000000000336,-2.577923049661455135
0.504000000000000226,-2.525859123509889059
0.505000000000000338,-2.474226734428511598
0.506000000000000227,-2.423032044440203592
0.507000000000000339,-2.372281006874032094
0.508000000000000229,-2.321979365393382899
0.509000000000000341,-2.272132653239306244
0.510000000000000231,-2.222746192683036970
0.511000000000000343,-2.173825094680742698
0.512000000000000233,-2.125374258724454624
0.513000000000000345,-2.077398372882357958
0.514000000000000234,-2.029901914022403719
0.515000000000000346,-1.982889148212388708
0.516000000000000236,-1.936364131290619905
0.517000000000000348,-1.890330709600464232
0.518000000000000238,-1.844792520882856834
0.519000000000000350,-1.799752995320292426
0.520000000000000240,-1.755215356726447240
0.521000000000000352,-1.711182623875193043
0.522000000000000242,-1.667657611963171416
0.523000000000000353,-1.624642934199922895
0.524000000000000243,-1.582141003519915046
0.525000000000000355,-1.540154034410627037
0.526000000000000245,-1.498684044851243957
0.527000000000000357,-1.457732858356230787
0.528000000000000247,-1.417302106118650595
0.529000000000000359,-1.377393229247644957
0.530000000000000249,-1.338007481095102147
0.531000000000000361,-1.299145929666237098
0.532000000000000250,-1.260809460109292957
0.533000000000000362,-1.222998777279247218
0.534000000000000252,-1.185714408371014716
0.535000000000000364,-1.148956705617272922
0.536000000000000254,-1.112725849046587667
0.537000000000000366,-1.077021849297147282
0.538000000000000256,-1.041844550482134091
0.539000000000000368,-1.007193633102162478
0.540000000000000258,-0.973068617001085046
0.541000000000000369,-0.939468864360815226
0.542000000000000259,-0.906393582731686798
0.543000000000000371,-0.873841828094277462
0.544000000000000261,-0.841812507949321942
0.545000000000000373,-0.810304384432024905
0.546000000000000263,-0.779316077447521960
0.547000000000000375,-0.748846067823973893
0.548000000000000265,-0.718892700480424085
0.549000000000000377,-0.689454187605981428
0.550000000000000266,-0.660528611847674751
0.551000000000000378,-0.632113929503878902
0.552000000000000268,-0.604207973720705005
0.553000000000000380,-0.576808457688573251
0.554000000000000270,-0.549912977836540917
0.555000000000000382,-0.523519017021756516
0.556000000000000272,-0.497623947711878789
0.557000000000000384,-0.472225035157969930
0.558000000000000274,-0.447319440555919434
0.559000000000000385,-0.422904224194094958
0.560000000000000275,-0.398976348585439067
0.561000000000000387,-0.375532681581936978
0.562000000000000277,-0.352569999469754924
0.563000000000000389,-0.330084990043260196
0.564000000000000279,-0.308074255656323515
0.565000000000000391,-0.286534316249291265
0.566000000000000281,-0.265461612350184950
0.567000000000000393,-0.244852508048678696
0.568000000000000282,-0.224703293941610177
0.569000000000000394,-0.205010190048620533
0.570000000000000284,-0.185769348696916747
0.571000000000000396,-0.166976857373878629
0.572000000000000286,-0.148628741546621396
0.573000000000000398,-0.130720967447361280
0.574000000000000288,-0.113249444823832174
0.575000000000000400,-0.096210029653813714
0.576000000000000290,-0.079598526822987001
0.577000000000000401,-0.063410692765408519
0.578000000000000291,-0.047642238065936732
0.579000000000000403,-0.032288830023935691
0.580000000000000293,-0.017346095177786590
0.581000000000000405,-0.002809621789593503
0.582000000000000295,0.011325037710283925
0.583000000000000407,0.025062364319364733
0.584000000000000297,0.038406870100144146
0.585000000000000409,0.051363095858524589
0.586000000000000298,0.063935608863812263
0.587000000000000410,0.076129000610553582
0.588000000000000300,0.087947884622353853
0.589000000000000412,0.099396894297894556
0.590000000000000302,0.110480680799197345
0.591000000000000414,0.121203910982235416
0.592000000000000304,0.131571265369964163
0.593000000000000416,0.141587436167743996
0.594000000000000306,0.151257125321123842
0.595000000000000417,0.160585042615969037
0.596000000000000307,0.169575903820830542
0.597000000000000419,0.178234428871422795
0.598000000000000309,0.186565340097082172
0.599000000000000421,0.194573360489082803
0.600000000000000311,0.202263212010526272
0.601000000000000423,0.209639613947693926
0.602000000000000313,0.216707281302520094
0.603000000000000425,0.223470923226059742
0.604000000000000314,0.229935241492497111
0.605000000000000426,0.236104929013586373
0.606000000000000316,0.241984668393043778
0.607000000000000428,0.247579130520684643
0.608000000000000318,0.252892973205858185
0.609000000000000430,0.257930839849882243
0.610000000000000320,0.262697358157060912
0.611000000000000432,0.267197138883906171
0.612000000000000322,0.271434774626159336
0.613000000000000433,0.275414838643182891
0.614000000000000323,0.279141883719304373
0.615000000000000435,0.282620441061662619
0.616000000000000325,0.285855019234126817
0.617000000000000437,0.288850103126803870
0.618000000000000327,0.291610152960684321
0.619000000000000439,0.294139603326964150
0.620000000000000329,0.296442862260533013
0.621000000000000441,0.298524310347161870
0.622000000000000330,0.300388299863904085
0.623000000000000442,0.302039153952191053
0.624000000000000332,0.303481165823154209
0.625000000000000444,0.304718597994617757
0.626000000000000334,0.305755681559323034
0.627000000000000446,0.306596615483796409
0.628000000000000336,0.307245565937419640
0.629000000000000448,0.307706665651131916
0.630000000000000338,0.307984013305278470
0.631000000000000449,0.308081672946073692
0.632000000000000339,0.308003673430175429
0.633000000000000451,0.307754007896830217
0.634000000000000341,0.307336633267099868
0.635000000000000453,0.306755469769606326
0.636000000000000343,0.306014400492364502
0.637000000000000455,0.305117270960060138
0.638000000000000345,0.304067888736393066
0.639000000000000457,0.302870023050876902
0.640000000000000346,0.301527404449639769
0.641000000000000458,0.300043724469685635
0.642000000000000348,0.298422635336147102
0.643000000000000460,0.296667749681991666
0.644000000000000350,0.294782640289714681
0.645000000000000462,0.292770839854497145
0.646000000000000352,0.290635840768370957
0.647000000000000464,0.288381094924868575
0.648000000000000353,0.286010013543704811
0.649000000000000465,0.283525967014985003
0.650000000000000355,0.280932284762497542
0.651000000000000467,0.278232255125588357
0.652000000000000357,0.275429125259175900
0.653000000000000469,0.272526101051434988
0.654000000000000359,0.269526347058692939
0.655000000000000471,0.266432986457110721
0.656000000000000361,0.263249101010665509
0.657000000000000473,0.259977731055027195
0.658000000000000362,0.256621875496881091
0.659000000000000474,0.253184491828279179
0.660000000000000364,0.249668496155575292
0.661000000000000476,0.246076763242542157
0.662000000000000366,0.242412126567279756
0.663000000000000478,0.238677378392443018
