# CNT15-NH3+-4_CS-61686-AC
# h[nm],U(h)[kJ/mol]
0.149999999999999994,114.061102933374655777
0.150999999999999995,112.993549453060225574
0.151999999999999996,111.181590185615931432
0.152999999999999997,109.244655570002805689
0.153999999999999998,107.397048437938607890
0.154999999999999999,105.669361882822244070
0.156000000000000000,104.025118915885585125
0.157000000000000001,102.416832812514186912
0.158000000000000002,100.808672562101634185
0.159000000000000002,99.181993840182371969
0.160000000000000003,97.533104384838708256
0.161000000000000004,95.868380017702065743
0.162000000000000005,94.199297715854044100
0.163000000000000006,92.538482216410372416
0.164000000000000007,90.897062741714137246
0.165000000000000008,89.283240486034173955
0.166000000000000009,87.701805627841963542
0.167000000000000010,86.154308639743376830
0.168000000000000010,84.639620005492446353
0.169000000000000011,83.154667349951452593
0.170000000000000012,81.695198567454880845
0.171000000000000013,80.256473302594088182
0.172000000000000014,78.833828756443168118
0.173000000000000015,77.423098385220299633
0.174000000000000016,76.020884539763073917
0.175000000000000017,74.624700154346825798
0.176000000000000018,73.233002122472754536
0.177000000000000018,71.845141774669542656
0.178000000000000019,70.461257423633128383
0.179000000000000020,69.082131488319120649
0.180000000000000021,67.709031180086611812
0.181000000000000022,66.343547799974516010
0.182000000000000023,64.987445810773024846
0.183000000000000024,63.642529295249502752
0.184000000000000025,62.310530349493241431
0.185000000000000026,60.993021452679876404
0.186000000000000026,59.691351903581150395
0.187000000000000027,58.406606981686287838
0.188000000000000028,57.139587515650440253
0.189000000000000029,55.890806952087963566
0.190000000000000030,54.660502739521589888
0.191000000000000031,53.448658805126740390
0.192000000000000032,52.255036042164633159
0.193000000000000033,51.079207988641037730
0.194000000000000034,49.920599216878670745
0.195000000000000034,48.778524332419266329
0.196000000000000035,47.652225870341993641
0.197000000000000036,46.540909756414890808
0.198000000000000037,45.443777354494599763
0.199000000000000038,44.360053440499953581
0.200000000000000039,43.289009721557320631
0.201000000000000040,42.229983754284901920
0.202000000000000041,41.182393308862124570
0.203000000000000042,40.145746377509411218
0.204000000000000042,39.119647140484715919
0.205000000000000043,38.103798283628705690
0.206000000000000044,37.098000113185214843
0.207000000000000045,36.102146940507580553
0.208000000000000046,35.116221215655983201
0.209000000000000047,34.140285878860993307
0.210000000000000048,33.174475376101227653
0.211000000000000049,32.218985752944391265
0.212000000000000050,31.274064202230835718
0.213000000000000050,30.339998398620128484
0.214000000000000051,29.417105908533823566
0.215000000000000052,28.505723919300642422
0.216000000000000053,27.606199487671659654
0.217000000000000054,26.718880466342021407
0.218000000000000055,25.844107228436211443
0.219000000000000056,24.982205274595763456
0.220000000000000057,24.133478775654914728
0.221000000000000058,23.298205076057222129
0.222000000000000058,22.476630159154204591
0.223000000000000059,21.668965055257334740
0.224000000000000060,20.875383156607863810
0.225000000000000061,20.096018390061423986
0.226000000000000062,19.330964187987291325
0.227000000000000063,18.580273190363989499
0.228000000000000064,17.843957606011279893
0.229000000000000065,17.121990158025901962
0.230000000000000066,16.414305537490857745
0.231000000000000066,15.720802290113402577
0.232000000000000067,15.041345062352396766
0.233000000000000068,14.375767136565295701
0.234000000000000069,13.723873188515920418
0.235000000000000070,13.085442205027892015
0.236000000000000071,12.460230504464824719
0.237000000000000072,11.847974807904543937
0.238000000000000073,11.248395314215592578
0.239000000000000073,10.661198737621043975
0.240000000000000074,10.086081271646255786
0.241000000000000075,9.522731448517955499
0.242000000000000076,8.970832868042128538
0.243000000000000077,8.430066774689549902
0.244000000000000078,7.900114466022879256
0.245000000000000079,7.380659519680145664
0.246000000000000080,6.871389829871853649
0.247000000000000081,6.371999447741107048
0.248000000000000081,5.882190222980524297
0.249000000000000082,5.401673246798162076
0.250000000000000111,4.930170098687284508
0.251000000000000112,4.467413901495502770
0.252000000000000113,4.013150191021223279
0.253000000000000114,3.567137607812308264
0.254000000000000115,3.129148420016618193
0.255000000000000115,2.698968887064030042
0.256000000000000116,2.276399474660659727
0.257000000000000117,1.861254932072306856
0.258000000000000118,1.453364242986518118
0.259000000000000119,1.052570461389736867
0.260000000000000120,0.658730443899192886
0.261000000000000121,0.271714489867178277
0.262000000000000122,-0.108594099655825976
0.263000000000000123,-0.482299533333933383
0.264000000000000123,-0.849494100967862154
0.265000000000000124,-1.210258795018867684
0.266000000000000125,-1.564663972836332739
0.267000000000000126,-1.912770050736297689
0.268000000000000127,-2.254628221651388209
0.269000000000000128,-2.590281188661579304
0.270000000000000129,-2.919763907314211870
0.271000000000000130,-3.243104330242009503
0.272000000000000131,-3.560324148182655968
0.273000000000000131,-3.871439522089192842
0.274000000000000132,-4.176461801590299672
0.275000000000000133,-4.475398225611597169
0.276000000000000134,-4.768252601499016308
0.277000000000000135,-5.055025959490366816
0.278000000000000136,-5.335717179861621418
0.279000000000000137,-5.610323590525856829
0.280000000000000138,-5.878841533286194299
0.281000000000000139,-6.141266897339116682
0.282000000000000139,-6.397595618989205590
0.283000000000000140,-6.647824146873115403
0.284000000000000141,-6.891949872297823632
0.285000000000000142,-7.129971524577969788
0.286000000000000143,-7.361889531509389073
0.287000000000000144,-7.587706345341649339
0.288000000000000145,-7.807426734813882163
0.289000000000000146,-8.021058043993978259
0.290000000000000147,-8.228610418816160177
0.291000000000000147,-8.430097002343490686
0.292000000000000148,-8.625534099894855089
0.293000000000000149,-8.814941315268608690
0.294000000000000150,-8.998341659371444479
0.295000000000000151,-9.175761632620318409
0.296000000000000152,-9.347231282530119145
0.297000000000000153,-9.512784237930642206
0.298000000000000154,-9.672457721275264930
0.299000000000000155,-9.826292540510873863
0.300000000000000155,-9.974333061976027537
0.301000000000000156,-10.116627165782329456
0.302000000000000157,-10.253226185114641567
0.303000000000000158,-10.384184830858401938
0.304000000000000159,-10.509561102929966481
0.305000000000000160,-10.629416189647093560
0.306000000000000161,-10.743814356434576496
0.307000000000000162,-10.852822825113188188
0.308000000000000163,-10.956511644970778008
0.309000000000000163,-11.054953556762436406
0.310000000000000164,-11.148223850732843943
0.311000000000000165,-11.236400219698742475
0.312000000000000166,-11.319562608173628249
0.313000000000000167,-11.397793058460198523
0.314000000000000168,-11.471175554579662759
0.315000000000000169,-11.539795864850869833
0.316000000000000170,-11.603741383876741367
0.317000000000000171,-11.663100974640510543
0.318000000000000171,-11.717964811360877420
0.319000000000000172,-11.768424223702947273
0.320000000000000173,-11.814571542890693223
0.321000000000000174,-11.856499950217628481
0.322000000000000175,-11.894303328404975062
0.323000000000000176,-11.928076116210736046
0.324000000000000177,-11.957913166649495551
0.325000000000000178,-11.983909609140711794
0.326000000000000179,-12.006160715863925859
0.327000000000000179,-12.024761772560959017
0.328000000000000180,-12.039807953989775768
0.329000000000000181,-12.051394204200985172
0.330000000000000182,-12.059615121775824065
0.331000000000000183,-12.064564850135258922
0.332000000000000184,-12.066336973001661192
0.333000000000000185,-12.065024415068695163
0.334000000000000186,-12.060719347911224020
0.335000000000000187,-12.053513101144526232
0.336000000000000187,-12.043496078822025552
0.337000000000000188,-12.030757681041457374
0.338000000000000189,-12.015386230712806537
0.339000000000000190,-11.997468905425463959
0.340000000000000191,-11.977091674337827953
0.341000000000000192,-11.954339240000411593
0.342000000000000193,-11.929294985011589247
0.343000000000000194,-11.902040923395787786
0.344000000000000195,-11.872657656584344466
0.345000000000000195,-11.841224333872521157
0.346000000000000196,-11.807818617218753587
0.347000000000000197,-11.772516650247297321
0.348000000000000198,-11.735393031310561440
0.349000000000000199,-11.696520790463749151
0.350000000000000200,-11.655971370201736903
0.351000000000000201,-11.613814609805810818
0.352000000000000202,-11.570118733146646406
0.353000000000000203,-11.524950339789235443
0.354000000000000203,-11.478374399245264925
0.355000000000000204,-11.430454248218875790
0.356000000000000205,-11.381251590692830433
0.357000000000000206,-11.330826500703526705
0.358000000000000207,-11.279237427654818404
0.359000000000000208,-11.226541204023282816
0.360000000000000209,-11.172793055309799826
0.361000000000000210,-11.118046612095202619
0.362000000000000210,-11.062353924060982280
0.363000000000000211,-11.005765475839137224
0.364000000000000212,-10.948330204559152179
0.365000000000000213,-10.890095518963294197
0.366000000000000214,-10.831107319965806113
0.367000000000000215,-10.771410022535013340
0.368000000000000216,-10.711046578781891370
0.369000000000000217,-10.650058502142336181
0.370000000000000218,-10.588485892544953870
0.371000000000000218,-10.526367462459980118
0.372000000000000219,-10.463740563729535538
0.373000000000000220,-10.400641215083462399
0.374000000000000221,-10.337104130249171519
0.375000000000000222,-10.273162746568157644
0.376000000000000223,-10.208849254036037379
0.377000000000000224,-10.144194624686972972
0.378000000000000225,-10.079228642247377579
0.379000000000000226,-10.013979931987773142
0.380000000000000226,-9.948475990705688332
0.381000000000000227,-9.882743216775979889
0.382000000000000228,-9.816806940209037435
0.383000000000000229,-9.750691452660751324
0.384000000000000230,-9.684420037341556764
0.385000000000000231,-9.618014998775670676
0.386000000000000232,-9.551497692364510073
0.387000000000000233,-9.484888553711797954
0.388000000000000234,-9.418207127670862988
0.389000000000000234,-9.351472097077722978
0.390000000000000235,-9.284701311136235091
0.391000000000000236,-9.217911813424736422
0.392000000000000237,-9.151119869495795811
0.393000000000000238,-9.084340994043815343
0.394000000000000239,-9.017589977617102903
0.395000000000000240,-8.950880912853918403
0.396000000000000241,-8.884227220223831267
0.397000000000000242,-8.817641673258066248
0.398000000000000242,-8.751136423254607166
0.399000000000000243,-8.684723023445553025
0.400000000000000244,-8.618412452616166064
0.401000000000000245,-8.552215138167015951
0.402000000000000246,-8.486140978611745211
0.403000000000000247,-8.420199365505089517
0.404000000000000248,-8.354399204796912670
0.405000000000000249,-8.288748937609534906
0.406000000000000250,-8.223256560436794871
0.407000000000000250,-8.157929644764758237
0.408000000000000251,-8.092775356114746188
0.409000000000000252,-8.027800472510838503
0.410000000000000253,-7.963011402374576164
0.411000000000000254,-7.898414201850860294
0.412000000000000255,-7.834014591569628649
0.413000000000000256,-7.769817972848865217
0.414000000000000257,-7.705829443345033170
0.415000000000000258,-7.642053812157880266
0.416000000000000258,-7.578495614397004587
0.417000000000000259,-7.515159125218184855
0.418000000000000260,-7.452048373338021392
0.419000000000000261,-7.389167154035755303
0.420000000000000262,-7.326519041651647690
0.421000000000000263,-7.264107401591665791
0.422000000000000264,-7.201935401848357898
0.423000000000000265,-7.140006024048273225
0.424000000000000266,-7.078322074036494271
0.425000000000000266,-7.016886192008854550
0.426000000000000267,-6.955700862202808921
0.427000000000000268,-6.894768422157939725
0.428000000000000269,-6.834091071557145014
0.429000000000000270,-6.773670880659807381
0.430000000000000271,-6.713509798337993217
0.431000000000000272,-6.653609659727065306
0.432000000000000273,-6.593972193501862478
0.433000000000000274,-6.534599028789716435
0.434000000000000274,-6.475491701731390215
0.435000000000000275,-6.416651661701140874
0.436000000000000276,-6.358080277196880736
0.437000000000000277,-6.299778841411322716
0.438000000000000278,-6.241748577495027206
0.439000000000000279,-6.183990643521976693
0.440000000000000280,-6.126506137168217236
0.441000000000000281,-6.069296100114020653
0.442000000000000282,-6.012361522179842765
0.443000000000000282,-5.955703345206039501
0.444000000000000283,-5.899322466686408362
0.445000000000000284,-5.843219743165177782
0.446000000000000285,-5.787395993406940775
0.447000000000000286,-5.731852001349092340
0.448000000000000287,-5.676588518845592901
0.449000000000000288,-5.621606268211321478
0.450000000000000289,-5.566905944575487375
0.451000000000000290,-5.512488218052792988
0.452000000000000290,-5.458353735740625545
0.453000000000000291,-5.404503123550280286
0.454000000000000292,-5.350936987880275275
0.455000000000000293,-5.297655917139231896
0.456000000000000294,-5.244660483125931805
0.457000000000000295,-5.191951242273717959
0.458000000000000296,-5.139528736766239447
0.459000000000000297,-5.087393495531427945
0.460000000000000298,-5.035546035120229469
0.461000000000000298,-4.983986860476520953
0.462000000000000299,-4.932716465604391587
0.463000000000000300,-4.881735334138710414
0.464000000000000301,-4.831043939824827937
0.465000000000000302,-4.780642746912946883
0.466000000000000303,-4.730532210472469856
0.467000000000000304,-4.680712776631598793
0.468000000000000305,-4.631184882747121812
0.469000000000000306,-4.581948957509126785
0.470000000000000306,-4.533005420985400491
0.471000000000000307,-4.484354684609717978
0.472000000000000308,-4.435997151118508341
0.473000000000000309,-4.387933214439766694
0.474000000000000310,-4.340163259538266871
0.475000000000000311,-4.292687662220666667
0.476000000000000312,-4.245506788904297224
0.477000000000000313,-4.198620996352765644
0.478000000000000314,-4.152030631381857795
0.479000000000000314,-4.105736030538794878
0.480000000000000315,-4.059737519757706359
0.481000000000000316,-4.014035413994319512
0.482000000000000317,-3.968630016842359165
0.483000000000000318,-3.923521620134359900
0.484000000000000319,-3.878710503529186671
0.485000000000000320,-3.834196934088671238
0.486000000000000321,-3.789981165845420996
0.487000000000000322,-3.746063439363946479
0.488000000000000322,-3.702443981296908326
0.489000000000000323,-3.659123003938516749
0.490000000000000324,-3.616100704776569863
0.491000000000000325,-3.573377266044925449
0.492000000000000326,-3.530952854277761954
0.493000000000000327,-3.488827619867194585
0.494000000000000328,-3.447001696625461964
0.495000000000000329,-3.405475201352960113
0.496000000000000330,-3.364248233413246858
0.497000000000000330,-3.323320874316133544
0.498000000000000331,-3.282693187309734917
0.499000000000000332,-3.242365216982553644
0.500000000000000333,-3.202336988876279378
0.501000000000000334,-3.162608509110126143
0.502000000000000335,-3.123179764017424809
0.503000000000000336,-3.084050719795082163
0.504000000000000337,-3.045221322166471456
0.505000000000000338,-3.006691496058266466
0.506000000000000338,-2.968461145291709791
0.507000000000000339,-2.930530152288647550
0.508000000000000340,-2.892898377792735509
0.509000000000000341,-2.855565660606144363
0.510000000000000342,-2.818531817341927592
0.511000000000000343,-2.781796642192353008
0.512000000000000344,-2.745359906713300990
0.513000000000000345,-2.709221359624922165
0.514000000000000346,-2.673380726628610482
0.515000000000000346,-2.637837710240347633
0.516000000000000347,-2.602591989640426373
0.517000000000000348,-2.567643220539654880
0.518000000000000349,-2.532991035061805896
0.519000000000000350,-2.498635041642450982
0.520000000000000351,-2.464574824943943199
0.521000000000000352,-2.430809945786521098
0.522000000000000353,-2.397339941095346205
0.523000000000000353,-2.364164323863295891
0.524000000000000354,-2.331282583129431707
0.525000000000000355,-2.298694183972804339
0.526000000000000356,-2.266398567521473062
0.527000000000000357,-2.234395150976524747
0.528000000000000358,-2.202683327650699852
0.529000000000000359,-2.171262467021584541
0.530000000000000360,-2.140131914798885315
0.531000000000000361,-2.109290993005652037
0.532000000000000361,-2.078739000073046128
0.533000000000000362,-2.048475210948454084
0.534000000000000363,-2.018498877216529319
0.535000000000000364,-1.988809227232919197
0.536000000000000365,-1.959405466270313978
0.537000000000000366,-1.930286776676509719
0.538000000000000367,-1.901452318044086542
0.539000000000000368,-1.872901227391494672
0.540000000000000369,-1.844632619355006442
0.541000000000000369,-1.816645586391406386
0.542000000000000370,-1.788939198990882939
0.543000000000000371,-1.761512505899879955
0.544000000000000372,-1.734364534353532772
0.545000000000000373,-1.707494290317326913
0.546000000000000374,-1.680900758737611467
0.547000000000000375,-1.654582903800649207
0.548000000000000376,-1.628539669199859263
0.549000000000000377,-1.602769978410869101
0.550000000000000377,-1.577272734974022539
0.551000000000000378,-1.552046822784067359
0.552000000000000379,-1.527091106386609720
0.553000000000000380,-1.502404431281035402
0.554000000000000381,-1.477985624229535055
0.555000000000000382,-1.453833493571965452
0.556000000000000383,-1.429946829546105524
0.557000000000000384,-1.406324404613131129
0.558000000000000385,-1.382964973787842888
0.559000000000000385,-1.359867274973456386
0.560000000000000386,-1.337030029300556588
0.561000000000000387,-1.314451941469973573
0.562000000000000388,-1.292131700099238056
0.563000000000000389,-1.270067978072352721
0.564000000000000390,-1.248259432892577125
0.565000000000000391,-1.226704707037939324
0.566000000000000392,-1.205402428319209074
0.567000000000000393,-1.184351210240074392
0.568000000000000393,-1.163549652359206599
0.569000000000000394,-1.142996340654006016
0.570000000000000395,-1.122689847885764536
0.571000000000000396,-1.102628733965960617
0.572000000000000397,-1.082811546323516838
0.573000000000000398,-1.063236820272687622
0.574000000000000399,-1.043903079381467425
0.575000000000000400,-1.024808835840162802
0.576000000000000401,-1.005952590830023974
0.577000000000000401,-0.987332834891686217
0.578000000000000402,-0.968948048293180264
0.579000000000000403,-0.950796701397347399
0.580000000000000404,-0.932877255028498609
0.581000000000000405,-0.915188160838048881
0.582000000000000406,-0.897727861669028515
0.583000000000000407,-0.880494791919230857
0.584000000000000408,-0.863487377902878661
0.585000000000000409,-0.846704038210610799
0.586000000000000409,-0.830143184067644979
0.587000000000000410,-0.813803219689974489
0.588000000000000411,-0.797682542638422754
0.589000000000000412,-0.781779544170463581
0.590000000000000413,-0.766092609589609785
0.591000000000000414,-0.750620118592286611
0.592000000000000415,-0.735360445612069258
0.593000000000000416,-0.720311960161117870
0.594000000000000417,-0.705473027168727951
0.595000000000000417,-0.690842007316935347
0.596000000000000418,-0.676417257372928460
0.597000000000000419,-0.662197130518360266
0.598000000000000420,-0.648179976675288483
0.599000000000000421,-0.634364142828778177
0.600000000000000422,-0.620747973346013171
0.601000000000000423,-0.607329810291871497
0.602000000000000424,-0.594107993740862539
0.603000000000000425,-0.581080862085377126
0.604000000000000425,-0.568246752340173189
0.605000000000000426,-0.555604000443010948
0.606000000000000427,-0.543150941551460487
0.607000000000000428,-0.530885910335662459
0.608000000000000429,-0.518807241267233321
0.609000000000000430,-0.506913268903977920
0.610000000000000431,-0.495202328170650852
0.611000000000000432,-0.483672754635514235
