# CNT15-NH3+-4_ADENINE
# h[nm],U(h)[kJ/mol]
0.200000000000000011,60.790042381607669597
0.201000000000000012,60.539956964411523188
0.202000000000000013,59.395863422407572330
0.203000000000000014,57.864171215202190979
0.204000000000000015,56.227037309244835228
0.205000000000000016,54.625453812818328458
0.206000000000000016,53.115530586112754463
0.207000000000000017,51.705737818580459475
0.208000000000000018,50.380804804568882105
0.209000000000000019,49.116418897329040760
0.210000000000000020,47.887710227350893888
0.211000000000000021,46.673648609444732926
0.212000000000000022,45.458846317180785945
0.213000000000000023,44.233798193176440350
0.214000000000000024,42.994256138379839172
0.215000000000000024,41.740195788130698418
0.216000000000000025,40.474664380645940298
0.217000000000000026,39.202681731637333939
0.218000000000000027,37.930286755422713441
0.219000000000000028,36.663769570516102192
0.220000000000000029,35.409096050870743966
0.221000000000000030,34.171511939619612974
0.222000000000000031,32.955303089008054940
0.223000000000000032,31.763683954331895620
0.224000000000000032,30.598785950340680273
0.225000000000000033,29.461719123742291515
0.226000000000000034,28.352683731421063129
0.227000000000000035,27.271112016397502487
0.228000000000000036,26.215824270433319754
0.229000000000000037,25.185186871446454404
0.230000000000000038,24.177263219517399762
0.231000000000000039,23.189951287627163623
0.232000000000000040,22.221103830250221733
0.233000000000000040,21.268629169071274987
0.234000000000000041,20.330571936801121069
0.235000000000000042,19.405174255277302109
0.236000000000000043,18.490918605213863657
0.237000000000000044,17.586554164499936803
0.238000000000000045,16.691108699252609426
0.239000000000000046,15.803888231712168277
0.240000000000000047,14.924466720898433181
0.241000000000000048,14.052667909463702145
0.242000000000000048,13.188541341603505330
0.243000000000000049,12.332334365328762260
0.244000000000000050,11.484461716353180805
0.245000000000000051,10.645474054732764202
0.246000000000000052,9.816026600167273131
0.247000000000000053,8.996848795541184884
0.248000000000000054,8.188715726435665587
0.249000000000000055,7.392421840599517679
0.250000000000000056,6.608757347779554259
0.251000000000000056,5.838487537713565878
0.252000000000000057,5.082335132395139787
0.253000000000000058,4.340965687166212561
0.254000000000000059,3.614975972540284577
0.255000000000000060,2.904885203362011392
0.256000000000000061,2.211128932236265499
0.257000000000000062,1.534055388306197587
0.258000000000000063,0.873924018613990050
0.259000000000000064,0.230905975684819520
0.260000000000000064,-0.394913710027386622
0.261000000000000065,-1.003532532142812794
0.262000000000000066,-1.595025736418758999
0.263000000000000067,-2.169540614388913102
0.264000000000000068,-2.727290086715580486
0.265000000000000069,-3.268545782690684298
0.266000000000000070,-3.793630803123853923
0.267000000000000071,-4.302912333861717897
0.268000000000000071,-4.796794256966191661
0.269000000000000072,-5.275709886614085242
0.270000000000000073,-5.740114937437754250
0.271000000000000074,-6.190480814595535008
0.272000000000000075,-6.627288297556678920
0.273000000000000076,-7.051021673556642000
0.274000000000000077,-7.462163362022901758
0.275000000000000078,-7.861189058037831856
0.276000000000000079,-8.248563411106385246
0.277000000000000079,-8.624736245116208622
0.278000000000000080,-8.990139316371228873
0.279000000000000081,-9.345183598890153931
0.280000000000000082,-9.690257079710709931
0.281000000000000083,-10.025723041647117029
0.282000000000000084,-10.351918806720226129
0.283000000000000085,-10.669154910223689114
0.284000000000000086,-10.977714673011416124
0.285000000000000087,-11.277854137994751227
0.286000000000000087,-11.569802335934408433
0.287000000000000088,-11.853761845311032275
0.288000000000000089,-12.129909611277708947
0.289000000000000090,-12.398397989359569493
0.290000000000000091,-12.659355980595478286
0.291000000000000092,-12.912890626150758777
0.292000000000000093,-13.159088531003783729
0.293000000000000094,-13.398017488070561143
0.294000000000000095,-13.629728176029072273
0.295000000000000095,-13.854255906097204587
0.296000000000000096,-14.071622395063679178
0.297000000000000097,-14.281837543939895241
0.298000000000000098,-14.484901203660664137
0.299000000000000099,-14.680804911291298609
0.300000000000000100,-14.869533582174906172
0.301000000000000101,-15.051067145362441835
0.302000000000000102,-15.225382111493251713
0.303000000000000103,-15.392453064027787235
0.304000000000000103,-15.552254066365827967
0.305000000000000104,-15.704759978910441731
0.306000000000000105,-15.849947681554670709
0.307000000000000106,-15.987797198373055352
0.308000000000000107,-16.118292722494697244
0.309000000000000108,-16.241423540217823529
0.310000000000000109,-16.357184854402245122
0.311000000000000110,-16.465578508045975781
0.312000000000000111,-16.566613609723326306
0.313000000000000111,-16.660307063233993574
0.314000000000000112,-16.746684004394960965
0.315000000000000113,-16.825778148401973056
0.316000000000000114,-16.897632051601565450
0.317000000000000115,-16.962297291853314363
0.318000000000000116,-17.019834571931088618
0.319000000000000117,-17.070313750616442405
0.320000000000000118,-17.113813806283300067
0.321000000000000119,-17.150422737865920197
0.322000000000000119,-17.180237408145895728
0.323000000000000120,-17.203363334295662668
0.324000000000000121,-17.219914430578693754
0.325000000000000122,-17.230012708035623348
0.326000000000000123,-17.233787935885050757
0.327000000000000124,-17.231377269241981764
0.328000000000000125,-17.222924847609345278
0.329000000000000126,-17.208581368432152914
0.330000000000000127,-17.188503639823291991
0.331000000000000127,-17.162854116377356917
0.332000000000000128,-17.131800421787122701
0.333000000000000129,-17.095514861768755566
0.334000000000000130,-17.054173930588778063
0.335000000000000131,-17.007957814270717734
0.336000000000000132,-16.957049893342812652
0.337000000000000133,-16.901636247773588195
0.338000000000000134,-16.841905166529105742
0.339000000000000135,-16.778046663976873276
0.340000000000000135,-16.710252005156931432
0.341000000000000136,-16.638713241741900362
0.342000000000000137,-16.563622760315642068
0.343000000000000138,-16.485172844414563542
0.344000000000000139,-16.403555251597985887
0.345000000000000140,-16.318960806644341233
0.346000000000000141,-16.231579011807895085
0.347000000000000142,-16.141597674917985472
0.348000000000000143,-16.049202555958157035
0.349000000000000143,-15.954577032626499289
0.350000000000000144,-15.857901785251474536
0.351000000000000145,-15.759354501318743047
0.352000000000000146,-15.659109599754435393
0.353000000000000147,-15.557337975008380226
0.354000000000000148,-15.454206760887146288
0.355000000000000149,-15.349879114000851033
0.356000000000000150,-15.244514016609699070
0.357000000000000151,-15.138266098585225095
0.358000000000000151,-15.031285478137714762
0.359000000000000152,-14.923717620904232817
0.360000000000000153,-14.815703216941420450
0.361000000000000154,-14.707378075122898409
0.362000000000000155,-14.598873034402606308
0.363000000000000156,-14.490313891372773369
0.364000000000000157,-14.381821343517021461
0.365000000000000158,-14.273510947536948379
0.366000000000000159,-14.165493092111494988
0.367000000000000159,-14.057872984434785835
0.368000000000000160,-13.950750649868089326
0.369000000000000161,-13.844220944034612231
0.370000000000000162,-13.738373576683125421
0.371000000000000163,-13.633293146646371596
0.372000000000000164,-13.529059187222518545
0.373000000000000165,-13.425746221313939799
0.374000000000000166,-13.323423825664630016
0.375000000000000167,-13.222156703547705447
0.376000000000000167,-13.122004765265776527
0.377000000000000168,-13.023023215840453304
0.378000000000000169,-12.925262649281645366
0.379000000000000170,-12.828769148843699455
0.380000000000000171,-12.733584392692034015
0.381000000000000172,-12.639745764422334773
0.382000000000000173,-12.547286467892789119
0.383000000000000174,-12.456235645849600857
0.384000000000000175,-12.366618501845639599
0.385000000000000175,-12.278456424972510774
0.386000000000000176,-12.191767116946953919
0.387000000000000177,-12.106564721112922811
0.388000000000000178,-12.022859952941933770
0.389000000000000179,-11.940660231634474542
0.390000000000000180,-11.859969812446449211
0.391000000000000181,-11.780789919384719866
0.392000000000000182,-11.703118877936358189
0.393000000000000183,-11.626952247515912831
0.394000000000000183,-11.552282953334746196
0.395000000000000184,-11.479101417415805031
0.396000000000000185,-11.407395688495643782
0.397000000000000186,-11.337151570574171444
0.398000000000000187,-11.268352749890279796
0.399000000000000188,-11.200980920118663420
0.400000000000000189,-11.135015905600134545
0.401000000000000190,-11.070435782433719396
0.402000000000000191,-11.007216997274614556
0.403000000000000191,-10.945334483696887773
0.404000000000000192,-10.884761775994492794
0.405000000000000193,-10.825471120307785355
0.406000000000000194,-10.767433582976144280
0.407000000000000195,-10.710619156029924426
0.408000000000000196,-10.654996859746876936
0.409000000000000197,-10.600534842209853537
0.410000000000000198,-10.547200475813454545
0.411000000000000199,-10.494960450677435659
0.412000000000000199,-10.443780864934652186
0.413000000000000200,-10.393627311870508478
0.414000000000000201,-10.344464963899417498
0.415000000000000202,-10.296258653371927139
0.416000000000000203,-10.248972950214087163
0.417000000000000204,-10.202572236407315032
0.418000000000000205,-10.157020777324019534
0.419000000000000206,-10.112282789940294947
0.420000000000000207,-10.068322507952629508
0.421000000000000207,-10.025104243831112427
0.422000000000000208,-9.982592447846169392
0.423000000000000209,-9.940751764110625999
0.424000000000000210,-9.899547083682818993
0.425000000000000211,-9.858943594780040343
0.426000000000000212,-9.818906830155405885
0.427000000000000213,-9.779402711693625960
0.428000000000000214,-9.740397592284379513
0.429000000000000214,-9.701858295034053725
0.430000000000000215,-9.663752149878774844
0.431000000000000216,-9.626047027663513944
0.432000000000000217,-9.588711371753497303
0.433000000000000218,-9.551714227245478028
0.434000000000000219,-9.515025267847480706
0.435000000000000220,-9.478614820496490623
0.436000000000000221,-9.442453887784088451
0.437000000000000222,-9.406514168260514452
0.438000000000000222,-9.370768074687928717
0.439000000000000223,-9.335188750313639261
0.440000000000000224,-9.299750083233920606
0.441000000000000225,-9.264426718918976178
0.442000000000000226,-9.229194070969104047
0.443000000000000227,-9.194028330171523322
0.444000000000000228,-9.158906471926993476
0.445000000000000229,-9.123806262114275256
0.446000000000000230,-9.088706261459860158
0.447000000000000230,-9.053585828479462805
0.448000000000000231,-9.018425121056697691
0.449000000000000232,-8.983205096723256844
0.450000000000000233,-8.947907511703906636
0.451000000000000234,-8.912514918788222218
0.452000000000000235,-8.877010664089908687
0.453000000000000236,-8.841378882752998436
0.454000000000000237,-8.805604493663258481
0.455000000000000238,-8.769673193221262153
0.456000000000000238,-8.733571448232627432
0.457000000000000239,-8.697286487969162039
0.458000000000000240,-8.660806295453433279
0.459000000000000241,-8.624119598017538024
0.460000000000000242,-8.587215857185732659
0.461000000000000243,-8.550085257928705218
0.462000000000000244,-8.512718697336110196
0.463000000000000245,-8.475107772752162205
0.464000000000000246,-8.437244769418011714
0.465000000000000246,-8.399122647662697005
0.466000000000000247,-8.360735029683322495
0.467000000000000248,-8.322076185953481087
0.468000000000000249,-8.283141021297582895
0.469000000000000250,-8.243925060667194771
0.470000000000000251,-8.204424434654280063
0.471000000000000252,-8.164635864774503204
0.472000000000000253,-8.124556648552905713
0.473000000000000254,-8.084184644442228063
0.474000000000000254,-8.043518256603535477
0.475000000000000255,-8.002556419576832170
0.476000000000000256,-7.961298582868684193
0.477000000000000257,-7.919744695482121344
0.478000000000000258,-7.877895190413140014
0.479000000000000259,-7.835750969136864974
0.480000000000000260,-7.793313386105279683
0.481000000000000261,-7.750584233277175272
0.482000000000000262,-7.707565724700072174
0.483000000000000262,-7.664260481162611605
0.484000000000000263,-7.620671514934916679
0.485000000000000264,-7.576802214613439723
0.486000000000000265,-7.532656330085816698
0.487000000000000266,-7.488237957630164310
0.488000000000000267,-7.443551525162559912
0.489000000000000268,-7.398601777645369637
0.490000000000000269,-7.353393762668174460
0.491000000000000270,-7.307932816212478144
0.492000000000000270,-7.262224548610174857
0.493000000000000271,-7.216274830705360799
0.494000000000000272,-7.170089780228048326
0.495000000000000273,-7.123675748387671369
0.496000000000000274,-7.077039306693760246
0.497000000000000275,-7.030187234010133679
0.498000000000000276,-6.983126503848685829
0.499000000000000277,-6.935864271907995260
0.500000000000000222,-6.888407863861400138
0.501000000000000334,-6.840764763398764714
0.502000000000000224,-6.792942600525495145
0.503000000000000336,-6.744949140121756059
0.504000000000000226,-6.696792270764689192
0.505000000000000338,-6.648479993815454847
0.506000000000000227,-6.600020412773012879
0.507000000000000339,-6.551421722895622857
0.508000000000000229,-6.502692201091072377
0.509000000000000341,-6.453840196075846691
0.510000000000000231,-6.404874118803590477
0.511000000000000343,-6.355802433162196508
0.512000000000000233,-6.306633646939271642
0.513000000000000345,-6.257376303054715372
0.514000000000000234,-6.208038971059545830
0.515000000000000346,-6.158630238899045928
0.516000000000000236,-6.109158704938936424
0.517000000000000348,-6.059632970252136985
0.518000000000000238,-6.010061631164295370
0.519000000000000350,-5.960453272055255880
0.520000000000000240,-5.910816458414167585
0.521000000000000352,-5.861159730145173441
0.522000000000000242,-5.811491595120832798
0.523000000000000353,-5.761820522980029224
0.524000000000000243,-5.712154939167143120
0.525000000000000355,-5.662503219208987915
0.526000000000000245,-5.612873683226089483
0.527000000000000357,-5.563274590674404330
0.528000000000000247,-5.513714135314043752
0.529000000000000359,-5.464200440400814429
0.530000000000000249,-5.414741554096932141
0.531000000000000361,-5.365345445096632915
0.532000000000000250,-5.316019998462913065
0.533000000000000362,-5.266773011670947469
0.534000000000000252,-5.217612190854303833
0.535000000000000364,-5.168545147249525407
0.536000000000000254,-5.119579393835053338
0.537000000000000366,-5.070722342159923457
0.538000000000000256,-5.021981299358362349
0.539000000000000368,-4.973363465345514101
0.540000000000000258,-4.924875930190497186
0.541000000000000369,-4.876525671661953609
0.542000000000000259,-4.828319552942344828
0.543000000000000371,-4.780264320506200093
0.544000000000000261,-4.732366602158424307
0.545000000000000373,-4.684632905228157895
0.546000000000000263,-4.637069614914172355
0.547000000000000375,-4.589682992777279757
0.548000000000000265,-4.542479175376053391
0.549000000000000377,-4.495464173041151312
0.550000000000000266,-4.448643868784673217
0.551000000000000378,-4.402024017340060880
0.552000000000000268,-4.355610244328830483
0.553000000000000380,-4.309408045549912636
0.554000000000000270,-4.263422786387911501
0.555000000000000382,-4.217659701336124556
0.556000000000000272,-4.172123893630838687
0.557000000000000384,-4.126820334992709505
0.558000000000000274,-4.081753865471968723
0.559000000000000385,-4.036929193393339332
0.560000000000000275,-3.992350895397461130
0.561000000000000387,-3.948023416574952371
0.562000000000000277,-3.903951070689861247
0.563000000000000389,-3.860138040488910072
0.564000000000000279,-3.816588378093316969
0.565000000000000391,-3.773306005469768909
0.566000000000000281,-3.730294714977413495
0.567000000000000393,-3.687558169987577905
0.568000000000000282,-3.645099905573314203
0.569000000000000394,-3.602923329265409702
0.570000000000000284,-3.561031721872264022
0.571000000000000396,-3.519428238360344352
0.572000000000000286,-3.478115908792724476
0.573000000000000398,-3.437097639322575393
0.574000000000000288,-3.396376213239197916
0.575000000000000400,-3.355954292063716426
0.576000000000000290,-3.315834416692014397
0.577000000000000401,-3.276019008582197412
0.578000000000000291,-3.236510370984332585
0.579000000000000403,-3.197310690209862916
0.580000000000000293,-3.158422036938545396
0.581000000000000405,-3.119846367560421996
0.582000000000000295,-3.081585525550875282
0.583000000000000407,-3.043641242876329311
0.584000000000000297,-3.006015141428751480
0.585000000000000409,-2.968708734486713574
0.586000000000000298,-2.931723428201254755
0.587000000000000410,-2.895060523104372230
0.588000000000000300,-2.858721215638549751
0.589000000000000412,-2.822706599705259389
0.590000000000000302,-2.787017668230925338
0.591000000000000414,-2.751655314748471692
0.592000000000000304,-2.716620334992959407
0.593000000000000416,-2.681913428509563602
0.594000000000000306,-2.647535200272565614
0.595000000000000417,-2.613486162313661154
0.596000000000000307,-2.579766735358332674
0.597000000000000419,-2.546377250468765840
0.598000000000000309,-2.513317950692095071
0.599000000000000421,-2.480588992712566387
0.600000000000000311,-2.448190448506527339
0.601000000000000423,-2.416122306998861546
0.602000000000000313,-2.384384475719975249
0.603000000000000425,-2.352976782461883687
0.604000000000000314,-2.321898976932764480
0.605000000000000426,-2.291150732408504087
0.606000000000000316,-2.260731647380676002
0.607000000000000428,-2.230641247199658395
0.608000000000000318,-2.200878985712297453
0.609000000000000430,-2.171444246892980434
0.610000000000000320,-2.142336346467556663
0.611000000000000432,-2.113554533529059754
0.612000000000000322,-2.085097992144743451
0.613000000000000433,-2.056965842953470958
0.614000000000000323,-2.029157144752979036
0.615000000000000435,-2.001670896076207296
0.616000000000000325,-1.974506036756210836
0.617000000000000437,-1.947661449478954143
0.618000000000000327,-1.921135961323539032
0.619000000000000439,-1.894928345289226268
0.620000000000000329,-1.869037321808882934
0.621000000000000441,-1.843461560248272235
0.622000000000000330,-1.818199680390838013
0.623000000000000442,-1.793250253907472169
0.624000000000000332,-1.768611805810999638
0.625000000000000444,-1.744282815894882877
0.626000000000000334,-1.720261720155934926
0.627000000000000446,-1.696546912200610269
0.628000000000000336,-1.673136744634674100
0.629000000000000448,-1.650029530435899616
0.630000000000000338,-1.627223544309651881
0.631000000000000449,-1.604717024026959704
0.632000000000000339,-1.582508171745069969
0.633000000000000451,-1.560595155310107840
0.634000000000000341,-1.538976109541829285
0.635000000000000453,-1.517649137500173495
0.636000000000000343,-1.496612311733598100
0.637000000000000455,-1.475863675508983341
0.638000000000000345,-1.455401244023107665
0.639000000000000457,-1.435223005595449575
0.640000000000000346,-1.415326922842455426
0.641000000000000458,-1.395710933832991163
0.642000000000000348,-1.376372953225146301
0.643000000000000460,-1.357310873384151462
0.644000000000000350,-1.338522565481617077
0.645000000000000462,-1.320005880575855439
0.646000000000000352,-1.301758650673513928
0.647000000000000464,-1.283778689772328674
0.648000000000000353,-1.266063794885255112
0.649000000000000465,-1.248611747045756504
0.650000000000000355,-1.231420312294573272
0.651000000000000467,-1.214487242647783960
0.652000000000000357,-1.197810277046432059
0.653000000000000469,-1.181387142287628311
0.654000000000000359,-1.165215553937367865
0.655000000000000471,-1.149293217225002994
0.656000000000000361,-1.133617827919635168
0.657000000000000473,-1.118187073188364300
0.658000000000000362,-1.102998632436681836
0.659000000000000474,-1.088050178130975709
0.660000000000000364,-1.073339376603420714
