# CNT15-NH3+-4_ETHANE12DIOL-AC
# h[nm],U(h)[kJ/mol]
0.149999999999999994,125.594790886798364227
0.150999999999999995,122.699787473275137017
0.151999999999999996,121.203706345468276595
0.152999999999999997,119.989420605656803787
0.153999999999999998,118.650599523210388497
0.154999999999999999,117.114461396999587350
0.156000000000000000,115.438172289341878241
0.157000000000000001,113.707454072682892843
0.158000000000000002,111.992857836052706944
0.159000000000000002,110.336613120739940541
0.160000000000000003,108.754113789507343313
0.161000000000000004,107.241085268319082502
0.162000000000000005,105.781742899236220978
0.163000000000000006,104.355768997661655817
0.164000000000000007,102.943352817462411508
0.165000000000000008,101.528277146416684218
0.166000000000000009,100.099372147655344634
0.167000000000000010,98.650765700559674087
0.168000000000000010,97.181348064668696907
0.169000000000000011,95.693802218148789507
0.170000000000000012,94.193467062813169832
0.171000000000000013,92.687218840325868996
0.172000000000000014,91.182485998259522830
0.173000000000000015,89.686457630624175863
0.174000000000000016,88.205505354571542398
0.175000000000000017,86.744811264213694812
0.176000000000000018,85.308177973833295482
0.177000000000000018,83.897988215198481043
0.178000000000000019,82.515278714687468664
0.179000000000000020,81.159894240039847091
0.180000000000000021,79.830691264893658854
0.181000000000000022,78.525765515098299829
0.182000000000000023,77.242682919774367178
0.183000000000000024,75.978698641879987008
0.184000000000000025,74.730953563944794382
0.185000000000000026,73.496641666081970357
0.186000000000000026,72.273145078414160025
0.187000000000000027,71.058136218012080576
0.188000000000000028,69.849648379590789204
0.189000000000000029,68.646117516007706172
0.190000000000000030,67.446398808780315903
0.191000000000000031,66.249762082961723308
0.192000000000000032,65.055870253362016342
0.193000000000000033,63.864744880712080999
0.194000000000000034,62.676722637050204412
0.195000000000000034,61.492406088351131643
0.196000000000000035,60.312611747231073878
0.197000000000000036,59.138317867230057345
0.198000000000000037,57.970613971324439717
0.199000000000000038,56.810653651681150222
0.200000000000000039,55.659611759318693203
0.201000000000000040,54.518646729965190900
0.202000000000000041,53.388868470397596866
0.203000000000000042,52.271311959012948023
0.204000000000000042,51.166916493999195836
0.205000000000000043,50.076510349208597006
0.206000000000000044,49.000800467532066307
0.207000000000000045,47.940366729428610881
0.208000000000000046,46.895660275186557442
0.209000000000000047,45.867005328385033636
0.210000000000000048,44.854603959974369332
0.211000000000000049,43.858543242823735397
0.212000000000000050,42.878804271321129704
0.213000000000000050,41.915272555959361966
0.214000000000000051,40.967749345569053787
0.215000000000000052,40.035963477226921725
0.216000000000000053,39.119583403577607328
0.217000000000000054,38.218229097493221502
0.218000000000000055,37.331483583172811791
0.219000000000000056,36.458903889814578747
0.220000000000000057,35.600031268032729770
0.221000000000000058,34.754400549663145625
0.222000000000000058,33.921548568131640877
0.223000000000000059,33.101021588971960341
0.224000000000000060,32.292381728328408030
0.225000000000000061,31.495212361441662807
0.226000000000000062,30.709122543358500224
0.227000000000000063,29.933750480654811810
0.228000000000000064,29.168766106094636825
0.229000000000000065,28.413872818165440748
0.230000000000000066,27.668808454655220430
0.231000000000000066,26.933345574188667371
0.232000000000000067,26.207291122240995662
0.233000000000000068,25.490485558902189922
0.234000000000000069,24.782801524865824661
0.235000000000000070,24.084142120035181733
0.236000000000000071,23.394438866025598855
0.237000000000000072,22.713649419920464823
0.238000000000000073,22.041755102113821607
0.239000000000000073,21.378758296123692162
0.240000000000000074,20.724679773040083575
0.241000000000000075,20.079555987920379323
0.242000000000000076,19.443436390071251907
0.243000000000000077,18.816380783857617587
0.244000000000000078,18.198456771533461307
0.245000000000000079,17.589737304657287353
0.246000000000000080,16.990298365986426177
0.247000000000000081,16.400216799371658993
0.248000000000000081,15.819568301125466192
0.249000000000000082,15.248425582625912966
0.250000000000000111,14.686856710551575489
0.251000000000000112,14.134923628123114980
0.252000000000000113,13.592680858045833148
0.253000000000000114,13.060174385500101124
0.254000000000000115,12.537440717493648634
0.255000000000000115,12.024506113160844833
0.256000000000000116,11.521385978147705487
0.257000000000000117,11.028084415038930999
0.258000000000000118,10.544593920845859003
0.259000000000000119,10.070895221858211954
0.260000000000000120,9.606957235649364435
0.261000000000000121,9.152737149693644270
0.262000000000000122,8.708180605883580228
0.263000000000000123,8.273221980207823734
0.264000000000000123,7.847784746946322443
0.265000000000000124,7.431781916942517441
0.266000000000000125,7.025116539805674520
0.267000000000000126,6.627682260265444825
0.268000000000000127,6.239363919330716435
0.269000000000000128,5.860038191384642658
0.270000000000000129,5.489574248864160566
0.271000000000000130,5.127834446715658245
0.272000000000000131,4.774675019380476115
0.273000000000000131,4.429946783634416185
0.274000000000000132,4.093495841179239036
0.275000000000000133,3.765164275453448006
0.276000000000000134,3.444790837689915008
0.277000000000000135,3.132211617795047864
0.278000000000000136,2.827260696152578134
0.279000000000000137,2.529770772963694903
0.280000000000000138,2.239573772220872616
0.281000000000000139,1.956501417872268167
0.282000000000000139,1.680385780167963805
0.283000000000000140,1.411059790585208695
0.284000000000000141,1.148357724108473477
0.285000000000000142,0.892115647990093463
0.286000000000000143,0.642171836439357158
0.287000000000000144,0.398367150982432583
0.288000000000000145,0.160545386502016774
0.289000000000000146,-0.071446416792872849
0.290000000000000147,-0.297757695002332790
0.291000000000000147,-0.518534115120198980
0.292000000000000148,-0.733917361745313857
0.293000000000000149,-0.944044954951145932
0.294000000000000150,-1.149050098221924499
0.295000000000000151,-1.349061555258685541
0.296000000000000152,-1.544203554372723497
0.297000000000000153,-1.734595719114762957
0.298000000000000154,-1.920353023735157816
0.299000000000000155,-2.101585772031534294
0.300000000000000155,-2.278399598114961400
0.301000000000000156,-2.450895487612261725
0.302000000000000157,-2.619169817819893886
0.303000000000000158,-2.783314415331854974
0.304000000000000159,-2.943416629680516650
0.305000000000000160,-3.099559421552899874
0.306000000000000161,-3.251821464175687737
0.307000000000000162,-3.400277256498850598
0.308000000000000163,-3.544997246849191264
0.309000000000000163,-3.686047965771112267
0.310000000000000164,-3.823492166821314875
0.311000000000000165,-3.957388974136331061
0.312000000000000166,-4.087794035646429514
0.313000000000000167,-4.214759680865598490
0.314000000000000168,-4.338335082244677565
0.315000000000000169,-4.458566419132817593
0.316000000000000170,-4.575497043450950763
0.317000000000000171,-4.689167646238930232
0.318000000000000171,-4.799616424296037742
0.319000000000000172,-4.906879246191707900
0.320000000000000173,-5.010989816979140699
0.321000000000000174,-5.111979840999473446
0.322000000000000175,-5.209879182217716398
0.323000000000000176,-5.304716021583184116
0.324000000000000177,-5.396517010957579963
0.325000000000000178,-5.485307423201726706
0.326000000000000179,-5.571111298058696981
0.327000000000000179,-5.653951583514872148
0.328000000000000180,-5.733850272362990275
0.329000000000000181,-5.810828533731295487
0.330000000000000182,-5.884906839380613874
0.331000000000000183,-5.956105084607473898
0.332000000000000184,-6.024442703624662165
0.333000000000000185,-6.089938779322546125
0.334000000000000186,-6.152612147343893945
0.335000000000000187,-6.212481494432502416
0.336000000000000187,-6.269565451041546389
0.337000000000000188,-6.323882678210890340
0.338000000000000189,-6.375451948744701447
0.339000000000000190,-6.424292222740379366
0.340000000000000191,-6.470422717537834600
0.341000000000000192,-6.513862972174952581
0.342000000000000193,-6.554632906449581853
0.343000000000000194,-6.592752874701943711
0.344000000000000195,-6.628243714442805690
0.345000000000000195,-6.661126789963747186
0.346000000000000196,-6.691424031074296508
0.347000000000000197,-6.719157967119007147
0.348000000000000198,-6.744351756434011413
0.349000000000000199,-6.767029211408055467
0.350000000000000200,-6.787214819317743952
0.351000000000000201,-6.804933759109921709
0.352000000000000202,-6.820211914306971046
0.353000000000000203,-6.833075882212457763
0.354000000000000203,-6.843552979595611596
0.355000000000000204,-6.851671245033154278
0.356000000000000205,-6.857459438086886294
0.357000000000000206,-6.860947035494341151
0.358000000000000207,-6.862164224547896652
0.359000000000000208,-6.861141893836257388
0.360000000000000209,-6.857911621519169998
0.361000000000000210,-6.852505661303553097
0.362000000000000210,-6.844956926285807874
0.363000000000000211,-6.835298970821495068
0.364000000000000212,-6.823565970579679174
0.365000000000000213,-6.809792700934920617
0.366000000000000214,-6.794014513845707093
0.367000000000000215,-6.776267313363410594
0.368000000000000216,-6.756587529911288748
0.369000000000000217,-6.735012093468029093
0.370000000000000218,-6.711578405785646240
0.371000000000000218,-6.686324311766287387
0.372000000000000219,-6.659288070117703739
0.373000000000000220,-6.630508323401921089
0.374000000000000221,-6.600024067586654830
0.375000000000000222,-6.567874621203773522
0.376000000000000223,-6.534099594214444195
0.377000000000000224,-6.498738856675190689
0.378000000000000225,-6.461832507294369421
0.379000000000000226,-6.423420841963685568
0.380000000000000226,-6.383544322344602229
0.381000000000000227,-6.342243544584549753
0.382000000000000228,-6.299559208233650232
0.383000000000000229,-6.255532085427788935
0.384000000000000230,-6.210202990399547929
0.385000000000000231,-6.163612749374516753
0.386000000000000232,-6.115802170905832114
0.387000000000000233,-6.066812016696291110
0.388000000000000234,-6.016682972952948738
0.389000000000000234,-5.965455622315879225
0.390000000000000235,-5.913170416398591200
0.391000000000000236,-5.859867648974530496
0.392000000000000237,-5.805587429840331382
0.393000000000000238,-5.750369659383608223
0.394000000000000239,-5.694254003879571258
0.395000000000000240,-5.637279871538135367
0.396000000000000241,-5.579486389320090112
0.397000000000000242,-5.520912380538227637
0.398000000000000242,-5.461596343256909236
0.399000000000000243,-5.401576429500809517
0.400000000000000244,-5.340890425281424214
0.401000000000000245,-5.279575731447772036
0.402000000000000246,-5.217669345365393951
0.403000000000000247,-5.155207843425961833
0.404000000000000248,-5.092227364387960975
0.405000000000000249,-5.028763593547027178
0.406000000000000250,-4.964851747732963005
0.407000000000000250,-4.900526561128971892
0.408000000000000251,-4.835822271907064263
0.409000000000000252,-4.770772609672436992
0.410000000000000253,-4.705410783708262379
0.411000000000000254,-4.639769472011208151
0.412000000000000255,-4.573880811106975308
0.413000000000000256,-4.507776386634220422
0.414000000000000257,-4.441487224684108170
0.415000000000000258,-4.375043783882333059
0.416000000000000258,-4.308475948199268046
0.417000000000000259,-4.241813020473601981
0.418000000000000260,-4.175083716634020448
0.419000000000000261,-4.108316160603015632
0.420000000000000262,-4.041537879866491600
0.421000000000000263,-3.974775801692397525
0.422000000000000264,-3.908056249981232355
0.423000000000000265,-3.841404942731001970
0.424000000000000266,-3.774846990099117505
0.425000000000000266,-3.708406893043172836
0.426000000000000267,-3.642108542522827896
0.427000000000000268,-3.575975219244557302
0.428000000000000269,-3.510029593931183634
0.429000000000000270,-3.444293728098068108
0.430000000000000271,-3.378789075317638613
0.431000000000000272,-3.313536482954335671
0.432000000000000273,-3.248556194351770010
0.433000000000000274,-3.183867851454299736
0.434000000000000274,-3.119490497845079702
0.435000000000000275,-3.055442582183073963
0.436000000000000276,-2.991741962021536416
0.437000000000000277,-2.928405907990613510
0.438000000000000278,-2.865451108327174534
0.439000000000000279,-2.802893673735007862
0.440000000000000280,-2.740749142558823959
0.441000000000000281,-2.679032486255847001
0.442000000000000282,-2.617758115149054987
0.443000000000000282,-2.556939884446261413
0.444000000000000283,-2.496591100509844008
0.445000000000000284,-2.436724527361948223
0.446000000000000285,-2.377352393410411935
0.447000000000000286,-2.318486398381245372
0.448000000000000287,-2.260137720443279541
0.449000000000000288,-2.202317023511633831
0.450000000000000289,-2.145034464716345735
0.451000000000000290,-2.088299702023373339
0.452000000000000290,-2.032121901995236346
0.453000000000000291,-1.976509747678991902
0.454000000000000292,-1.921471446609692935
0.455000000000000293,-1.867014738917652794
0.456000000000000294,-1.813146905528395747
0.457000000000000295,-1.759874776444389166
0.458000000000000296,-1.707204739098046486
0.459000000000000297,-1.655142746765892570
0.460000000000000298,-1.603694327034022038
0.461000000000000298,-1.552864590305494952
0.462000000000000299,-1.502658238340472519
0.463000000000000300,-1.453079572820342058
0.464000000000000301,-1.404132503927433717
0.465000000000000302,-1.355820558932231190
0.466000000000000303,-1.308146890780193194
0.467000000000000304,-1.261114286670858897
0.468000000000000305,-1.214725176622047043
0.469000000000000306,-1.168981642012252298
0.470000000000000306,-1.123885424094872354
0.471000000000000307,-1.079437932477814943
0.472000000000000308,-1.035640253562772450
0.473000000000000309,-0.992493158938330344
0.474000000000000310,-0.949997113721681941
0.475000000000000311,-0.908152284843689372
0.476000000000000312,-0.866958549272705659
0.477000000000000313,-0.826415502172276328
0.478000000000000314,-0.786522464988648418
0.479000000000000314,-0.747278493463942928
0.480000000000000315,-0.708682385571085094
0.481000000000000316,-0.670732689367030899
0.482000000000000317,-0.633427710760794516
0.483000000000000318,-0.596765521193234671
0.484000000000000319,-0.560743965225562024
0.485000000000000320,-0.525360668033967193
0.486000000000000321,-0.490613042807721111
0.487000000000000322,-0.456498298048519602
0.488000000000000322,-0.423013444768816804
0.489000000000000323,-0.390155303587359836
0.490000000000000324,-0.357920511719959367
0.491000000000000325,-0.326305529864026833
0.492000000000000326,-0.295306648975317110
0.493000000000000327,-0.264919996935695790
0.494000000000000328,-0.235141545110718553
0.495000000000000329,-0.205967114796057060
0.496000000000000330,-0.177392383551926269
0.497000000000000330,-0.149412891424806016
0.498000000000000331,-0.122024047055825410
0.499000000000000332,-0.095221133675450570
0.500000000000000333,-0.068999314984040258
0.501000000000000334,-0.043353640918071021
0.502000000000000335,-0.018279053301961012
0.503000000000000336,0.006229608614562854
0.504000000000000337,0.030177602733457133
0.505000000000000338,0.053570278799509749
0.506000000000000338,0.076413073205368665
0.507000000000000339,0.098711503910118251
0.508000000000000340,0.120471165470931355
0.509000000000000341,0.141697724187240914
0.510000000000000342,0.162396913356917028
0.511000000000000343,0.182574528643692890
0.512000000000000344,0.202236423555180955
0.513000000000000345,0.221388505030617549
0.514000000000000346,0.240036729137506150
0.515000000000000346,0.258187096876266509
0.516000000000000347,0.275845650091914751
0.517000000000000348,0.293018467491696744
0.518000000000000349,0.309711660767748698
0.519000000000000350,0.325931370823553945
0.520000000000000351,0.341683764103127063
0.521000000000000352,0.356975029021720514
0.522000000000000353,0.371811372496839265
0.523000000000000353,0.386199016578359589
0.524000000000000354,0.400144195176390549
0.525000000000000355,0.413653150885684606
0.526000000000000356,0.426732131905203871
0.527000000000000357,0.439387389051476507
0.528000000000000358,0.451625172864503099
0.529000000000000359,0.463451730804634976
0.530000000000000360,0.474873304539218666
0.531000000000000361,0.485896127317453963
0.532000000000000361,0.496526421432137322
0.533000000000000362,0.506770395766765303
0.534000000000000363,0.516634243426651207
0.535000000000000364,0.526124139452536443
0.536000000000000365,0.535246238615272651
0.537000000000000366,0.544006673290101439
0.538000000000000367,0.552411551409112578
0.539000000000000368,0.560466954490337788
0.540000000000000369,0.568178935742133517
0.541000000000000369,0.575553518241280981
0.542000000000000370,0.582596693183434988
0.543000000000000371,0.589314418204434531
0.544000000000000372,0.595712615771016196
0.545000000000000373,0.601797171639516515
0.546000000000000374,0.607573933381136633
0.547000000000000375,0.613048708972315781
0.548000000000000376,0.618227265448807684
0.549000000000000377,0.623115327622071113
0.550000000000000377,0.627718576856574062
0.551000000000000378,0.632042649906597753
0.552000000000000379,0.636093137811222675
0.553000000000000380,0.639875584846066991
0.554000000000000381,0.643395487530514676
0.555000000000000382,0.646658293689003405
0.556000000000000383,0.649669401565150295
0.557000000000000384,0.652434158987322599
0.558000000000000385,0.654957862584436556
0.559000000000000385,0.657245757050646029
0.560000000000000386,0.659303034457719761
0.561000000000000387,0.661134833613813977
0.562000000000000388,0.662746239467453924
0.563000000000000389,0.664142282555474028
0.564000000000000390,0.665327938493769033
0.565000000000000391,0.666308127509628312
0.566000000000000392,0.667087714014553912
0.567000000000000393,0.667671506216345412
0.568000000000000393,0.668064255769412307
0.569000000000000394,0.668270657462126549
0.570000000000000395,0.668295348940188605
0.571000000000000396,0.668142910464909923
0.572000000000000397,0.667817864705323894
0.573000000000000398,0.667324676563189723
0.574000000000000399,0.666667753029736132
0.575000000000000400,0.665851443073276372
0.576000000000000401,0.664880037556628833
0.577000000000000401,0.663757769183391466
0.578000000000000402,0.662488812472157296
0.579000000000000403,0.661077283757742884
0.580000000000000404,0.659527241218446969
0.581000000000000405,0.657842684928558574
0.582000000000000406,0.656027556935153355
0.583000000000000407,0.654085741358348627
0.584000000000000408,0.652021064514207938
0.585000000000000409,0.649837295059425002
0.586000000000000409,0.647538144157001061
0.587000000000000410,0.645127265662146177
0.588000000000000411,0.642608256327616423
0.589000000000000412,0.639984656027711041
0.590000000000000413,0.637259948000255316
0.591000000000000414,0.634437559105780369
0.592000000000000415,0.631520860103230164
0.593000000000000416,0.628513165941511187
0.594000000000000417,0.625417736066201546
0.595000000000000417,0.622237774740743155
0.596000000000000418,0.618976431381531245
0.597000000000000419,0.615636800906212645
0.598000000000000420,0.612221924094628944
0.599000000000000421,0.608734787961781931
0.600000000000000422,0.605178326142250311
0.601000000000000423,0.601555419285502269
0.602000000000000424,0.597868895461526328
0.603000000000000425,0.594121530576260826
0.604000000000000425,0.590316048796304615
0.605000000000000426,0.586455122982391108
0.606000000000000427,0.582541375131089167
0.607000000000000428,0.578577376824376155
0.608000000000000429,0.574565649686390456
0.609000000000000430,0.570508665847192065
0.610000000000000431,0.566408848412804922
0.611000000000000432,0.562268571941303752
0.612000000000000433,0.558090162924475996
0.613000000000000433,0.553875900274570898
0.614000000000000434,0.549628015815861848
0.615000000000000435,0.545348694780566356
