# CNT15-NH3+-4_2HYDROXYACETALDEHYDE-AC
# h[nm],U(h)[kJ/mol]
0.149999999999999994,104.155840465680583407
0.150999999999999995,101.250464049201767125
0.151999999999999996,99.859966634550545450
0.152999999999999997,98.783681845768740004
0.153999999999999998,97.587553416129054540
0.154999999999999999,96.194638006196882429
0.156000000000000000,94.665468179088634315
0.157000000000000001,93.089595078287359797
0.158000000000000002,91.539460192798358662
0.159000000000000002,90.057036210993288705
0.160000000000000003,88.655949944776267557
0.161000000000000004,87.329451161397685155
0.162000000000000005,86.059237202883153373
0.163000000000000006,84.822866861822816986
0.164000000000000007,83.599014972523463030
0.165000000000000008,82.370600452877837938
0.166000000000000009,81.126167131874183269
0.167000000000000010,79.859999486451840767
0.168000000000000010,78.571432045888201401
0.169000000000000011,77.263731834527348497
0.170000000000000012,75.942837645139064762
0.171000000000000013,74.616149117557128534
0.172000000000000014,73.291482090861052257
0.173000000000000015,71.976247465189132413
0.174000000000000016,70.676868261962255247
0.175000000000000017,69.398421427807292616
0.176000000000000018,68.144474311652729170
0.177000000000000018,66.917077794117304279
0.178000000000000019,65.716876220492991933
0.179000000000000020,64.543296482271017567
0.180000000000000021,63.394783166041328570
0.181000000000000022,62.269052423995788104
0.182000000000000023,61.163343258840583871
0.183000000000000024,60.074650690526688379
0.184000000000000025,58.999930440699060341
0.185000000000000026,57.936269157577648059
0.186000000000000026,56.881017751429546081
0.187000000000000027,55.831888140108802077
0.188000000000000028,54.787015685529262043
0.189000000000000029,53.744990932323368327
0.190000000000000030,52.704865047088027552
0.191000000000000031,51.666133708323833673
0.192000000000000032,50.628704214342803880
0.193000000000000033,49.592850349056057269
0.194000000000000034,48.559159150862662102
0.195000000000000034,47.528473231775777208
0.196000000000000035,46.501831743623753823
0.197000000000000036,45.480412525160211601
0.198000000000000037,44.465477417452937914
0.199000000000000038,43.458322225500630509
0.200000000000000039,42.460232344932578030
0.201000000000000040,41.472444671363163593
0.202000000000000041,40.496116069474801691
0.203000000000000042,39.532298398776767101
0.204000000000000042,38.581919870378548865
0.205000000000000043,37.645772339530211070
0.206000000000000044,36.724504016601926537
0.207000000000000045,35.818616998577638810
0.208000000000000046,34.928468977863396105
0.209000000000000047,34.054278469245403471
0.210000000000000048,33.196132903510104484
0.211000000000000049,32.353998962360421388
0.212000000000000050,31.527734569179632018
0.213000000000000050,30.717101999844846461
0.214000000000000051,29.921781633688134150
0.215000000000000052,29.141385923934336688
0.216000000000000053,28.375473227120089348
0.217000000000000054,27.623561190216825878
0.218000000000000055,26.885139450974065767
0.219000000000000056,26.159681460279319509
0.220000000000000057,25.446655284334745772
0.221000000000000058,24.745533288701928143
0.222000000000000058,24.055800645501950186
0.223000000000000059,23.376962639222121254
0.224000000000000060,22.708550775746413564
0.225000000000000061,22.050127723593568874
0.226000000000000062,21.401291136191925801
0.227000000000000063,20.761676419680576089
0.228000000000000064,20.130958522579113890
0.229000000000000065,19.508852832104619068
0.230000000000000066,18.895115267339292586
0.231000000000000066,18.289541662256599608
0.232000000000000067,17.691966532182242133
0.233000000000000068,17.102261315957811405
0.234000000000000069,16.520332183226436484
0.235000000000000070,15.946117492180212238
0.236000000000000071,15.379584978076787039
0.237000000000000072,14.820728747097049904
0.238000000000000073,14.269566143897467470
0.239000000000000073,13.726134554700943013
0.240000000000000074,13.190488201129799251
0.241000000000000075,12.662694973356785511
0.242000000000000076,12.142833344644961002
0.243000000000000077,11.630989403059681209
0.244000000000000078,11.127254030139448915
0.245000000000000079,10.631720250661524929
0.246000000000000080,10.144480772375853661
0.247000000000000081,9.665625729730978222
0.248000000000000081,9.195240641197754528
0.249000000000000082,8.733404585814145804
0.250000000000000111,8.280188601025624706
0.251000000000000112,7.835654300772985081
0.252000000000000113,7.399852710065852435
0.253000000000000114,6.972823309961489358
0.254000000000000115,6.554593284917478613
0.255000000000000115,6.145176962884768557
0.256000000000000116,5.744575437224805015
0.257000000000000117,5.352776358546741164
0.258000000000000118,4.969753883841144138
0.259000000000000119,4.595468769807180109
0.260000000000000120,4.229868597006285036
0.261000000000000121,3.872888111401596944
0.262000000000000122,3.524449669933365392
0.263000000000000123,3.184463777015373864
0.264000000000000123,2.852829699192634294
0.265000000000000124,2.529436145657904866
0.266000000000000125,2.214162002864327849
0.267000000000000126,1.906877112077643988
0.268000000000000127,1.607443079367635308
0.269000000000000128,1.315714108232401536
0.270000000000000129,1.031537845766799411
0.271000000000000130,0.754756234017579963
0.272000000000000131,0.485206358903530588
0.273000000000000131,0.222721289809392431
0.274000000000000132,-0.032869096318104682
0.275000000000000133,-0.281737311842540639
0.276000000000000134,-0.524057481070212217
0.277000000000000135,-0.760004592782229427
0.278000000000000136,-0.989753786185102458
0.279000000000000137,-1.213479673209556520
0.280000000000000138,-1.431355699533309878
0.281000000000000139,-1.643553546185898995
0.282000000000000139,-1.850242573112030442
0.283000000000000140,-2.051589305625809878
0.284000000000000141,-2.247756964280565484
0.285000000000000142,-2.438905038307981332
0.286000000000000143,-2.625188902444588912
0.287000000000000144,-2.806759476662468167
0.288000000000000145,-2.983762928053788510
0.289000000000000146,-3.156340413882223750
0.290000000000000147,-3.324627864609690509
0.291000000000000147,-3.488755805529582865
0.292000000000000148,-3.648849215488792375
0.293000000000000149,-3.805027421056206727
0.294000000000000150,-3.957404024395352771
0.295000000000000151,-4.106086863020292910
0.296000000000000152,-4.251177999555645570
0.297000000000000153,-4.392773739581887327
0.298000000000000154,-4.530964675624500337
0.299000000000000155,-4.665835755337753632
0.300000000000000155,-4.797466371940514840
0.301000000000000156,-4.925930474979745455
0.302000000000000157,-5.051296699527193290
0.303000000000000158,-5.173628511953519471
0.304000000000000159,-5.292984370471797817
0.305000000000000160,-5.409417898696611715
0.306000000000000161,-5.522978070525845773
0.307000000000000162,-5.633709404717780700
0.308000000000000163,-5.741652167605938217
0.309000000000000163,-5.846842582467027150
0.310000000000000164,-5.949313044133008432
0.311000000000000165,-6.049092337515069140
0.312000000000000166,-6.146205858785963372
0.313000000000000167,-6.240675838045371293
0.314000000000000168,-6.332521562371797863
0.315000000000000169,-6.421759598242379852
0.316000000000000170,-6.508404012379166659
0.317000000000000171,-6.592466590155869888
0.318000000000000171,-6.673957050773222655
0.319000000000000172,-6.752883258483272755
0.320000000000000173,-6.829251429212435553
0.321000000000000174,-6.903066332000891592
0.322000000000000175,-6.974331484740777576
0.323000000000000176,-7.043049343757752823
0.324000000000000177,-7.109221486840129778
0.325000000000000178,-7.172848789376170764
0.326000000000000179,-7.233931593314194330
0.327000000000000179,-7.292469868710530712
0.328000000000000180,-7.348463367678465197
0.329000000000000181,-7.401911770596315776
0.330000000000000182,-7.452814824474494060
0.331000000000000183,-7.501172473421088505
0.332000000000000184,-7.546984981181426022
0.333000000000000185,-7.590253045761109263
0.334000000000000186,-7.630977906172846659
0.335000000000000187,-7.669161441375855759
0.336000000000000187,-7.704806261502719522
0.337000000000000188,-7.737915791491739803
0.338000000000000189,-7.768494347264585542
0.339000000000000190,-7.796547204607644055
0.340000000000000191,-7.822080660932529739
0.341000000000000192,-7.845102090106292003
0.342000000000000193,-7.865619990554553631
0.343000000000000194,-7.883644026852462794
0.344000000000000195,-7.899185065027248598
0.345000000000000195,-7.912255201804886617
0.346000000000000196,-7.922867788039002157
0.347000000000000197,-7.931037446565712301
0.348000000000000198,-7.936780084731627660
0.349000000000000199,-7.940112901844633697
0.350000000000000200,-7.941054391798724410
0.351000000000000201,-7.939624341124168261
0.352000000000000202,-7.935843822713906093
0.353000000000000203,-7.929735185475502490
0.354000000000000203,-7.921322040155734712
0.355000000000000204,-7.910629241581730753
0.356000000000000205,-7.897682867559074893
0.357000000000000206,-7.882510194663185032
0.358000000000000207,-7.865139671154859791
0.359000000000000208,-7.845600887246583000
0.360000000000000209,-7.823924542939700189
0.361000000000000210,-7.800142413647104256
0.362000000000000210,-7.774287313809527866
0.363000000000000211,-7.746393058707051971
0.364000000000000212,-7.716494424660785612
0.365000000000000213,-7.684627107812477043
0.366000000000000214,-7.650827681663061597
0.367000000000000215,-7.615133553543754985
0.368000000000000216,-7.577582920186252124
0.369000000000000217,-7.538214722551164648
0.370000000000000218,-7.497068600066813637
0.371000000000000218,-7.454184844422923284
0.372000000000000219,-7.409604353056918669
0.373000000000000220,-7.363368582463172274
0.374000000000000221,-7.315519501448607187
0.375000000000000222,-7.266099544450999481
0.376000000000000223,-7.215151565029711556
0.377000000000000224,-7.162718789631708383
0.378000000000000225,-7.108844771729197376
0.379000000000000226,-7.053573346418846590
0.380000000000000226,-6.996948585566473255
0.381000000000000227,-6.939014753574555883
0.382000000000000228,-6.879816263844676705
0.383000000000000229,-6.819397636000776863
0.384000000000000230,-6.757803453933727056
0.385000000000000231,-6.695078324722655516
0.386000000000000232,-6.631266838482869908
0.387000000000000233,-6.566413529185711084
0.388000000000000234,-6.500562836490521690
0.389000000000000234,-6.433759068624820721
0.390000000000000235,-6.366046366343909746
0.391000000000000236,-6.297468667997399017
0.392000000000000237,-6.228069675725878440
0.393000000000000238,-6.157892822807373712
0.394000000000000239,-6.086981242169409612
0.395000000000000240,-6.015377736079356552
0.396000000000000241,-5.943124747022276999
0.397000000000000242,-5.870264329772455270
0.398000000000000242,-5.796838124662127001
0.399000000000000243,-5.722887332047887909
0.400000000000000244,-5.648452687972888242
0.401000000000000245,-5.573574441020617165
0.402000000000000246,-5.498292330353584667
0.403000000000000247,-5.422645564928309625
0.404000000000000248,-5.346672803876089120
0.405000000000000249,-5.270412138037111838
0.406000000000000250,-5.193901072633871685
0.407000000000000250,-5.117176511068341149
0.408000000000000251,-5.040274739825860273
0.409000000000000252,-4.963231414467538904
0.410000000000000253,-4.886081546691653621
0.411000000000000254,-4.808859492443578354
0.412000000000000255,-4.731598941052782337
0.413000000000000256,-4.654332905374610974
0.414000000000000257,-4.577093712913677948
0.415000000000000258,-4.499912997905321177
0.416000000000000258,-4.422821694330640874
0.417000000000000259,-4.345850029840471862
0.418000000000000260,-4.269027520562991285
0.419000000000000261,-4.192382966769471864
0.420000000000000262,-4.115944449372369363
0.421000000000000263,-4.039739327229737498
0.422000000000000264,-3.963794235229854301
0.423000000000000265,-3.888135083129755198
0.424000000000000266,-3.812787055121638069
0.425000000000000266,-3.737774610100680128
0.426000000000000267,-3.663121482608381996
0.427000000000000268,-3.588850684425277215
0.428000000000000269,-3.514984506787243390
0.429000000000000270,-3.441544523199870920
0.430000000000000271,-3.368551592825326679
0.431000000000000272,-3.296025864416811224
0.432000000000000273,-3.223986780775686789
0.433000000000000274,-3.152453083706922232
0.434000000000000274,-3.081442819448631187
0.435000000000000275,-3.010973344552156483
0.436000000000000276,-2.941061332189307098
0.437000000000000277,-2.871722778863849079
0.438000000000000278,-2.802973011504914957
0.439000000000000279,-2.734826694920313717
0.440000000000000280,-2.667297839588198549
0.441000000000000281,-2.600399809766148262
0.442000000000000282,-2.534145331897130315
0.443000000000000282,-2.468546503292234462
0.444000000000000283,-2.403614801070804496
0.445000000000000284,-2.339361091338880261
0.446000000000000285,-2.275795638587395864
0.447000000000000286,-2.212928115292407405
0.448000000000000287,-2.150767611699610615
0.449000000000000288,-2.089322645776498621
0.450000000000000289,-2.028601173315573991
0.451000000000000290,-1.968610598172845894
0.452000000000000290,-1.909357782626244227
0.453000000000000291,-1.850849057839063949
0.454000000000000292,-1.793090234414209450
0.455000000000000293,-1.736086613025297876
0.456000000000000294,-1.679842995111440418
0.457000000000000295,-1.624363693622796090
0.458000000000000296,-1.569652543804603395
0.459000000000000297,-1.515712914007875556
0.460000000000000298,-1.462547716515333551
0.461000000000000298,-1.410159418371783158
0.462000000000000299,-1.358550052208424841
0.463000000000000300,-1.307721227051135360
0.464000000000000301,-1.257674139103236222
0.465000000000000302,-1.208409582493652490
0.466000000000000303,-1.159927959981712275
0.467000000000000304,-1.112229293610448755
0.468000000000000305,-1.065313235300535677
0.469000000000000306,-1.019179077377354803
0.470000000000000306,-0.973825763024290914
0.471000000000000307,-0.929251896655410525
0.472000000000000308,-0.885455754201398548
0.473000000000000309,-0.842435293302682409
0.474000000000000310,-0.800188163404281227
0.475000000000000311,-0.758711715746989146
0.476000000000000312,-0.718003013250220645
0.477000000000000313,-0.678058840281623998
0.478000000000000314,-0.638875712309445953
0.479000000000000314,-0.600449885433571140
0.480000000000000315,-0.562777365791517381
0.481000000000000316,-0.525853918836093892
0.482000000000000317,-0.489675078481504378
0.483000000000000318,-0.454236156115106815
0.484000000000000319,-0.419532249472164387
0.485000000000000320,-0.385558251371332872
0.486000000000000321,-0.352308858308647888
0.487000000000000322,-0.319778578908232580
0.488000000000000322,-0.287961742227948236
0.489000000000000323,-0.256852505918683971
0.490000000000000324,-0.226444864235877563
0.491000000000000325,-0.196732655902332854
0.492000000000000326,-0.167709571821371334
0.493000000000000327,-0.139369162639719713
0.494000000000000328,-0.111704846159563581
0.495000000000000329,-0.084709914599421343
0.496000000000000330,-0.058377541703669100
0.497000000000000330,-0.032700789700655652
0.498000000000000331,-0.007672616109494190
0.499000000000000332,0.016714119604173256
0.500000000000000333,0.040466649523133280
0.501000000000000334,0.063592290923781422
0.502000000000000335,0.086098440070874332
0.503000000000000336,0.107992566161165815
0.504000000000000337,0.129282205415119283
0.505000000000000338,0.149974955315725189
0.506000000000000338,0.170078468993431070
0.507000000000000339,0.189600449756101297
0.508000000000000340,0.208548645762769963
0.509000000000000341,0.226930844839930812
0.510000000000000342,0.244754869439049560
0.511000000000000343,0.262028571733853965
0.512000000000000344,0.278759828855954683
0.513000000000000345,0.294956538267233115
0.514000000000000346,0.310626613267423690
0.515000000000000346,0.325777978635254428
0.516000000000000347,0.340418566401458123
0.517000000000000348,0.354556311751868247
0.518000000000000349,0.368199149058939024
0.519000000000000350,0.381355008039767185
0.520000000000000351,0.394031810038841024
0.521000000000000352,0.406237464433627349
0.522000000000000353,0.417979865161092534
0.523000000000000353,0.429266887363271177
0.524000000000000354,0.440106384149884344
0.525000000000000355,0.450506183476102606
0.526000000000000356,0.460474085133469824
0.527000000000000357,0.470017857851946885
0.528000000000000358,0.479145236511203609
0.529000000000000359,0.487863919458990991
0.530000000000000360,0.496181565934745883
0.531000000000000361,0.504105793596291818
0.532000000000000361,0.511644176147716623
0.533000000000000362,0.518804241066323835
0.534000000000000363,0.525593467426739624
0.535000000000000364,0.532019283820097000
0.536000000000000365,0.538089066366340685
0.537000000000000366,0.543810136817627354
0.538000000000000367,0.549189760750882661
0.539000000000000368,0.554235145847466582
0.540000000000000369,0.558953440258085577
0.541000000000000369,0.563351731050898308
0.542000000000000370,0.567437042740952968
0.543000000000000371,0.571216335899016436
0.544000000000000372,0.574696505837856586
0.545000000000000373,0.577884381374142775
0.546000000000000374,0.580786723664064142
0.547000000000000375,0.583410225110823744
0.548000000000000376,0.585761508342154458
0.549000000000000377,0.587847125256088177
0.550000000000000377,0.589673556133165744
0.551000000000000378,0.591247208813291403
0.552000000000000379,0.592574417935550768
0.553000000000000380,0.593661444239186986
0.554000000000000381,0.594514473924119158
0.555000000000000382,0.595139618069246201
0.556000000000000383,0.595542912106948874
0.557000000000000384,0.595730315352105189
0.558000000000000385,0.595707710584067351
0.559000000000000385,0.595480903679965534
0.560000000000000386,0.595055623297834901
0.561000000000000387,0.594437520608000813
0.562000000000000388,0.593632169071230953
0.563000000000000389,0.592645064262173005
0.564000000000000390,0.591481623736632156
0.565000000000000391,0.590147186941242019
0.566000000000000392,0.588647015164160292
0.567000000000000393,0.586986291525363968
0.568000000000000393,0.585170121005250676
0.569000000000000394,0.583203530510167600
0.570000000000000395,0.581091468973617520
0.571000000000000396,0.578838807491833363
0.572000000000000397,0.576450339492470487
0.573000000000000398,0.573930780935249851
0.574000000000000399,0.571284770543263321
0.575000000000000400,0.568516870063863311
0.576000000000000401,0.565631564557926181
0.577000000000000401,0.562633262716380811
0.578000000000000402,0.559526297202919132
0.579000000000000403,0.556314925021822670
0.580000000000000404,0.553003327909806108
0.581000000000000405,0.549595612750913731
0.582000000000000406,0.546095812013437820
0.583000000000000407,0.542507884207862445
0.584000000000000408,0.538835714364930829
0.585000000000000409,0.535083114532854287
0.586000000000000409,0.531253824292772681
0.587000000000000410,0.527351511291586084
0.588000000000000411,0.523379771791288695
0.589000000000000412,0.519342131233948900
0.590000000000000413,0.515242044821544232
0.591000000000000414,0.511082898109821215
0.592000000000000415,0.506868007615421279
0.593000000000000416,0.502600621435504435
0.594000000000000417,0.498283919879143444
0.595000000000000417,0.493921016109752142
0.596000000000000418,0.489514956797877487
0.597000000000000419,0.485068722783652650
0.598000000000000420,0.480585229748263010
0.599000000000000421,0.476067328893790109
0.600000000000000422,0.471517807630793151
0.601000000000000423,0.466939390273049704
0.602000000000000424,0.462334738738847562
0.603000000000000425,0.457706453258265533
0.604000000000000425,0.453057073085904594
0.605000000000000426,0.448389077218529941
0.606000000000000427,0.443704885117060299
0.607000000000000428,0.439006857432532871
0.608000000000000429,0.434297296735343230
0.609000000000000430,0.429578448247559197
0.610000000000000431,0.424852500577593717
0.611000000000000432,0.420121586456977059
0.612000000000000433,0.415387783478749106
0.613000000000000433,0.410653114837006394
0.614000000000000434,0.405919550067300350
0.615000000000000435,0.401189005787448150
0.616000000000000436,0.396463346438391762
