# TiO2-ana-101_ETA-JS
# h[nm],U(h)[kJ/mol]
0.149999999999999994,58.418648600371327007
0.150999999999999995,56.854720234637738940
0.151999999999999996,55.706813988655973446
0.152999999999999997,54.617171911072716739
0.153999999999999998,53.469129688480578011
0.154999999999999999,52.255031928810254271
0.156000000000000000,51.006302950340867142
0.157000000000000001,49.759625091548599585
0.158000000000000002,48.543150997758985454
0.159000000000000002,47.373092809441928352
0.160000000000000003,46.255089760045621006
0.161000000000000004,45.187269172994795952
0.162000000000000005,44.163430441112737412
0.163000000000000006,43.175661020591554973
0.164000000000000007,42.216177404946975571
0.165000000000000008,41.278428287891998139
0.166000000000000009,40.357601403045912036
0.167000000000000010,39.450702394112852289
0.168000000000000010,38.556361740728014809
0.169000000000000011,37.674496773346767498
0.170000000000000012,36.805922760735619192
0.171000000000000013,35.951976424482836592
0.172000000000000014,35.114189847537495837
0.173000000000000015,34.294033338635834696
0.174000000000000016,33.492732036436635212
0.175000000000000017,32.711152032080896390
0.176000000000000018,31.949746549673001539
0.177000000000000018,31.208550278781046927
0.178000000000000019,30.487209454780277440
0.179000000000000020,29.785036043017178997
0.180000000000000021,29.101075870973129867
0.181000000000000022,28.434182380589692940
0.182000000000000023,27.783089571548014618
0.183000000000000024,27.146479501230992071
0.184000000000000025,26.523041296188743843
0.185000000000000026,25.911519963650533782
0.186000000000000026,25.310754357046594265
0.187000000000000027,24.719704457642990292
0.188000000000000028,24.137468710663487315
0.189000000000000029,23.563292531474374414
0.190000000000000030,22.996569310841589839
0.191000000000000031,22.436835332464983850
0.192000000000000032,21.883760002707603576
0.193000000000000033,21.337132709537417696
0.194000000000000034,20.796847498716623193
0.195000000000000034,20.262886599377225139
0.196000000000000035,19.735303663380207695
0.197000000000000036,19.214207414655898987
0.198000000000000037,18.699746244269661588
0.199000000000000038,18.192094139792814644
0.200000000000000039,17.691438207065058208
0.201000000000000040,17.197967930290356975
0.202000000000000041,16.711866223002829202
0.203000000000000042,16.233302247213664771
0.204000000000000042,15.762425919794930351
0.205000000000000043,15.299363982244534199
0.206000000000000044,14.844217480549232846
0.207000000000000045,14.397060483975632650
0.208000000000000046,13.957939863344853038
0.209000000000000047,13.526875948851975195
0.210000000000000048,13.103863893087446257
0.211000000000000049,12.688875575088975012
0.212000000000000050,12.281861894671001423
0.213000000000000050,11.882755321811517391
0.214000000000000051,11.491472582570965599
0.215000000000000052,11.107917380103176086
0.216000000000000053,10.731983066179125785
0.217000000000000054,10.363555194809539017
0.218000000000000055,10.002513904676968437
0.219000000000000056,9.648736090933992315
0.220000000000000057,9.302097339341731441
0.221000000000000058,8.962473606642216595
0.222000000000000058,8.629742640459594938
0.223000000000000059,8.303785139947750693
0.224000000000000060,7.984485664908037350
0.225000000000000061,7.671733306287964460
0.226000000000000062,7.365422134948230948
0.227000000000000063,7.065451448473676344
0.228000000000000064,6.771725837729036357
0.229000000000000065,6.484155095948284320
0.230000000000000066,6.202653993521193065
0.231000000000000066,5.927141941417433557
0.232000000000000067,5.657542565479066532
0.233000000000000068,5.393783212714735598
0.234000000000000069,5.135794409336092770
0.235000000000000070,4.883509288669036330
0.236000000000000071,4.636863005320679854
0.237000000000000072,4.395792150148701616
0.238000000000000073,4.160234178715507269
0.239000000000000073,3.930126864059251268
0.240000000000000074,3.705407782811389161
0.241000000000000075,3.486013841966760562
0.242000000000000076,3.271880851987074124
0.243000000000000077,3.062943150409086268
0.244000000000000078,2.859133278745820572
0.245000000000000079,2.660381714219300253
0.246000000000000080,2.466616656749847092
0.247000000000000081,2.277763870649198719
0.248000000000000081,2.093746579621162507
0.249000000000000082,1.914485412958503385
0.250000000000000111,1.739898400232441800
0.251000000000000112,1.569901011294485782
0.252000000000000113,1.404406238039946908
0.253000000000000114,1.243324714111534002
0.254000000000000115,1.086564868538173245
0.255000000000000115,0.934033109201976353
0.256000000000000116,0.785634031994202231
0.257000000000000117,0.641270651550857052
0.258000000000000118,0.500844649542232956
0.259000000000000119,0.364256636618909724
0.260000000000000120,0.231406424282754208
0.261000000000000121,0.102193303148304881
0.262000000000000122,-0.023483675719899465
0.263000000000000123,-0.145725419469677930
0.264000000000000123,-0.264632514947946373
0.265000000000000124,-0.380304955577335568
0.266000000000000125,-0.492841875925772221
0.267000000000000126,-0.602341296009412108
0.268000000000000127,-0.708899877110442223
0.269000000000000128,-0.812612690637879331
0.270000000000000129,-0.913573001314934574
0.271000000000000130,-1.011872065741994842
0.272000000000000131,-1.107598947161399616
0.273000000000000131,-1.200840347040417644
0.274000000000000132,-1.291680453892628311
0.275000000000000133,-1.380200809576249243
0.276000000000000134,-1.466480193140828003
0.277000000000000135,-1.550594522141398812
0.278000000000000136,-1.632616771201872208
0.279000000000000137,-1.712616907486417928
0.280000000000000138,-1.790661842628836098
0.281000000000000139,-1.866815400575104977
0.282000000000000139,-1.941138300712383913
0.283000000000000140,-2.013688155588747808
0.284000000000000141,-2.084519482470543750
0.285000000000000142,-2.153683727938321191
0.286000000000000143,-2.221229304686698658
0.287000000000000144,-2.287201639667489239
0.288000000000000145,-2.351643232698762631
0.289000000000000146,-2.414593724653341322
0.290000000000000147,-2.476089974339267474
0.291000000000000147,-2.536166143189759303
0.292000000000000148,-2.594853786891833103
0.293000000000000149,-2.652181953099038925
0.294000000000000150,-2.708177284395303364
0.295000000000000151,-2.762864125701956386
0.296000000000000152,-2.816264635348823209
0.297000000000000153,-2.868398899061837426
0.298000000000000154,-2.919285046153570207
0.299000000000000155,-2.968939367238959903
0.300000000000000155,-3.017376432835793931
0.301000000000000156,-3.064609212247831227
0.302000000000000157,-3.110649192167526333
0.303000000000000158,-3.155506494474564327
0.304000000000000159,-3.199189992745920641
0.305000000000000160,-3.241707427032182842
0.306000000000000161,-3.283065516493620439
0.307000000000000162,-3.323270069527458848
0.308000000000000163,-3.362326091054868016
0.309000000000000163,-3.400237886672270893
0.310000000000000164,-3.437009163406509860
0.311000000000000165,-3.472643126846929995
0.312000000000000166,-3.507142574459795270
0.313000000000000167,-3.540509984921131892
0.314000000000000168,-3.572747603333459754
0.315000000000000169,-3.603857522219496623
0.316000000000000170,-3.633841758212270179
0.317000000000000171,-3.662702324385427310
0.318000000000000171,-3.690441298190629826
0.319000000000000172,-3.717060884990371683
0.320000000000000173,-3.742563477194281951
0.321000000000000174,-3.766951709025327943
0.322000000000000175,-3.790228506959203880
0.323000000000000176,-3.812397135895368994
0.324000000000000177,-3.833461241132265940
0.325000000000000178,-3.853424886231661795
0.326000000000000179,-3.872292586868378628
0.327000000000000179,-3.890069340771494577
0.328000000000000180,-3.906760653871923950
0.329000000000000181,-3.922372562778893013
0.330000000000000182,-3.936911653714081361
0.331000000000000183,-3.950385078038021192
0.332000000000000184,-3.962800564507414691
0.333000000000000185,-3.974166428405863538
0.334000000000000186,-3.984491577693061171
0.335000000000000187,-3.993785516319419138
0.336000000000000187,-4.002058344854292571
0.337000000000000188,-4.009320758576294885
0.338000000000000189,-4.015584043174189155
0.339000000000000190,-4.020860068206014049
0.340000000000000191,-4.025161278462661585
0.341000000000000192,-4.028500683380691783
0.342000000000000193,-4.030891844646582456
0.343000000000000194,-4.032348862132348444
0.344000000000000195,-4.032886358299170304
0.345000000000000195,-4.032519461202801914
0.346000000000000196,-4.031263786230647739
0.347000000000000197,-4.029135416696828287
0.348000000000000198,-4.026150883417580317
0.349000000000000199,-4.022327143385079573
0.350000000000000200,-4.017681557653707713
0.351000000000000201,-4.012231868548147951
0.352000000000000202,-4.005996176298465272
0.353000000000000203,-3.998992915202652654
0.354000000000000203,-3.991240829412595392
0.355000000000000204,-3.982758948434828916
0.356000000000000205,-3.973566562432865990
0.357000000000000206,-3.963683197413383930
0.358000000000000207,-3.953128590373831575
0.359000000000000208,-3.941922664484802219
0.360000000000000209,-3.930085504375882888
0.361000000000000210,-3.917637331589446603
0.362000000000000210,-3.904598480262547522
0.363000000000000211,-3.890989373092951009
0.364000000000000212,-3.876830497641200246
0.365000000000000213,-3.862142383016699654
0.366000000000000214,-3.846945576991922966
0.367000000000000215,-3.831260623585111436
0.368000000000000216,-3.815108041148255857
0.369000000000000217,-3.798508300993598930
0.370000000000000218,-3.781481806588602446
0.371000000000000218,-3.764048873346035773
0.372000000000000219,-3.746229709032794286
0.373000000000000220,-3.728044394818041063
0.374000000000000221,-3.709512866978486922
0.375000000000000222,-3.690654899275800371
0.376000000000000223,-3.671490086018751153
0.377000000000000224,-3.652037825820054540
0.378000000000000225,-3.632317306055685258
0.379000000000000226,-3.612347488032177978
0.380000000000000226,-3.592147092865427105
0.381000000000000227,-3.571734588072449590
0.382000000000000228,-3.551128174875846533
0.383000000000000229,-3.530345776218935416
0.384000000000000230,-3.509405025487887464
0.385000000000000231,-3.488323255935834144
0.386000000000000232,-3.467117490802360091
0.387000000000000233,-3.445804434120660176
0.388000000000000234,-3.424400462203340822
0.389000000000000234,-3.402921615796857591
0.390000000000000235,-3.381383592893504986
0.391000000000000236,-3.359801742189019613
0.392000000000000237,-3.338191057172995357
0.393000000000000238,-3.316566170838628036
0.394000000000000239,-3.294941350997556917
0.395000000000000240,-3.273330496185086425
0.396000000000000241,-3.251747132140474061
0.397000000000000242,-3.230204408846549136
0.398000000000000242,-3.208715098112576047
0.399000000000000243,-3.187291591683879766
0.400000000000000244,-3.165945899861549062
0.401000000000000245,-3.144689650615338561
0.402000000000000246,-3.123534089172605555
0.403000000000000247,-3.102490078066184154
0.404000000000000248,-3.081568097623895497
0.405000000000000249,-3.060778246882442488
0.406000000000000250,-3.040130244908406887
0.407000000000000250,-3.019633432509181148
0.408000000000000251,-2.999296774316687397
0.409000000000000252,-2.979128861226920222
0.410000000000000253,-2.959137913178442325
0.411000000000000254,-2.939331782253208125
0.412000000000000255,-2.919717956083210275
0.413000000000000256,-2.900303561546766495
0.414000000000000257,-2.881095368738418649
0.415000000000000258,-2.862099795196758389
0.416000000000000258,-2.843322910374727286
0.417000000000000259,-2.824770440337270649
0.418000000000000260,-2.806447772671524010
0.419000000000000261,-2.788359961595035852
0.420000000000000262,-2.770511733247860597
0.421000000000000263,-2.752907491154760855
0.422000000000000264,-2.735551321843987971
0.423000000000000265,-2.718447000609589548
0.424000000000000266,-2.701597997404554086
0.425000000000000266,-2.685007482852338256
0.426000000000000267,-2.668678334364875671
0.427000000000000268,-2.652613142355435105
0.428000000000000269,-2.636814216535068311
0.429000000000000270,-2.621283592281851149
0.430000000000000271,-2.606023037072378923
0.431000000000000272,-2.591034056965473731
0.432000000000000273,-2.576317903128335196
0.433000000000000274,-2.561875578395805597
0.434000000000000274,-2.547707843853767251
0.435000000000000275,-2.533815225438018626
0.436000000000000276,-2.520198020540426853
0.437000000000000277,-2.506856304614391462
0.438000000000000278,-2.493789937772111109
0.439000000000000279,-2.480998571366438643
0.440000000000000280,-2.468481654550438886
0.441000000000000281,-2.456238440808122370
0.442000000000000282,-2.444267994450183501
0.443000000000000282,-2.432569197068783939
0.444000000000000283,-2.421140753945894453
0.445000000000000284,-2.409981200409862634
0.446000000000000285,-2.399088908135250442
0.447000000000000286,-2.388462091381316377
0.448000000000000287,-2.378098813164672976
0.449000000000000288,-2.367996991362078418
0.450000000000000289,-2.358154404739462695
0.451000000000000290,-2.348568698903630292
0.452000000000000290,-2.339237392173323382
0.453000000000000291,-2.330157881366513806
0.454000000000000292,-2.321327447501141172
0.455000000000000293,-2.312743261406624562
0.456000000000000294,-2.304402389243798144
0.457000000000000295,-2.296301797931074251
0.458000000000000296,-2.288438360474867928
0.459000000000000297,-2.280808861202525240
0.460000000000000298,-2.273410000896165073
0.461000000000000298,-2.266238401826063509
0.462000000000000299,-2.259290612682363530
0.463000000000000300,-2.252563113404055350
0.464000000000000301,-2.246052319904394245
0.465000000000000302,-2.239754588691998727
0.466000000000000303,-2.233666221387083706
0.467000000000000304,-2.227783469132416094
0.468000000000000305,-2.222102536898685976
0.469000000000000306,-2.216619587684171666
0.470000000000000306,-2.211330746608659581
0.471000000000000307,-2.206232104901700186
0.472000000000000308,-2.201319723785439386
0.473000000000000309,-2.196589638252320675
0.474000000000000310,-2.192037860738067501
0.475000000000000311,-2.187660384690494730
0.476000000000000312,-2.183453188034714110
0.477000000000000313,-2.179412236535468672
0.478000000000000314,-2.175533487057322635
0.479000000000000314,-2.171812890723614942
0.480000000000000315,-2.168246395975035323
0.481000000000000316,-2.164829951528877583
0.482000000000000317,-2.161559509239959542
0.483000000000000318,-2.158431026864375379
0.484000000000000319,-2.155440470727204794
0.485000000000000320,-2.152583818295422891
0.486000000000000321,-2.149857060657249797
0.487000000000000322,-2.147256204909276267
0.488000000000000322,-2.144777276452662029
0.489000000000000323,-2.142416321199837714
0.490000000000000324,-2.140169407693100823
0.491000000000000325,-2.138032629136530804
0.492000000000000326,-2.136002105342721613
0.493000000000000327,-2.134073984595809659
0.494000000000000328,-2.132244445432306623
0.495000000000000329,-2.130509698341275904
0.496000000000000330,-2.128865987385379022
0.497000000000000330,-2.127309591744396489
0.498000000000000331,-2.125836827182715272
0.499000000000000332,-2.124444047442442418
0.500000000000000333,-2.123127645563679611
0.501000000000000334,-2.121884055133540059
0.502000000000000335,-2.120709751465537529
0.503000000000000336,-2.119601252710894723
0.504000000000000337,-2.118555120903392819
0.505000000000000338,-2.117567962939314263
0.506000000000000338,-2.116636431494096193
0.507000000000000339,-2.115757225877234582
0.508000000000000340,-2.114927092827019628
0.509000000000000341,-2.114142827246681566
0.510000000000000342,-2.113401272883445259
0.511000000000000343,-2.112699322952084735
0.512000000000000344,-2.112033920704454282
0.513000000000000345,-2.111402059946538401
0.514000000000000346,-2.110800785504513666
0.515000000000000346,-2.110227193641279975
0.516000000000000347,-2.109678432424949346
0.517000000000000348,-2.109151702050740429
0.518000000000000349,-2.108644255117689603
0.519000000000000350,-2.108153396861610851
0.520000000000000351,-2.107676485345685524
0.521000000000000352,-2.107210931610069338
0.522000000000000353,-2.106754199781848413
0.523000000000000353,-2.106303807146702844
0.524000000000000354,-2.105857324183573187
0.525000000000000355,-2.105412374563638611
0.526000000000000356,-2.104966635114847939
0.527000000000000357,-2.104517835753290989
0.528000000000000358,-2.104063759382611920
0.529000000000000359,-2.103602241762672520
0.530000000000000360,-2.103131171348645356
0.531000000000000361,-2.102648489101716756
0.532000000000000361,-2.102152188272513378
0.533000000000000362,-2.101640314158374157
0.534000000000000363,-2.101110963835565837
0.535000000000000364,-2.100562285867509704
0.536000000000000365,-2.099992479990055561
0.537000000000000366,-2.099399796774845228
0.538000000000000367,-2.098782537271743021
0.539000000000000368,-2.098139052631343482
0.540000000000000369,-2.097467743708477883
0.541000000000000369,-2.096767060647681369
0.542000000000000370,-2.096035502451513377
0.543000000000000371,-2.095271616532631054
0.544000000000000372,-2.094473998250482083
0.545000000000000373,-2.093641290433459368
0.546000000000000374,-2.092772182887342680
0.547000000000000375,-2.091865411890826643
0.548000000000000376,-2.090919759678929069
0.549000000000000377,-2.089934053915023959
0.550000000000000377,-2.088907167152252775
0.551000000000000378,-2.087838016285016529
0.552000000000000379,-2.086725561991274347
0.553000000000000380,-2.085568808166294197
0.554000000000000381,-2.084366801348544573
0.555000000000000382,-2.083118630138360849
0.556000000000000383,-2.081823424609977824
0.557000000000000384,-2.080480355717587493
0.558000000000000385,-2.079088634695943849
0.559000000000000385,-2.077647512456128887
0.560000000000000386,-2.076156278976999836
0.561000000000000387,-2.074614262692854094
0.562000000000000388,-2.073020829877824767
0.563000000000000389,-2.071375384027510869
0.564000000000000390,-2.069677365238301370
0.565000000000000391,-2.067926249584871368
0.566000000000000392,-2.066121548496293592
0.567000000000000393,-2.064262808131192450
0.568000000000000393,-2.062349608752353625
0.569000000000000394,-2.060381564101192886
0.570000000000000395,-2.058358320772470496
0.571000000000000396,-2.056279557589614004
0.572000000000000397,-2.054144984981017608
0.573000000000000398,-2.051954344357641791
0.574000000000000399,-2.049707407492262323
0.575000000000000400,-2.047403975900672801
0.576000000000000401,-2.045043880225129840
0.577000000000000401,-2.042626979620370875
0.578000000000000402,-2.040153161142431060
0.579000000000000403,-2.037622339140555017
0.580000000000000404,-2.035034454652463243
0.581000000000000405,-2.032389474803177443
0.582000000000000406,-2.029687392207681462
0.583000000000000407,-2.026928224377595456
0.584000000000000408,-2.024112013132107091
0.585000000000000409,-2.021238824013331659
0.586000000000000409,-2.018308745706297813
0.587000000000000410,-2.015321889463752569
0.588000000000000411,-2.012278388535919227
0.589000000000000412,-2.009178397605414723
0.590000000000000413,-2.006022092227421005
0.591000000000000414,-2.002809668275308930
0.592000000000000415,-1.999541341391804394
0.593000000000000416,-1.996217346445837482
0.594000000000000417,-1.992837936995195181
0.595000000000000417,-1.989403384755091153
0.596000000000000418,-1.985913979072715163
0.597000000000000419,-1.982370026407924257
0.598000000000000420,-1.978771849820086803
0.599000000000000421,-1.975119788461219716
0.600000000000000422,-1.971414197075461727
0.601000000000000423,-1.967655445504942646
0.602000000000000424,-1.963843918202137662
0.603000000000000425,-1.959980013748739536
0.604000000000000425,-1.956064144381093994
0.605000000000000426,-1.952096735522255155
0.606000000000000427,-1.948078225320698964
0.607000000000000428,-1.944009064195694192
0.608000000000000429,-1.939889714389418929
0.609000000000000430,-1.935720649525771053
0.610000000000000431,-1.931502354175956837
0.611000000000000432,-1.927235323430822378
0.612000000000000433,-1.922920062479954950
0.613000000000000433,-1.918557086197570483
0.614000000000000434,-1.914146918735161407
