# TiO2-ana-101_PROSCA-JS
# h[nm],U(h)[kJ/mol]
0.149999999999999994,87.544109038180167204
0.150999999999999995,86.370330529622378890
0.151999999999999996,85.209405800902999317
0.152999999999999997,84.040263565785039646
0.153999999999999998,82.871142630488435543
0.154999999999999999,81.714669862037027315
0.156000000000000000,80.578882524235808660
0.157000000000000001,79.465812463233945095
0.158000000000000002,78.373066172926570516
0.159000000000000002,77.296092287196103143
0.160000000000000003,76.230112552364786893
0.161000000000000004,75.171383312574690194
0.162000000000000005,74.117794173196998031
0.163000000000000006,73.068950583710986280
0.164000000000000007,72.025920578548934259
0.165000000000000008,70.990808078581466134
0.166000000000000009,69.966277451120191699
0.167000000000000010,68.955113258781977947
0.168000000000000010,67.959863335218102520
0.169000000000000011,66.982585515914735197
0.170000000000000012,66.024698823688282801
0.171000000000000013,65.086927653005574257
0.172000000000000014,64.169321013498006323
0.173000000000000015,63.271326631041993949
0.174000000000000016,62.391900285419616523
0.175000000000000017,61.529633065418728677
0.176000000000000018,60.682882394441378437
0.177000000000000018,59.849896117283677199
0.178000000000000019,59.028922241868329479
0.179000000000000020,58.218299859262309326
0.180000000000000021,57.416529201581724351
0.181000000000000022,56.622320704515303191
0.182000000000000023,55.834624338544244893
0.183000000000000024,55.052641413005538595
0.184000000000000025,54.275821609386881050
0.185000000000000026,53.503848239676926823
0.186000000000000026,52.736614725298672113
0.187000000000000027,51.974195118667921633
0.188000000000000028,51.216811200308235641
0.189000000000000029,50.464798327387498489
0.190000000000000030,49.718571822375949409
0.191000000000000031,48.978595302022895908
0.192000000000000032,48.245351977746452121
0.193000000000000033,47.519319622759503829
0.194000000000000034,46.800949607188009338
0.195000000000000034,46.090650154055516907
0.196000000000000035,45.388773766963048217
0.197000000000000036,44.695608622823264966
0.198000000000000037,44.011373606701411632
0.199000000000000038,43.336216586240347226
0.200000000000000039,42.670215475336348732
0.201000000000000040,42.013381615565350558
0.202000000000000041,41.365665004326821474
0.203000000000000042,40.726960916078851938
0.204000000000000042,40.097117493109465158
0.205000000000000043,39.475943921261553271
0.206000000000000044,38.863218850654881464
0.207000000000000045,38.258698769016461938
0.208000000000000046,37.662126083525592435
0.209000000000000047,37.073236714354138144
0.210000000000000048,36.491767048005399943
0.211000000000000049,35.917460140166191707
0.212000000000000050,35.350071095435026791
0.213000000000000050,34.789371584598669074
0.214000000000000051,34.235153488927899446
0.215000000000000052,33.687231685264997338
0.216000000000000053,33.145446005620371466
0.217000000000000054,32.609662420826211360
0.218000000000000055,32.079773509826111422
0.219000000000000056,31.555698284769015061
0.220000000000000057,31.037381447606765761
0.221000000000000058,30.524792156763464135
0.222000000000000058,30.017922383034356670
0.223000000000000059,29.516784932562341481
0.224000000000000060,29.021411211878916703
0.225000000000000061,28.531848805911710798
0.226000000000000062,28.048158934847890578
0.227000000000000063,27.570413850064642958
0.228000000000000064,27.098694223230030076
0.229000000000000065,26.633086576335045947
0.230000000000000066,26.173680794018054030
0.231000000000000066,25.720567753221065033
0.232000000000000067,25.273837099094293990
0.233000000000000068,24.833575190229314700
0.234000000000000069,24.399863230823626736
0.235000000000000070,23.972775602310250065
0.236000000000000071,23.552378402359607890
0.237000000000000072,23.138728194996541987
0.238000000000000073,22.731870971880727694
0.239000000000000073,22.331841321571129555
0.240000000000000074,21.938661800822472969
0.241000000000000075,21.552342499627684447
0.242000000000000076,21.172880789801489243
0.243000000000000077,20.800261245368961482
0.244000000000000078,20.434455721852426535
0.245000000000000079,20.075423580706171833
0.246000000000000080,19.723112044603158921
0.247000000000000081,19.377456668995680644
0.248000000000000081,19.038381915324524840
0.249000000000000082,18.705801811406793433
0.250000000000000111,18.379620684861954771
0.251000000000000112,18.059733955912324888
0.252000000000000113,17.746028976491356133
0.253000000000000114,17.438385903288466494
0.254000000000000115,17.136678593128731762
0.255000000000000115,16.840775509912578656
0.256000000000000116,16.550540633203954854
0.257000000000000117,16.265834359442216339
0.258000000000000118,15.986514387647378754
0.259000000000000119,15.712436582379151417
0.260000000000000120,15.443455807587053386
0.261000000000000121,15.179426725842313672
0.262000000000000122,14.920204558266302541
0.263000000000000123,14.665645801257383596
0.264000000000000123,14.415608896864871014
0.265000000000000124,14.169954854361202834
0.266000000000000125,13.928547821218739244
0.267000000000000126,13.691255602304659433
0.268000000000000127,13.457950126664689705
0.269000000000000128,13.228507861774470911
0.270000000000000129,13.002810175595978848
0.271000000000000130,12.780743647186504575
0.272000000000000131,12.562200326971469266
0.273000000000000131,12.347077948109969725
0.274000000000000132,12.135280090656911156
0.275000000000000133,11.926716300458767961
0.276000000000000134,11.721302164914632726
0.277000000000000135,11.518959347892486988
0.278000000000000136,11.319615586214345271
0.279000000000000137,11.123204650216887757
0.280000000000000138,10.929666270958117380
0.281000000000000139,10.738946036677834428
0.282000000000000139,10.550995261133460090
0.283000000000000140,10.365770826424970608
0.284000000000000141,10.183235002895463239
0.285000000000000142,10.003355248650217746
0.286000000000000143,9.826103991178019470
0.287000000000000144,9.651458393487356346
0.288000000000000145,9.479400107086984661
0.289000000000000146,9.309915014049501281
0.290000000000000147,9.142992960296471239
0.291000000000000147,8.978627482139255989
0.292000000000000148,8.816815527999244395
0.293000000000000149,8.657557177118473390
0.294000000000000150,8.500855356956112274
0.295000000000000151,8.346715560849926163
0.296000000000000152,8.195145567405131004
0.297000000000000153,8.046155162957331797
0.298000000000000154,7.899755868341427067
0.299000000000000155,7.755960671086192804
0.300000000000000155,7.614783764044167569
0.301000000000000156,7.476240291359980361
0.302000000000000157,7.340346102576800646
0.303000000000000158,7.207117515581565215
0.304000000000000159,7.076571088994130676
0.305000000000000160,6.948723404514953295
0.306000000000000161,6.823590859659383057
0.307000000000000162,6.701189471225039718
0.308000000000000163,6.581534689761886270
0.309000000000000163,6.464641225242243827
0.310000000000000164,6.350522884060596951
0.311000000000000165,6.239192417430298399
0.312000000000000166,6.130661381186079062
0.313000000000000167,6.024940006947767657
0.314000000000000168,5.922037084551530661
0.315000000000000169,5.821959855610150392
0.316000000000000170,5.724713918023248027
0.317000000000000171,5.630303141221931540
0.318000000000000171,5.538729591899645754
0.319000000000000172,5.449993469952064018
0.320000000000000173,5.364093054323535448
0.321000000000000174,5.281024658435630847
0.322000000000000175,5.200782594854413965
0.323000000000000176,5.123359148837389299
0.324000000000000177,5.048744560388008118
0.325000000000000178,4.976927014435455376
0.326000000000000179,4.907892638749348002
0.327000000000000179,4.841625509193770327
0.328000000000000180,4.778107661921411342
0.329000000000000181,4.717319112107255741
0.330000000000000182,4.659237878821717693
0.331000000000000183,4.603840015645014994
0.332000000000000184,4.551099646628268047
0.333000000000000185,4.500989007211651405
0.334000000000000186,4.453478489716114375
0.335000000000000187,4.408536693032414355
0.336000000000000187,4.366130476139411520
0.337000000000000188,4.326225015092793669
0.338000000000000189,4.288783863135060770
0.339000000000000190,4.253769013588170722
0.340000000000000191,4.221140965201369610
0.341000000000000192,4.190858789638060244
0.342000000000000193,4.162880200797554942
0.343000000000000194,4.137161625679620869
0.344000000000000195,4.113658276512283329
0.345000000000000195,4.092324223875587919
0.346000000000000196,4.073112470566957910
0.347000000000000197,4.055975025966231939
0.348000000000000198,4.040862980671124483
0.349000000000000199,4.027726581186525934
0.350000000000000200,4.016515304463299074
0.351000000000000201,4.007177932094754702
0.352000000000000202,3.999662623990917432
0.353000000000000203,3.993916991362658653
0.354000000000000203,3.989888168859389683
0.355000000000000204,3.987522885715436338
0.356000000000000205,3.986767535771211790
0.357000000000000206,3.987568246246075088
0.358000000000000207,3.989870945150357784
0.359000000000000208,3.993621427233926546
0.360000000000000209,3.998765418378565695
0.361000000000000210,4.005248638350826340
0.362000000000000210,4.013016861841003369
0.363000000000000211,4.022015977722622537
0.364000000000000212,4.032192046475064906
0.365000000000000213,4.043491355719988078
0.366000000000000214,4.055860473829667079
0.367000000000000215,4.069246301572667868
0.368000000000000216,4.083596121769055287
0.369000000000000217,4.098857646933854681
0.370000000000000218,4.114979064893558913
0.371000000000000218,4.131909082366377106
0.372000000000000219,4.149596966502165252
0.373000000000000220,4.167992584383329202
0.374000000000000221,4.187046440492485644
0.375000000000000222,4.206709712157495673
0.376000000000000223,4.226934282988241698
0.377000000000000224,4.247672774323709710
0.378000000000000225,4.268878574711334473
0.379000000000000226,4.290505867443927812
0.380000000000000226,4.312509656182444751
0.381000000000000227,4.334845788695810498
0.382000000000000228,4.357470978751262436
0.383000000000000229,4.380342826191169436
0.384000000000000230,4.403419835234318569
0.385000000000000231,4.426661431041284622
0.386000000000000232,4.450027974585429646
0.387000000000000233,4.473480775872221038
0.388000000000000234,4.496982105551031061
0.389000000000000234,4.520495204964423586
0.390000000000000235,4.543984294681012059
0.391000000000000236,4.567414581558514541
0.392000000000000237,4.590752264384397208
0.393000000000000238,4.613964538141761551
0.394000000000000239,4.637019596948542599
0.395000000000000240,4.659886635718179626
0.396000000000000241,4.682535850590026527
0.397000000000000242,4.704938438177697968
0.398000000000000242,4.727066593683352025
0.399000000000000243,4.748893507925690649
0.400000000000000244,4.770393363329166192
0.401000000000000245,4.791541328921261389
0.402000000000000246,4.812313554384486380
0.403000000000000247,4.832687163208932546
0.404000000000000248,4.852640244990692686
0.405000000000000249,4.872151846920749207
0.406000000000000250,4.891201964508203659
0.407000000000000250,4.909771531580857662
0.408000000000000251,4.927842409605445617
0.409000000000000252,4.945397376368783071
0.410000000000000253,4.962420114060376974
0.411000000000000254,4.978895196795916078
0.412000000000000255,4.994808077620282560
0.413000000000000256,5.010145075027565120
0.414000000000000257,5.024893359034773077
0.415000000000000258,5.039040936844657814
0.416000000000000258,5.052576638132329379
0.417000000000000259,5.065490099989066408
0.418000000000000260,5.077771751555838264
0.419000000000000261,5.089412798377948022
0.420000000000000262,5.100405206511185341
0.421000000000000263,5.110741686408841744
0.422000000000000264,5.120415676617853684
0.423000000000000265,5.129421327311430190
0.424000000000000266,5.137753483684327271
0.425000000000000266,5.145407669236083947
0.426000000000000267,5.152380068966399662
0.427000000000000268,5.158667512505939357
0.428000000000000269,5.164267457204828382
0.429000000000000270,5.169177971200078936
0.430000000000000271,5.173397716482403652
0.431000000000000272,5.176925931981759099
0.432000000000000273,5.179762416690143922
0.433000000000000274,5.181907512839281083
0.434000000000000274,5.183362089149895269
0.435000000000000275,5.184127524168461676
0.436000000000000276,5.184205689706454123
0.437000000000000277,5.183598934396314917
0.438000000000000278,5.182310067377541074
0.439000000000000279,5.180342342125527466
0.440000000000000280,5.177699440435039158
0.441000000000000281,5.174385456569465802
0.442000000000000282,5.170404881586230239
0.443000000000000282,5.165762587848140797
0.444000000000000283,5.160463813729693427
0.445000000000000284,5.154514148526705419
0.446000000000000285,5.147919517577138393
0.447000000000000286,5.140686167600135192
0.448000000000000287,5.132820652259948879
0.449000000000000288,5.124329817960666666
0.450000000000000289,5.115220789877274576
0.451000000000000290,5.105500958227848329
0.452000000000000290,5.095177964791423264
0.453000000000000291,5.084259689675326932
0.454000000000000292,5.072754238335508425
0.455000000000000293,5.060669928852818522
0.456000000000000294,5.048015279467793270
0.457000000000000295,5.034798996376131264
0.458000000000000296,5.021029961786542373
0.459000000000000297,5.006717222242413001
0.460000000000000298,4.991869977208218678
0.461000000000000298,4.976497567921413179
0.462000000000000299,4.960609466510055299
0.463000000000000300,4.944215265376259438
0.464000000000000301,4.927324666845130707
0.465000000000000302,4.909947473078645430
0.466000000000000303,4.892093576253659037
0.467000000000000304,4.873772949002922239
0.468000000000000305,4.854995635117803410
0.469000000000000306,4.835771740511157546
0.470000000000000306,4.816111424438583200
0.471000000000000307,4.796024890976073429
0.472000000000000308,4.775522380751960227
0.473000000000000309,4.754614162930761445
0.474000000000000310,4.733310527446478844
0.475000000000000311,4.711621777482678297
0.476000000000000312,4.689558222196553494
0.477000000000000313,4.667130169684073238
0.478000000000000314,4.644347920183145462
0.479000000000000314,4.621221759511635163
0.480000000000000315,4.597761952736982849
0.481000000000000316,4.573978738074059969
0.482000000000000317,4.549882321007818753
0.483000000000000318,4.525482868637192624
0.484000000000000319,4.500790504236702461
0.485000000000000320,4.475815302032038367
0.486000000000000321,4.450567282185981632
0.487000000000000322,4.425056405990852149
0.488000000000000322,4.399292571263690554
0.489000000000000323,4.373285607940367470
0.490000000000000324,4.347045273864703852
0.491000000000000325,4.320581250768751325
0.492000000000000326,4.293903140440292532
0.493000000000000327,4.267020461073680160
0.494000000000000328,4.239942643800007183
0.495000000000000329,4.212679029392790042
0.496000000000000330,4.185238865145104903
0.497000000000000330,4.157631301914344490
0.498000000000000331,4.129865391330634239
0.499000000000000332,4.101950083165013083
0.500000000000000333,4.073894222853478020
0.501000000000000334,4.045706549173055500
0.502000000000000335,4.017395692065999668
0.503000000000000336,3.988970170608376886
0.504000000000000337,3.960438391119164514
0.505000000000000338,3.931808645406170033
0.506000000000000338,3.903089109144999291
0.507000000000000339,3.874287840387423021
0.508000000000000340,3.845412778195471670
0.509000000000000341,3.816471741397656992
0.510000000000000342,3.787472427463752123
0.511000000000000343,3.758422411494604543
0.512000000000000344,3.729329145323515782
0.513000000000000345,3.700199956725744865
0.514000000000000346,3.671042048732763963
0.515000000000000346,3.641862499047926693
0.516000000000000347,3.612668259560271711
0.517000000000000348,3.583466155953236587
0.518000000000000349,3.554262887405063687
0.519000000000000350,3.525065026377862232
0.520000000000000351,3.495879018492141999
0.521000000000000352,3.466711182483875664
0.522000000000000353,3.437567710241125951
0.523000000000000353,3.408454666917259512
0.524000000000000354,3.379377991118007518
0.525000000000000355,3.350343495159436635
0.526000000000000356,3.321356865394236912
0.527000000000000357,3.292423662603501722
0.528000000000000358,3.263549322451465340
0.529000000000000359,3.234739156000569160
0.530000000000000360,3.205998350284376297
0.531000000000000361,3.177331968935818374
0.532000000000000361,3.148744952868423930
0.533000000000000362,3.120242121008106828
0.534000000000000363,3.091828171073299103
0.535000000000000364,3.063507680401080790
0.536000000000000365,3.035285106817204870
0.537000000000000366,3.007164789547826178
0.538000000000000367,2.979150950170859957
0.539000000000000368,2.951247693604945432
0.540000000000000369,2.923459009134019571
0.541000000000000369,2.895788771465579892
0.542000000000000370,2.868240741820760498
0.543000000000000371,2.840818569054376130
0.544000000000000372,2.813525790803169002
0.545000000000000373,2.786365834660533114
0.546000000000000374,2.759342019376006316
0.547000000000000375,2.732457556077929173
0.548000000000000376,2.705715549517663909
0.549000000000000377,2.679118999333845785
0.550000000000000377,2.652670801335140105
0.551000000000000378,2.626373748800098884
0.552000000000000379,2.600230533792687204
0.553000000000000380,2.574243748492107464
0.554000000000000381,2.548415886535616792
0.555000000000000382,2.522749344373065306
0.556000000000000383,2.497246422631890006
0.557000000000000384,2.471909327491399466
0.558000000000000385,2.446740172065174690
0.559000000000000385,2.421740977790463933
0.560000000000000386,2.396913675823515000
0.561000000000000387,2.372260108439775195
0.562000000000000388,2.347782030437975731
0.563000000000000389,2.323481110547101824
0.564000000000000390,2.299358932835355418
0.565000000000000391,2.275416998120169065
0.566000000000000392,2.251656725378432977
0.567000000000000393,2.228079453156090572
0.568000000000000393,2.204686440976291184
0.569000000000000394,2.181478870745340970
0.570000000000000395,2.158457848155733494
0.571000000000000396,2.135624404085501471
0.572000000000000397,2.112979495993235979
0.573000000000000398,2.090524009308150521
0.574000000000000399,2.068258758814504272
0.575000000000000400,2.046184490029838265
0.576000000000000401,2.024301880576437895
0.577000000000000401,2.002611541545472384
0.578000000000000402,1.981114018853285641
0.579000000000000403,1.959809794589382204
0.580000000000000404,1.938699288355579808
0.581000000000000405,1.917782858595932449
0.582000000000000406,1.897060803916970739
0.583000000000000407,1.876533364397852566
0.584000000000000408,1.856200722890071875
0.585000000000000409,1.836063006306343892
0.586000000000000409,1.816120286898304625
0.587000000000000410,1.796372583522758193
0.588000000000000411,1.776819862896125368
0.589000000000000412,1.757462040836815786
0.590000000000000413,1.738298983495273786
0.591000000000000414,1.719330508571445648
0.592000000000000415,1.700556386519423979
0.593000000000000416,1.681976341739062075
0.594000000000000417,1.663590053754360643
0.595000000000000417,1.645397158378450797
0.596000000000000418,1.627397248864966173
0.597000000000000419,1.609589877045716211
0.598000000000000420,1.591974554454442581
0.599000000000000421,1.574550753436599226
0.600000000000000422,1.557317908244976623
0.601000000000000423,1.540275416121147156
0.602000000000000424,1.523422638362557535
0.603000000000000425,1.506758901375231385
0.604000000000000425,1.490283497712036276
0.605000000000000426,1.473995687096417484
0.606000000000000427,1.457894697431556086
0.607000000000000428,1.441979725794964473
0.608000000000000429,1.426249939418404278
0.609000000000000430,1.410704476653219075
0.610000000000000431,1.395342447920971951
0.611000000000000432,1.380162936649449668
0.612000000000000433,1.365165000194039635
0.613000000000000433,1.350347670744447282
0.614000000000000434,1.335709956216850181
0.615000000000000435,1.321250841131461184
0.616000000000000436,1.306969287475571395
0.617000000000000437,1.292864235552098950
0.618000000000000438,1.278934604813719789
0.619000000000000439,1.265179294682610589
0.620000000000000440,1.251597185355886044
