# TiO2-ana-101_VALSCA-AC
# h[nm],U(h)[kJ/mol]
0.149999999999999994,110.852223106440462175
0.150999999999999995,109.374796474207485630
0.151999999999999996,108.130997008189098096
0.152999999999999997,106.910496985133065095
0.153999999999999998,105.656877406819674547
0.154999999999999999,104.375544519069606508
0.156000000000000000,103.088545377710872231
0.157000000000000001,101.815273708205239700
0.158000000000000002,100.566556856426117861
0.159000000000000002,99.344941999165101265
0.160000000000000003,98.147265697273184060
0.161000000000000004,96.967536257183411408
0.162000000000000005,95.799272673584198401
0.163000000000000006,94.637046766978613732
0.164000000000000007,93.477272302179628127
0.165000000000000008,92.318406616160004319
0.166000000000000009,91.160757225005767168
0.167000000000000010,90.006066510478987652
0.168000000000000010,88.857009919747085291
0.169000000000000011,87.716702384367934542
0.170000000000000012,86.588271361428240880
0.171000000000000013,85.474525978795952597
0.172000000000000014,84.377730689744495862
0.173000000000000015,83.299477821599580807
0.174000000000000016,82.240645138003145576
0.175000000000000017,81.201420626437297301
0.176000000000000018,80.181375889242772814
0.177000000000000018,79.179570683874956671
0.178000000000000019,78.194673485575208360
0.179000000000000020,77.225085811289687854
0.180000000000000021,76.269061014581737368
0.181000000000000022,75.324811056990199631
0.182000000000000023,74.390597218465501328
0.183000000000000024,73.464802750547264054
0.184000000000000025,72.545987082808267132
0.185000000000000026,71.632922386574790607
0.186000000000000026,70.724614123904785856
0.187000000000000027,69.820307719640183564
0.188000000000000028,68.919483748908120901
0.189000000000000029,68.021844088746917123
0.190000000000000030,67.127291392523019908
0.191000000000000031,66.235904054624910486
0.192000000000000032,65.347908578266213908
0.193000000000000033,64.463650971399502509
0.194000000000000034,63.583568498174180661
0.195000000000000034,62.708162823386103923
0.196000000000000035,61.837975317073606618
0.197000000000000036,60.973565043606051006
0.198000000000000037,60.115489748614130860
0.199000000000000038,59.264289979588014035
0.200000000000000039,58.420476331580559304
0.201000000000000040,57.584519696447088677
0.202000000000000041,56.756844309744863608
0.203000000000000042,55.937823330558295254
0.204000000000000042,55.127776652607131780
0.205000000000000043,54.326970626498486183
0.206000000000000044,53.535619369481288743
0.207000000000000045,52.753887347381024142
0.208000000000000046,51.981892930656172780
0.209000000000000047,51.219712650195504011
0.210000000000000048,50.467385906389878869
0.211000000000000049,49.724919915335064502
0.212000000000000050,48.992294707255346964
0.213000000000000050,48.269468023192224848
0.214000000000000051,47.556379985757217810
0.215000000000000052,46.852957447630210197
0.216000000000000053,46.159117947022615169
0.217000000000000054,45.474773222225579161
0.218000000000000055,44.799832257476275288
0.219000000000000056,44.134203849666150177
0.220000000000000057,43.477798699939157245
0.221000000000000058,42.830531046113151206
0.222000000000000058,42.192319861275151993
0.223000000000000059,41.563089651063350516
0.224000000000000060,40.942770887280815373
0.225000000000000061,40.331300118828700363
0.226000000000000062,39.728619802736709232
0.227000000000000063,39.134677898539649732
0.228000000000000064,38.549427268622025622
0.229000000000000065,37.972824925633830162
0.230000000000000066,37.404831165860990438
0.231000000000000066,36.845408624682555399
0.232000000000000067,36.294521287117952113
0.233000000000000068,35.752133483091782296
0.234000000000000069,35.218208893537806148
0.235000000000000070,34.692709589922671398
0.236000000000000071,34.175595126275517543
0.237000000000000072,33.666821699425732106
0.238000000000000073,33.166341389929854699
0.239000000000000073,32.674101493150303099
0.240000000000000074,32.190043947157661819
0.241000000000000075,31.714104861588840123
0.242000000000000076,31.246214149311516195
0.243000000000000077,30.786295260727115419
0.244000000000000078,30.334265018788023838
0.245000000000000079,29.890033551302174430
0.246000000000000080,29.453504315841364303
0.247000000000000081,29.024574211542322644
0.248000000000000081,28.603133771280692343
0.249000000000000082,28.189067427087415751
0.250000000000000111,27.782253841248682136
0.251000000000000112,27.382566295267288581
0.252000000000000113,26.989873128744640951
0.253000000000000114,26.604038220254551561
0.254000000000000115,26.224921502401578266
0.255000000000000115,25.852379503474629985
0.256000000000000116,25.486265908403442637
0.257000000000000117,25.126432132087884952
0.258000000000000118,24.772727898584825823
0.259000000000000119,24.425001820090681548
0.260000000000000120,24.083101970140884163
0.261000000000000121,23.746876445948604584
0.262000000000000122,23.416173915316303322
0.263000000000000123,23.090844144067368404
0.264000000000000123,22.770738500453528985
0.265000000000000124,22.455710433492697575
0.266000000000000125,22.145615922675098375
0.267000000000000126,21.840313896940084959
0.268000000000000127,21.539666621267695490
0.269000000000000128,21.243540049646714607
0.270000000000000129,20.951804143570825545
0.271000000000000130,20.664333155577146783
0.272000000000000131,20.381005877674741811
0.273000000000000131,20.101705854814987617
0.274000000000000132,19.826321563830603623
0.275000000000000133,19.554746558516256982
0.276000000000000134,19.286879581741303014
0.277000000000000135,19.022624645676032173
0.278000000000000136,18.761891081376269597
0.279000000000000137,18.504593559110439571
0.280000000000000138,18.250652080928219334
0.281000000000000139,17.999991947062248698
0.282000000000000139,17.752543697826428826
0.283000000000000140,17.508243032726163335
0.284000000000000141,17.267030708530587191
0.285000000000000142,17.028852418074446717
0.286000000000000143,16.793658651560338768
0.287000000000000144,16.561404542121817229
0.288000000000000145,16.332049697385002673
0.289000000000000146,16.105558018733820091
0.290000000000000147,15.881897509941031998
0.291000000000000147,15.661040076777169361
0.292000000000000148,15.442961319151924826
0.293000000000000149,15.227640317279446336
0.294000000000000150,15.015059413291146129
0.295000000000000151,14.805203989647955254
0.296000000000000152,14.598062245629169098
0.297000000000000153,14.393624973098871678
0.298000000000000154,14.191885332672324438
0.299000000000000155,13.992838631326591781
0.300000000000000155,13.796482102420522864
0.301000000000000156,13.602814689011472282
0.302000000000000157,13.411836831278369786
0.303000000000000158,13.223550258785374822
0.304000000000000159,13.037957788245961410
0.305000000000000160,12.855063127375487397
0.306000000000000161,12.674870685350544619
0.307000000000000162,12.497385390326389398
0.308000000000000163,12.322612514399480688
0.309000000000000163,12.150557506340792457
0.310000000000000164,11.981225832367190520
0.311000000000000165,11.814622825162981457
0.312000000000000166,11.650753541311610562
0.313000000000000167,11.489622627248664344
0.314000000000000168,11.331234193801575927
0.315000000000000169,11.175591699338903950
0.316000000000000170,11.022697841512639982
0.317000000000000171,10.872554457540683615
0.318000000000000171,10.725162432943321278
0.319000000000000172,10.580521618617035884
0.320000000000000173,10.438630756101558106
0.321000000000000174,10.299487410871231319
0.322000000000000175,10.163087913459493805
0.323000000000000176,10.029427308205773883
0.324000000000000177,9.898499309396756374
0.325000000000000178,9.770296264559229726
0.326000000000000179,9.644809124648642040
0.327000000000000179,9.522027420867296144
0.328000000000000180,9.401939247836889280
0.329000000000000181,9.284531252843500226
0.330000000000000182,9.169788630867843793
0.331000000000000183,9.057695125109827217
0.332000000000000184,8.948233032714519197
0.333000000000000185,8.841383215405709706
0.334000000000000186,8.737125114733720110
0.335000000000000187,8.635436771645736087
0.336000000000000187,8.536294850089571895
0.337000000000000188,8.439674664365563572
0.338000000000000189,8.345550209945418629
0.339000000000000190,8.253894197482395612
0.340000000000000191,8.164678089743018674
0.341000000000000192,8.077872141197026679
0.342000000000000193,7.993445440009350200
0.343000000000000194,7.911365952185400729
0.344000000000000195,7.831600567629050325
0.345000000000000195,7.754115147880528802
0.346000000000000196,7.678874575310452144
0.347000000000000197,7.605842803554553555
0.348000000000000198,7.534982908982729377
0.349000000000000199,7.466257143005026187
0.350000000000000200,7.399626985026128700
0.351000000000000201,7.335053195869181586
0.352000000000000202,7.272495871498740883
0.353000000000000203,7.211914496881716374
0.354000000000000203,7.153267999834149293
0.355000000000000204,7.096514804710617241
0.356000000000000205,7.041612885801652233
0.357000000000000206,6.988519820313227271
0.358000000000000207,6.937192840810892491
0.359000000000000208,6.887588887019229666
0.360000000000000209,6.839664656875365623
0.361000000000000210,6.793376656743251196
0.362000000000000210,6.748681250702806445
0.363000000000000211,6.705534708835566349
0.364000000000000212,6.663893254435461877
0.365000000000000213,6.623713110080347022
0.366000000000000214,6.584950542506400772
0.367000000000000215,6.547561906234006912
0.368000000000000216,6.511503685899628913
0.369000000000000217,6.476732537254298094
0.370000000000000218,6.443205326794640087
0.371000000000000218,6.410879169997910410
0.372000000000000219,6.379711468137365671
0.373000000000000220,6.349659943659273331
0.374000000000000221,6.320682674107284349
0.375000000000000222,6.292738124584337456
0.376000000000000223,6.265785178746083872
0.377000000000000224,6.239783168323929985
0.378000000000000225,6.214691901179167921
0.379000000000000226,6.190471687893111863
0.380000000000000226,6.167083366901240815
0.381000000000000227,6.144488328182353243
0.382000000000000228,6.122648535516345802
0.383000000000000229,6.101526547326800554
0.384000000000000230,6.081085536126890290
0.385000000000000231,6.061289306589140224
0.386000000000000232,6.042102312261691921
0.387000000000000233,6.023489670955244790
0.388000000000000234,6.005417178826776947
0.389000000000000234,5.987851323187224573
0.390000000000000235,5.970759294061875444
0.391000000000000236,5.954108994533220844
0.392000000000000237,5.937869049897067875
0.393000000000000238,5.922008815663554415
0.394000000000000239,5.906498384435486138
0.395000000000000240,5.891308591697009156
0.396000000000000241,5.876411020546150610
0.397000000000000242,5.861778005405179570
0.398000000000000242,5.847382634743000906
0.399000000000000243,5.833198752844094948
0.400000000000000244,5.819200960658521993
0.401000000000000245,5.805364615767564018
0.402000000000000246,5.791665831499733130
0.403000000000000247,5.778081475231372721
0.404000000000000248,5.764589165906323309
0.405000000000000249,5.751167270808553056
0.406000000000000250,5.737794901621542820
0.407000000000000250,5.724451909807779515
0.408000000000000251,5.711118881341308295
0.409000000000000252,5.697777130825879333
0.410000000000000253,5.684408695030700898
0.411000000000000254,5.670996325875290012
0.412000000000000255,5.657523482894388778
0.413000000000000256,5.643974325213219068
0.414000000000000257,5.630333703062888162
0.415000000000000258,5.616587148864918611
0.416000000000000258,5.602720867913440372
0.417000000000000259,5.588721728682651602
0.418000000000000260,5.574577252786694359
0.419000000000000261,5.560275604618184708
0.420000000000000262,5.545805580691064662
0.421000000000000263,5.531156598712620998
0.422000000000000264,5.516318686408803629
0.423000000000000265,5.501282470126286128
0.424000000000000266,5.486039163233863647
0.425000000000000266,5.470580554345180424
0.426000000000000267,5.454898995383871352
0.427000000000000268,5.438987389511643400
0.428000000000000269,5.422839178938930083
0.429000000000000270,5.406448332637095788
0.430000000000000271,5.389809333970470462
0.431000000000000272,5.372917168265681553
0.432000000000000273,5.355767310335151521
0.433000000000000274,5.338355711970828921
0.434000000000000274,5.320678789423601174
0.435000000000000275,5.302733410883147869
0.436000000000000276,5.284516883972261603
0.437000000000000277,5.266026943269108251
0.438000000000000278,5.247261737870163145
0.439000000000000279,5.228219819005998303
0.440000000000000280,5.208900127721385331
0.441000000000000281,5.189301982630766474
0.442000000000000282,5.169425067759238601
0.443000000000000282,5.149269420478991499
0.444000000000000283,5.128835419550265229
0.445000000000000284,5.108123773275541346
0.446000000000000285,5.087135507775093046
0.447000000000000286,5.065871955391420656
0.448000000000000287,5.044334743229776485
0.449000000000000288,5.022525781841309822
0.450000000000000289,5.000447254055019108
0.451000000000000290,4.978101603964175226
0.452000000000000290,4.955491526072455244
0.453000000000000291,4.932619954604631651
0.454000000000000292,4.909490052986189568
0.455000000000000293,4.886105203495874960
0.456000000000000294,4.862468997094825163
0.457000000000000295,4.838585223435493354
0.458000000000000296,4.814457861053299759
0.459000000000000297,4.790091067743530218
0.460000000000000298,4.765489171125733669
0.461000000000000298,4.740656659397507688
0.462000000000000299,4.715598172279279687
0.463000000000000300,4.690318492151434704
0.464000000000000301,4.664822535384777424
0.465000000000000302,4.639115343865154450
0.466000000000000303,4.613202076712729749
0.467000000000000304,4.587088002196212599
0.468000000000000305,4.560778489842090444
0.469000000000000306,4.534279002738698772
0.470000000000000306,4.507595090034755003
0.471000000000000307,4.480732379631799489
0.472000000000000308,4.453696571069797550
0.473000000000000309,4.426493428604936220
0.474000000000000310,4.399128774478569426
0.475000000000000311,4.371608482376008631
0.476000000000000312,4.343938471073831131
0.477000000000000313,4.316124698274050431
0.478000000000000314,4.288173154623633465
0.479000000000000314,4.260089857917419565
0.480000000000000315,4.231880847482650587
0.481000000000000316,4.203552178743034773
0.482000000000000317,4.175109917960285522
0.483000000000000318,4.146560137150873793
0.484000000000000319,4.117908909175771903
0.485000000000000320,4.089162303000783538
0.486000000000000321,4.060326379125060114
0.487000000000000322,4.031407185175253538
0.488000000000000322,4.002410751662823785
0.489000000000000323,3.973343087901821669
0.490000000000000324,3.944210178084536889
0.491000000000000325,3.915017977512288638
0.492000000000000326,3.885772408978622305
0.493000000000000327,3.856479359302171783
0.494000000000000328,3.827144676006342117
0.495000000000000329,3.797774164143043585
0.496000000000000330,3.768373583257621728
0.497000000000000330,3.738948644492092743
0.498000000000000331,3.709505007823896250
0.499000000000000332,3.680048279437234449
0.500000000000000333,3.650584009224117743
0.501000000000000334,3.621117688412321733
0.502000000000000335,3.591654747317249097
0.503000000000000336,3.562200553214975862
0.504000000000000337,3.532760408333505353
0.505000000000000338,3.503339547959452460
0.506000000000000338,3.473943138657281882
0.507000000000000339,3.444576276598309672
0.508000000000000340,3.415243985996657017
0.509000000000000341,3.385951217649373124
0.510000000000000342,3.356702847577969884
0.511000000000000343,3.327503675768637148
0.512000000000000344,3.298358425008422579
0.513000000000000345,3.269271739814721744
0.514000000000000346,3.240248185455366858
0.515000000000000346,3.211292247056761973
0.516000000000000347,3.182408328797430297
0.517000000000000348,3.153600753184422345
0.518000000000000349,3.124873760410054047
0.519000000000000350,3.096231507786514570
0.520000000000000351,3.067678069255852513
0.521000000000000352,3.039217434972930398
0.522000000000000353,3.010853510959002666
0.523000000000000353,2.982590118823487124
0.524000000000000354,2.954430995551748040
0.525000000000000355,2.926379793356491898
0.526000000000000356,2.898440079590653529
0.527000000000000357,2.870615336719527733
0.528000000000000358,2.842908962350001012
0.529000000000000359,2.815324269314797512
0.530000000000000360,2.787864485809666171
0.531000000000000361,2.760532755581454722
0.532000000000000361,2.733332138165121883
0.533000000000000362,2.706265609167699093
0.534000000000000363,2.679336060597351743
0.535000000000000364,2.652546301235600534
0.536000000000000365,2.625899057050951946
0.537000000000000366,2.599396971652093491
0.538000000000000367,2.573042606778964458
0.539000000000000368,2.546838442829923110
0.540000000000000369,2.520786879423436044
0.541000000000000369,2.494890235992567540
0.542000000000000370,2.469150752410785632
0.543000000000000371,2.443570589647432012
0.544000000000000372,2.418151830451429785
0.545000000000000373,2.392896480061716069
0.546000000000000374,2.367806466942960597
0.547000000000000375,2.342883643545218053
0.548000000000000376,2.318129787086095739
0.549000000000000377,2.293546600354177123
0.550000000000000377,2.269135712532341476
0.551000000000000378,2.244898680039806305
0.552000000000000379,2.220836987391623829
0.553000000000000380,2.196952048074460428
0.554000000000000381,2.173245205437539962
0.555000000000000382,2.149717733597593217
0.556000000000000383,2.126370838356772985
0.557000000000000384,2.103205658132458744
0.558000000000000385,2.080223264897961499
0.559000000000000385,2.057424665133120723
0.560000000000000386,2.034810800783856344
0.561000000000000387,2.012382550229744549
0.562000000000000388,1.990140729258746521
0.563000000000000389,1.968086092048174418
0.564000000000000390,1.946219332151134296
0.565000000000000391,1.924541083487573356
0.566000000000000392,1.903051921339203645
0.567000000000000393,1.881752363347507284
0.568000000000000393,1.860642870514144009
0.569000000000000394,1.839723848203011158
0.570000000000000395,1.818995647143343053
0.571000000000000396,1.798458564433154550
0.572000000000000397,1.778112844542408810
0.573000000000000398,1.757958680315349964
0.574000000000000399,1.737996213971378268
0.575000000000000400,1.718225538103932859
0.576000000000000401,1.698646696676871626
0.577000000000000401,1.679259686017793074
0.578000000000000402,1.660064455807841011
0.579000000000000403,1.641060910067556167
0.580000000000000404,1.622248908138240964
0.581000000000000405,1.603628265658510799
0.582000000000000406,1.585198755535543125
0.583000000000000407,1.566960108910681049
0.584000000000000408,1.548912016119011303
0.585000000000000409,1.531054127642554885
0.586000000000000409,1.513386055056738844
0.587000000000000410,1.495907371969823707
0.588000000000000411,1.478617614955020532
0.589000000000000412,1.461516284474933425
0.590000000000000413,1.444602845798148794
0.591000000000000414,1.427876729907649356
0.592000000000000415,1.411337334400834642
0.593000000000000416,1.394984024380927057
0.594000000000000417,1.378816133339534122
0.595000000000000417,1.362832964030181282
0.596000000000000418,1.347033789332617859
0.597000000000000419,1.331417853107729865
0.598000000000000420,1.315984371042893120
0.599000000000000421,1.300732531487617250
0.600000000000000422,1.285661496279328242
0.601000000000000423,1.270770401559213836
0.602000000000000424,1.256058358577931688
0.603000000000000425,1.241524454491129470
0.604000000000000425,1.227167753144692952
0.605000000000000426,1.212987295849588421
0.606000000000000427,1.198982102146236350
0.607000000000000428,1.185151170558401246
0.608000000000000429,1.171493479336415344
0.609000000000000430,1.158007987189855648
0.610000000000000431,1.144693634009460892
0.611000000000000432,1.131549341578363954
0.612000000000000433,1.118574014272594175
0.613000000000000433,1.105766539750766997
0.614000000000000434,1.093125789633039080
0.615000000000000435,1.080650620169249398
0.616000000000000436,1.068339872896299170
0.617000000000000437,1.056192375284712659
0.618000000000000438,1.044206941374468345
0.619000000000000439,1.032382372400061810
