# TiO2-ana-101_CS-693-AC
# h[nm],U(h)[kJ/mol]
0.200000000000000011,33.587269924568467161
0.201000000000000012,32.878692051522143913
0.202000000000000013,32.335709071531539394
0.203000000000000014,31.855144222876674576
0.204000000000000015,31.382026207661152029
0.205000000000000016,30.891339372578329403
0.206000000000000016,30.375703768965557572
0.207000000000000017,29.837267663959021746
0.208000000000000018,29.282550722197175475
0.209000000000000019,28.719318682666880704
0.210000000000000020,28.154826561883407265
0.211000000000000021,27.594957826210411156
0.212000000000000022,27.043927485970765900
0.213000000000000023,26.504319898318811966
0.214000000000000024,25.977306601500533390
0.215000000000000024,25.462942907448340435
0.216000000000000025,24.960479710464927194
0.217000000000000026,24.468653165570309227
0.218000000000000027,23.985932674075055360
0.219000000000000028,23.510719330252676684
0.220000000000000029,23.041494380126856356
0.221000000000000030,22.576921616225497758
0.222000000000000031,22.115909931525099097
0.223000000000000032,21.657643172969777368
0.224000000000000032,21.201584466384243655
0.225000000000000033,20.747461681604470130
0.226000000000000034,20.295239913115324271
0.227000000000000035,19.845085932560650122
0.228000000000000036,19.397328633217107097
0.229000000000000037,18.952418600061626819
0.230000000000000038,18.510889140801666031
0.231000000000000039,18.073320421730333152
0.232000000000000040,17.640307772795726038
0.233000000000000040,17.212434755579440804
0.234000000000000041,16.790251217567298880
0.235000000000000042,16.374256275003013172
0.236000000000000043,15.964885962441417888
0.237000000000000044,15.562505147506408676
0.238000000000000045,15.167403222576899324
0.239000000000000046,14.779793040472725352
0.240000000000000047,14.399812549215175395
0.241000000000000048,14.027528593423365777
0.242000000000000048,13.662942379977533136
0.243000000000000049,13.305996147533738494
0.244000000000000050,12.956580628704392311
0.245000000000000051,12.614542946574246685
0.246000000000000052,12.279694640895963076
0.247000000000000053,11.951819571698447220
0.248000000000000054,11.630681497636897959
0.249000000000000055,11.316031172192749565
0.250000000000000056,11.007612842161853095
0.251000000000000056,10.705170069425872015
0.252000000000000057,10.408450828700120283
0.253000000000000058,10.117211860883440266
0.254000000000000059,9.831222284023677815
0.255000000000000060,9.550266482067817364
0.256000000000000061,9.274146305855611061
0.257000000000000062,9.002682631637759059
0.258000000000000063,8.735716330164095211
0.259000000000000064,8.473108704497718691
0.260000000000000064,8.214741457558364601
0.261000000000000065,7.960516251349043060
0.262000000000000066,7.710353919212534990
0.263000000000000067,7.464193390607908540
0.264000000000000068,7.221990385066457740
0.265000000000000069,6.983715928425047181
0.266000000000000070,6.749354740355236970
0.267000000000000071,6.518903537789289437
0.268000000000000071,6.292369294244463340
0.269000000000000072,6.069767490391486220
0.270000000000000073,5.851120386607163937
0.271000000000000074,5.636455343777990734
0.272000000000000075,5.425803214346037073
0.273000000000000076,5.219196821559779487
0.274000000000000077,5.016669541144945121
0.275000000000000078,4.818253996167031872
0.276000000000000079,4.623980872730870217
0.277000000000000079,4.433877861356838146
0.278000000000000080,4.247968726387322036
0.279000000000000081,4.066272503600777632
0.280000000000000082,3.888802824333981167
0.281000000000000083,3.715567362818967379
0.282000000000000084,3.546567402112904777
0.283000000000000085,3.381797512917022352
0.284000000000000086,3.221245338724242124
0.285000000000000087,3.064891480084654507
0.286000000000000087,2.912709470311606097
0.287000000000000088,2.764665834649810527
0.288000000000000089,2.620720224770465734
0.289000000000000090,2.480825620428270817
0.290000000000000091,2.344928590194373719
0.291000000000000092,2.212969603350202874
0.292000000000000093,2.084883385275816625
0.293000000000000094,1.960599308977755584
0.294000000000000095,1.840041815763483912
0.295000000000000095,1.723130858470021565
0.296000000000000096,1.609782361083964330
0.297000000000000097,1.499908689038569332
0.298000000000000098,1.393419124933799269
0.299000000000000099,1.290220344889402737
0.300000000000000100,1.190216891203922600
0.301000000000000101,1.093311637448008300
0.302000000000000102,0.999406242565279102
0.303000000000000103,0.908401590983332397
0.304000000000000103,0.820198216150017423
0.305000000000000104,0.734696705302021580
0.306000000000000105,0.651798083643468473
0.307000000000000106,0.571404176459993307
0.308000000000000107,0.493417948017720431
0.309000000000000108,0.417743816396676071
0.310000000000000109,0.344287943683787900
0.311000000000000110,0.272958501202753612
0.312000000000000111,0.203665909685897401
0.313000000000000111,0.136323054498749097
0.314000000000000112,0.070845476210918384
0.315000000000000113,0.007151536968652695
0.316000000000000114,-0.054837436734139898
0.317000000000000115,-0.115197034167425771
0.318000000000000116,-0.173999662536146849
0.319000000000000117,-0.231314470300801045
0.320000000000000118,-0.287207290666148141
0.321000000000000119,-0.341740604200101994
0.322000000000000119,-0.394973519501645831
0.323000000000000120,-0.446961770805731351
0.324000000000000121,-0.497757731393622671
0.325000000000000122,-0.547410441667549597
0.326000000000000123,-0.595965650748175646
0.327000000000000124,-0.643465870461122025
0.328000000000000125,-0.689950440593782854
0.329000000000000126,-0.735455604324730783
0.330000000000000127,-0.780014592754834646
0.331000000000000127,-0.823657717500475228
0.332000000000000128,-0.866412470344575469
0.333000000000000129,-0.908303628979813871
0.334000000000000130,-0.949353367919517965
0.335000000000000131,-0.989581373695302746
0.336000000000000132,-1.029004963505191661
0.337000000000000133,-1.067639206522194240
0.338000000000000134,-1.105497047119974985
0.339000000000000135,-1.142589429319140093
0.340000000000000135,-1.178925421804821960
0.341000000000000136,-1.214512342912661413
0.342000000000000137,-1.249355885026403934
0.343000000000000138,-1.283460237875351462
0.344000000000000139,-1.316828210264104015
0.345000000000000140,-1.349461349809808031
0.346000000000000141,-1.381360060303639559
0.347000000000000142,-1.412523716353241809
0.348000000000000143,-1.442950775001293762
0.349000000000000143,-1.472638884052095420
0.350000000000000144,-1.501584986873141236
0.351000000000000145,-1.529785423471886840
0.352000000000000146,-1.557236027679491430
0.353000000000000147,-1.583932220302965765
0.354000000000000148,-1.609869098135137788
0.355000000000000149,-1.635041518737978539
0.356000000000000150,-1.659444180939224411
0.357000000000000151,-1.683071701004951404
0.358000000000000151,-1.705918684471712909
0.359000000000000152,-1.727979793641213346
0.360000000000000153,-1.749249810758336965
0.361000000000000154,-1.769723696909429211
0.362000000000000155,-1.789396646692652748
0.363000000000000156,-1.808264138725442338
0.364000000000000157,-1.826321982066078986
0.365000000000000158,-1.843566358637183544
0.366000000000000159,-1.859993861748165944
0.367000000000000159,-1.875601530822161411
0.368000000000000160,-1.890386882439978988
0.369000000000000161,-1.904347937819821368
0.370000000000000162,-1.917483246856622969
0.371000000000000163,-1.929791908849121329
0.372000000000000164,-1.941273590046122210
0.373000000000000165,-1.951928538146006531
0.374000000000000166,-1.961757593885428808
0.375000000000000167,-1.970762199854144914
0.376000000000000167,-1.978944406673657452
0.377000000000000168,-1.986306876677135902
0.378000000000000169,-1.992852885227553994
0.379000000000000170,-1.998586319809943390
0.380000000000000171,-2.003511677032135285
0.381000000000000172,-2.007634057666463967
0.382000000000000173,-2.010959159862681922
0.383000000000000174,-2.013493270659796330
0.384000000000000175,-2.015243255921650878
0.385000000000000175,-2.016216548818042131
0.386000000000000176,-2.016421136969903660
0.387000000000000177,-2.015865548373518834
0.388000000000000178,-2.014558836215278426
0.389000000000000179,-2.012510562684567628
0.390000000000000180,-2.009730781888707796
0.391000000000000181,-2.006230021969845456
0.392000000000000182,-2.002019266519747820
0.393000000000000183,-1.997109935384485890
0.394000000000000183,-1.991513864946911294
0.395000000000000184,-1.985243287970851700
0.396000000000000185,-1.978310813086908926
0.397000000000000186,-1.970729403995765683
0.398000000000000187,-1.962512358460965611
0.399000000000000188,-1.953673287159232830
0.400000000000000189,-1.944226092452534527
0.401000000000000190,-1.934184947142363997
0.402000000000000191,-1.923564273263006497
0.403000000000000191,-1.912378720966911416
0.404000000000000192,-1.900643147551846157
0.405000000000000193,-1.888372596675988335
0.406000000000000194,-1.875582277803867992
0.407000000000000195,-1.862287545922805210
0.408000000000000196,-1.848503881566339047
0.409000000000000197,-1.834246871178193627
0.410000000000000198,-1.819532187847384908
0.411000000000000199,-1.804375572442239672
0.412000000000000199,-1.788792815168491757
0.413000000000000200,-1.772799737573964807
0.414000000000000201,-1.756412175019956834
0.415000000000000202,-1.739645959636997308
0.416000000000000203,-1.722516903780509256
0.417000000000000204,-1.705040783999656639
0.418000000000000205,-1.687233325530710815
0.419000000000000206,-1.669110187324311267
0.420000000000000207,-1.650686947614111499
0.421000000000000207,-1.631979090032715574
0.422000000000000208,-1.613001990278980058
0.423000000000000209,-1.593770903339444045
0.424000000000000210,-1.574300951265032555
0.425000000000000211,-1.554607111502904093
0.426000000000000212,-1.534704205782084330
0.427000000000000213,-1.514606889550251800
0.428000000000000214,-1.494329641958065391
0.429000000000000214,-1.473886756386300290
0.430000000000000215,-1.453292331510189328
0.431000000000000216,-1.432560262894501335
0.432000000000000217,-1.411704235112026584
0.433000000000000218,-1.390737714377493717
0.434000000000000219,-1.369673941688236196
0.435000000000000220,-1.348525926462345925
0.436000000000000221,-1.327306440664485443
0.437000000000000222,-1.306028013409073374
0.438000000000000222,-1.284702926030126147
0.439000000000000223,-1.263343207606645979
0.440000000000000224,-1.241960630932136267
0.441000000000000225,-1.220566708916490217
0.442000000000000226,-1.199172691408376012
0.443000000000000227,-1.177789562425879399
0.444000000000000228,-1.156428037783163942
0.445000000000000229,-1.135098563100681579
0.446000000000000230,-1.113811312186401725
0.447000000000000230,-1.092576185775531616
0.448000000000000231,-1.071402810616084000
0.449000000000000232,-1.050300538887691371
0.450000000000000233,-1.029278447941149865
0.451000000000000234,-1.008345340346112007
0.452000000000000235,-0.987509744234558617
0.453000000000000236,-0.966779913927636181
0.454000000000000237,-0.946163830833731900
0.455000000000000238,-0.925669204605605089
0.456000000000000238,-0.905303474544723152
0.457000000000000239,-0.885073811240970953
0.458000000000000240,-0.864987118436216229
0.459000000000000241,-0.845050035100251007
0.460000000000000242,-0.825268937708023786
0.461000000000000243,-0.805649942707083566
0.462000000000000244,-0.786198909164592785
0.463000000000000245,-0.766921441583265029
0.464000000000000246,-0.747822892876063738
0.465000000000000246,-0.728908367489541797
0.466000000000000247,-0.710182724666060694
0.467000000000000248,-0.691650581835330902
0.468000000000000249,-0.673316318126025770
0.469000000000000250,-0.655184077988389957
0.470000000000000251,-0.637257774919125608
0.471000000000000252,-0.619541095279998011
0.472000000000000253,-0.602037502201979824
0.473000000000000254,-0.584750239566890428
0.474000000000000254,-0.567682336058848214
0.475000000000000255,-0.550836609278058886
0.476000000000000256,-0.534215669909739566
0.477000000000000257,-0.517821925941243211
0.478000000000000258,-0.501657586920675413
0.479000000000000259,-0.485724668250580915
0.480000000000000260,-0.470024995510511912
0.481000000000000261,-0.454560208802508803
0.482000000000000262,-0.439331767113835370
0.483000000000000262,-0.424340952691476037
0.484000000000000263,-0.409588875423169907
0.485000000000000264,-0.395076477220005828
0.486000000000000265,-0.380804536395791871
0.487000000000000266,-0.366773672038650411
0.488000000000000267,-0.352984348370517176
0.489000000000000268,-0.339436879090433019
0.490000000000000269,-0.326131431697687380
0.491000000000000270,-0.313068031791155388
0.492000000000000270,-0.300246567341262538
0.493000000000000271,-0.287666792931312476
0.494000000000000272,-0.275328333965017602
0.495000000000000273,-0.263230690837284897
0.496000000000000274,-0.251373243065521557
0.497000000000000275,-0.239755253378813815
0.498000000000000276,-0.228375871762599575
0.499000000000000277,-0.217234139456536163
0.500000000000000222,-0.206328992903460240
0.501000000000000334,-0.195659267647491170
0.502000000000000224,-0.185223702179469124
0.503000000000000336,-0.175020941728030788
0.504000000000000226,-0.165049541994845783
0.505000000000000338,-0.155307972832545549
0.506000000000000227,-0.145794621864156981
0.507000000000000339,-0.136507798042804551
0.508000000000000229,-0.127445735150729850
0.509000000000000341,-0.118606595236645143
0.510000000000000231,-0.109988471990690700
0.511000000000000343,-0.101589394056205568
0.512000000000000233,-0.093407328277790497
0.513000000000000345,-0.085440182885096472
0.514000000000000234,-0.077685810611993811
0.515000000000000346,-0.070142011750707806
0.516000000000000236,-0.062806537140774818
0.517000000000000348,-0.055677091092588962
0.518000000000000238,-0.048751334245501939
0.519000000000000350,-0.042026886360429151
0.520000000000000240,-0.035501329047050792
0.521000000000000352,-0.029172208425723302
0.522000000000000242,-0.023037037724279608
0.523000000000000353,-0.017093299809980377
0.524000000000000243,-0.011338449656905092
0.525000000000000355,-0.005769916749151394
0.526000000000000245,-0.000385107420244113
0.527000000000000357,0.004818592870804083
0.528000000000000247,0.009843817326254788
0.529000000000000359,0.014693215658731339
0.530000000000000249,0.019369452002009256
0.531000000000000361,0.023875202882934033
0.532000000000000250,0.028213155253788470
0.533000000000000362,0.032386004584453246
0.534000000000000252,0.036396453013641451
0.535000000000000364,0.040247207558467293
0.536000000000000254,0.043940978381594900
0.537000000000000366,0.047480477115195339
0.538000000000000256,0.050868415240872419
0.539000000000000368,0.054107502524784648
0.540000000000000258,0.057200445507068841
0.541000000000000369,0.060149946044760427
0.542000000000000259,0.062958699907299007
0.543000000000000371,0.065629395423768777
0.544000000000000261,0.068164712180962123
0.545000000000000373,0.070567319771372025
0.546000000000000263,0.072839876590205521
0.547000000000000375,0.074985028680505827
0.548000000000000265,0.077005408625444138
0.549000000000000377,0.078903634486884464
0.550000000000000266,0.080682308789272100
0.551000000000000378,0.082344017547922269
0.552000000000000268,0.083891329340788828
0.553000000000000380,0.085326794422769497
0.554000000000000270,0.086652943881624395
0.555000000000000382,0.087872288834592305
0.556000000000000272,0.088987319664758521
0.557000000000000384,0.090000505296289141
0.558000000000000274,0.090914292507573963
0.559000000000000385,0.091731105281415440
0.560000000000000275,0.092453344191321091
0.561000000000000387,0.093083385823022669
0.562000000000000277,0.093623582230339328
0.563000000000000389,0.094076260424475880
0.564000000000000279,0.094443721895912214
0.565000000000000391,0.094728242167995552
0.566000000000000281,0.094932070381403472
0.567000000000000393,0.095057428908603317
0.568000000000000282,0.095106512997494688
0.569000000000000394,0.095081490443397240
0.570000000000000284,0.094984501288579756
0.571000000000000396,0.094817657548504977
0.572000000000000286,0.094583042964014347
0.573000000000000398,0.094282712778673755
0.574000000000000288,0.093918693540496312
0.575000000000000400,0.093492982927279741
0.576000000000000290,0.093007549594843031
0.577000000000000401,0.092464333047384079
0.578000000000000291,0.091865243529271695
0.579000000000000403,0.091212161937544417
0.580000000000000293,0.090506939754425447
0.581000000000000405,0.089751398999158405
0.582000000000000295,0.088947332198511114
0.583000000000000407,0.088096502375263674
0.584000000000000297,0.087200643054062249
0.585000000000000409,0.086261458283967141
0.586000000000000298,0.085280622677119750
0.587000000000000410,0.084259781462868194
0.588000000000000300,0.083200550556804725
0.589000000000000412,0.082104516644091310
0.590000000000000302,0.080973237276535312
0.591000000000000414,0.079808240982816983
0.592000000000000304,0.078611027391371338
0.593000000000000416,0.077383067365349320
0.594000000000000306,0.076125803149155763
0.595000000000000417,0.074840648526048686
0.596000000000000307,0.073528988986318544
0.597000000000000419,0.072192181905530006
0.598000000000000309,0.070831556732377995
0.599000000000000421,0.069448415185702175
0.600000000000000311,0.068044031460177165
0.601000000000000423,0.066619652440271390
0.602000000000000313,0.065176497922034393
0.603000000000000425,0.063715760842296770
0.604000000000000314,0.062238607514875512
0.605000000000000426,0.060746177873396291
0.606000000000000316,0.059239585720347487
0.607000000000000428,0.057719918981989492
0.608000000000000318,0.056188239968760524
0.609000000000000430,0.054645585640824779
0.610000000000000320,0.053092967878425476
0.611000000000000432,0.051531373756699653
0.612000000000000322,0.049961765824653739
0.613000000000000433,0.048385082387959660
0.614000000000000323,0.046802237795293439
0.615000000000000435,0.045214122727901533
0.616000000000000325,0.043621604492136284
0.617000000000000437,0.042025527314653824
0.618000000000000327,0.040426712640031177
0.619000000000000439,0.038825959430537987
0.620000000000000329,0.037224044467809754
0.621000000000000441,0.035621722656180396
0.622000000000000330,0.034019727327452891
0.623000000000000442,0.032418770546860806
0.624000000000000332,0.030819543420036937
0.625000000000000444,0.029222716400733557
0.626000000000000334,0.027628939599142595
0.627000000000000446,0.026038843090578540
0.628000000000000336,0.024453037224363160
0.629000000000000448,0.022872112932716644
0.630000000000000338,0.021296642039495391
0.631000000000000449,0.019727177568585646
0.632000000000000339,0.018164254051826319
0.633000000000000451,0.016608387836270704
0.634000000000000341,0.015060077390673155
0.635000000000000453,0.013519803611019048
0.636000000000000343,0.011988030125016740
0.637000000000000455,0.010465203595355587
0.638000000000000345,0.008951754021666652
0.639000000000000457,0.007448095041023400
0.640000000000000346,0.005954624226895472
0.641000000000000458,0.004471723386426968
0.642000000000000348,0.002999758855956230
0.643000000000000460,0.001539081794657954
0.644000000000000350,0.000090028476234422
0.645000000000000462,-0.001347079421455777
0.646000000000000352,-0.002771934528889119
0.647000000000000464,-0.004184243499597046
0.648000000000000353,-0.005583726727165070
0.649000000000000465,-0.006970118064602735
0.650000000000000355,-0.008343164546134599
0.651000000000000467,-0.009702626111489776
0.652000000000000357,-0.011048275332742144
0.653000000000000469,-0.012379897143758312
0.654000000000000359,-0.013697288572308352
0.655000000000000471,-0.015000258474884329
0.656000000000000361,-0.016288627274273448
0.657000000000000473,-0.017562226699933230
0.658000000000000362,-0.018820899531199288
0.659000000000000474,-0.020064499343364826
0.660000000000000364,-0.021292890256669996
0.661000000000000476,-0.022505946688225871
0.662000000000000366,-0.023703553106897257
0.663000000000000478,-0.024885603791181821
0.664000000000000368,-0.026052002590087296
0.665000000000000480,-0.027202662687054246
0.666000000000000369,-0.028337506366908606
0.667000000000000481,-0.029456464785890070
