# TiO2-ana-101_CS-730-AC
# h[nm],U(h)[kJ/mol]
0.149999999999999994,85.693159679777977544
0.150999999999999995,84.343998719464821079
0.151999999999999996,83.328960056653869515
0.152999999999999997,82.385664859471972932
0.153999999999999998,81.416530068940573983
0.154999999999999999,80.402427644510183313
0.156000000000000000,79.355750358660927191
0.157000000000000001,78.296732506099743887
0.158000000000000002,77.242956530647560953
0.159000000000000002,76.205916771364243800
0.160000000000000003,75.191025003285886896
0.161000000000000004,74.199015606800713840
0.162000000000000005,73.227669236409695941
0.163000000000000006,72.273342360276515706
0.164000000000000007,71.332111476965195607
0.165000000000000008,70.400510421033516195
0.166000000000000009,69.475918401613327546
0.167000000000000010,68.556684232205753915
0.168000000000000010,67.642072736215183681
0.169000000000000011,66.732107048005744332
0.170000000000000012,65.827363814016422339
0.171000000000000013,64.928761623057965835
0.172000000000000014,64.037368509528874938
0.173000000000000015,63.154242861501629136
0.174000000000000016,62.280313559758667452
0.175000000000000017,61.416299333927646842
0.176000000000000018,60.562663660798179421
0.177000000000000018,59.719599540377203084
0.178000000000000019,58.887037705190550696
0.179000000000000020,58.064671859265651221
0.180000000000000021,57.251995097077006847
0.181000000000000022,56.448342487164495651
0.182000000000000023,55.652935753383722783
0.183000000000000024,54.864926935663561380
0.184000000000000025,54.083438790422562192
0.185000000000000026,53.307600458459603487
0.186000000000000026,52.536577567690699198
0.187000000000000027,51.769596447402399519
0.188000000000000028,51.005962517409088264
0.189000000000000029,50.245073193011521084
0.190000000000000030,49.486425831049892565
0.191000000000000031,48.729621350397785307
0.192000000000000032,47.974364208056087477
0.193000000000000033,47.220459414210033344
0.194000000000000034,46.467807238953426463
0.195000000000000034,45.716396210568120750
0.196000000000000035,44.966294938975558182
0.197000000000000036,44.217643225091798342
0.198000000000000037,43.470642842502542180
0.199000000000000038,42.725548305891365430
0.200000000000000039,41.982657873585921493
0.201000000000000040,41.242304971048064033
0.202000000000000041,40.504850168995616855
0.203000000000000042,39.770673804399486073
0.204000000000000042,39.040169294721764004
0.205000000000000043,38.313737165032719645
0.206000000000000044,37.591779783455884001
0.207000000000000045,36.874696782024251718
0.208000000000000046,36.162881126722012937
0.209000000000000047,35.456715791466955068
0.210000000000000048,34.756570985325666356
0.211000000000000049,34.062801879663886950
0.212000000000000050,33.375746781599701762
0.213000000000000050,32.695725701509488204
0.214000000000000051,32.023039264962129380
0.215000000000000052,31.357967922934658844
0.216000000000000053,30.700771418164663373
0.217000000000000054,30.051688469757870337
0.218000000000000055,29.410936642488081816
0.219000000000000056,28.778712371443475604
0.220000000000000057,28.155191116671733909
0.221000000000000058,27.540527626182864651
0.222000000000000058,26.934856289026175347
0.223000000000000059,26.338291563148963803
0.224000000000000060,25.750928465356345498
0.225000000000000061,25.172843112935847643
0.226000000000000062,24.604093308402909202
0.227000000000000063,24.044719160390922497
0.228000000000000064,23.494743734982922234
0.229000000000000065,22.954173732791627316
0.230000000000000066,22.423000187878582068
0.231000000000000066,21.901199185190019847
0.232000000000000067,21.388732593613489996
0.233000000000000068,20.885548812051204948
0.234000000000000069,20.391583526093917555
0.235000000000000070,19.906760472985467914
0.236000000000000071,19.430992212615784354
0.237000000000000072,18.964180902286578601
0.238000000000000073,18.506219072976044515
0.239000000000000073,18.056990404799641681
0.240000000000000074,17.616370499331882371
0.241000000000000075,17.184227646430827008
0.242000000000000076,16.760423583195610320
0.243000000000000077,16.344814242693480821
0.244000000000000078,15.937250490119804880
0.245000000000000079,15.537578844102336362
0.246000000000000080,15.145642180931995213
0.247000000000000081,14.761280419593536095
0.248000000000000081,14.384331185582041712
0.249000000000000082,14.014630451621865603
0.250000000000000111,13.652013153551157743
0.251000000000000112,13.296313779796438581
0.252000000000000113,12.947366933033046976
0.253000000000000114,12.605007862808900398
0.254000000000000115,12.269072968094873133
0.255000000000000115,11.939400268915790093
0.256000000000000116,11.615829846406983350
0.257000000000000117,11.298204250831119566
0.258000000000000118,10.986368877277053357
0.259000000000000119,10.680172308943594928
0.260000000000000120,10.379466628085667779
0.261000000000000121,10.084107694867221028
0.262000000000000122,9.793955394521850266
0.263000000000000123,9.508873853369351536
0.264000000000000123,9.228731624371651066
0.265000000000000124,8.953401843035965868
0.266000000000000125,8.682762354584838249
0.267000000000000126,8.416695813412754745
0.268000000000000127,8.155089755936268503
0.269000000000000128,7.897836648020378547
0.270000000000000129,7.644833908227253616
0.271000000000000130,7.395983908184983413
0.272000000000000131,7.151193951415111272
0.273000000000000131,6.910376231987278572
0.274000000000000132,6.673447774389241083
0.275000000000000133,6.440330356010504076
0.276000000000000134,6.210950413639027445
0.277000000000000135,5.985238935363570434
0.278000000000000136,5.763131339259142116
0.279000000000000137,5.544567340211483675
0.280000000000000138,5.329490806208779574
0.281000000000000139,5.117849605394829027
0.282000000000000139,4.909595445139776970
0.283000000000000140,4.704683704341511508
0.284000000000000141,4.503073260124503818
0.285000000000000142,4.304726310053196947
0.286000000000000143,4.109608190925017723
0.287000000000000144,3.917687195154091029
0.288000000000000145,3.728934385700816367
0.289000000000000146,3.543323410446371557
0.290000000000000147,3.360830316853363975
0.291000000000000147,3.181433367696897996
0.292000000000000148,3.005112858592570824
0.293000000000000149,2.831850937991467809
0.294000000000000150,2.661631430255807285
0.295000000000000151,2.494439662374016820
0.296000000000000152,2.330262294820143687
0.297000000000000153,2.169087157010232580
0.298000000000000154,2.010903087757489160
0.299000000000000155,1.855699781079241273
0.300000000000000155,1.703467637661608025
0.301000000000000156,1.554197622242937671
0.302000000000000157,1.407881127133855381
0.303000000000000158,1.264509842051386279
0.304000000000000159,1.124075630405682258
0.305000000000000160,0.986570412141744235
0.306000000000000161,0.851986053204263349
0.307000000000000162,0.720314261661733179
0.308000000000000163,0.591546490496354216
0.309000000000000163,0.465673847038574618
0.310000000000000164,0.342687008999639386
0.311000000000000165,0.222576147032253757
0.312000000000000166,0.105330853727968382
0.313000000000000167,-0.009059921059370524
0.314000000000000168,-0.120607928692307007
0.315000000000000169,-0.229325674174425675
0.316000000000000170,-0.335226462678801074
0.317000000000000171,-0.438324440350124522
0.318000000000000171,-0.538634629561160705
0.319000000000000172,-0.636172958813308376
0.320000000000000173,-0.730956287478584321
0.321000000000000174,-0.823002425586763509
0.322000000000000175,-0.912330148866437818
0.323000000000000176,-0.998959209252573421
0.324000000000000177,-1.082910341075905558
0.325000000000000178,-1.164205263151079084
0.326000000000000179,-1.242866676981416063
0.327000000000000179,-1.318918261297711059
0.328000000000000180,-1.392384663147661961
0.329000000000000181,-1.463291485750833232
0.330000000000000182,-1.531665273331379584
0.331000000000000183,-1.597533493138080241
0.332000000000000184,-1.660924514857287093
0.333000000000000185,-1.721867587620498297
0.334000000000000186,-1.780392814803668289
0.335000000000000187,-1.836531126810388326
0.336000000000000187,-1.890314252025939057
0.337000000000000188,-1.941774686123355576
0.338000000000000189,-1.990945659897205733
0.339000000000000190,-2.037861105794488203
0.340000000000000191,-2.082555623305910597
0.341000000000000192,-2.125064443374576673
0.342000000000000193,-2.165423391972602474
0.343000000000000194,-2.203668852989794313
0.344000000000000195,-2.239837730571770713
0.345000000000000195,-2.273967411038781528
0.346000000000000196,-2.306095724509492850
0.347000000000000197,-2.336260906347913391
0.348000000000000198,-2.364501558544986892
0.349000000000000199,-2.390856611140114829
0.350000000000000200,-2.415365283781655048
0.351000000000000201,-2.438067047519213659
0.352000000000000202,-2.459001586914575821
0.353000000000000203,-2.478208762552257749
0.354000000000000203,-2.495728574024902446
0.355000000000000204,-2.511601123463057306
0.356000000000000205,-2.525866579673589296
0.357000000000000206,-2.538565142945701680
0.358000000000000207,-2.549737010578232876
0.359000000000000208,-2.559422343177268466
0.360000000000000209,-2.567661231768221697
0.361000000000000210,-2.574493665761907746
0.362000000000000210,-2.579959501809931499
0.363000000000000211,-2.584098433580346299
0.364000000000000212,-2.586949962480689535
0.365000000000000213,-2.588553369351497047
0.366000000000000214,-2.588947687149902865
0.367000000000000215,-2.588171674639367925
0.368000000000000216,-2.586263791098349252
0.369000000000000217,-2.583262172057525063
0.370000000000000218,-2.579204606072372119
0.371000000000000218,-2.574128512534921143
0.372000000000000219,-2.568070920526120737
0.373000000000000220,-2.561068448707619183
0.374000000000000221,-2.553157286249580160
0.375000000000000222,-2.544373174788838732
0.376000000000000223,-2.534751391410009713
0.377000000000000224,-2.524326732639943227
0.378000000000000225,-2.513133499444474062
0.379000000000000226,-2.501205483214649306
0.380000000000000226,-2.488575952728355301
0.381000000000000227,-2.475277642071651130
0.382000000000000228,-2.461342739503217469
0.383000000000000229,-2.446802877243977381
0.384000000000000230,-2.431689122173047224
0.385000000000000231,-2.416031967410369408
0.386000000000000232,-2.399861324765393267
0.387000000000000233,-2.383206518030701382
0.388000000000000234,-2.366096277098648670
0.389000000000000234,-2.348558732878784916
0.390000000000000235,-2.330621412993200359
0.391000000000000236,-2.312311238226712362
0.392000000000000237,-2.293654519708426154
0.393000000000000238,-2.274676956801068517
0.394000000000000239,-2.255403635674233076
0.395000000000000240,-2.235859028537702464
0.396000000000000241,-2.216066993510890093
0.397000000000000242,-2.196050775104436692
0.398000000000000242,-2.175833005290210842
0.399000000000000243,-2.155435705135852142
0.400000000000000244,-2.134880286980330943
0.401000000000000245,-2.114187557127160666
0.402000000000000246,-2.093377719031986217
0.403000000000000247,-2.072470376961755179
0.404000000000000248,-2.051484540102806786
0.405000000000000249,-2.030438627095612514
0.406000000000000250,-2.009350470974208935
0.407000000000000250,-1.988237324488796975
0.408000000000000251,-1.967115865790298956
0.409000000000000252,-1.946002204456137807
0.410000000000000253,-1.924911887836907365
0.411000000000000254,-1.903859907704035681
0.412000000000000255,-1.882860707179008442
0.413000000000000256,-1.861928187925232958
0.414000000000000257,-1.841075717583964932
0.415000000000000258,-1.820316137436418291
0.416000000000000258,-1.799661770274417094
0.417000000000000259,-1.779124428462690588
0.418000000000000260,-1.758715422176193588
0.419000000000000261,-1.738445567796514712
0.420000000000000262,-1.718325196451797154
0.421000000000000263,-1.698364162685209067
0.422000000000000264,-1.678571853237413425
0.423000000000000265,-1.658957195929010364
0.424000000000000266,-1.639528668629537167
0.425000000000000266,-1.620294308299837338
0.426000000000000267,-1.601261720095420005
0.427000000000000268,-1.582438086518651588
0.428000000000000269,-1.563830176608234090
0.429000000000000270,-1.545444355154914629
0.430000000000000271,-1.527286591932673243
0.431000000000000272,-1.509362470935330602
0.432000000000000273,-1.491677199608748783
0.433000000000000274,-1.474235618069374754
0.434000000000000274,-1.457042208300256103
0.435000000000000275,-1.440101103316085318
0.436000000000000276,-1.423416096289273458
0.437000000000000277,-1.406990649629400014
0.438000000000000278,-1.390827904008854476
0.439000000000000279,-1.374930687327834633
0.440000000000000280,-1.359301523612218343
0.441000000000000281,-1.343942641838249630
0.442000000000000282,-1.328855984678322333
0.443000000000000282,-1.314043217162421673
0.444000000000000283,-1.299505735250268801
0.445000000000000284,-1.285244674309379942
0.446000000000000285,-1.271260917494653864
0.447000000000000286,-1.257555104025475101
0.448000000000000287,-1.244127637356422067
0.449000000000000288,-1.230978693238202082
0.450000000000000289,-1.218108227665500198
0.451000000000000290,-1.205515984708839472
0.452000000000000290,-1.193201504227768384
0.453000000000000291,-1.181164129462889401
0.454000000000000292,-1.169403014504592164
0.455000000000000293,-1.157917131636471586
0.456000000000000294,-1.146705278551725327
0.457000000000000295,-1.135766085441000772
0.458000000000000296,-1.125098021950344584
0.459000000000000297,-1.114699404008171468
0.460000000000000298,-1.104568400520282268
0.461000000000000298,-1.094703039932217070
0.462000000000000299,-1.085101216658334478
0.463000000000000300,-1.075760697377210695
0.464000000000000301,-1.066679127193125520
0.465000000000000302,-1.057854035663514658
0.466000000000000303,-1.049282842692407236
0.467000000000000304,-1.040962864290080114
0.468000000000000305,-1.032891318199177677
0.469000000000000306,-1.025065329387749635
0.470000000000000306,-1.017481935409780824
0.471000000000000307,-1.010138091633792090
0.472000000000000308,-1.003030676340355809
0.473000000000000309,-0.996156495689326960
0.474000000000000310,-0.989512288557759079
0.475000000000000311,-0.983094731249530396
0.476000000000000312,-0.976900442077828779
0.477000000000000313,-0.970925985821634585
0.478000000000000314,-0.965167878057508810
0.479000000000000314,-0.959622589368016365
0.480000000000000315,-0.954286549428131736
0.481000000000000316,-0.949156150971151469
0.482000000000000317,-0.944227753635527911
0.483000000000000318,-0.939497687694249906
0.484000000000000319,-0.934962257668316754
0.485000000000000320,-0.930617745825962350
0.486000000000000321,-0.926460415569298590
0.487000000000000322,-0.922486514710084471
0.488000000000000322,-0.918692278636322746
0.489000000000000323,-0.915073933371521320
0.490000000000000324,-0.911627698528320152
0.491000000000000325,-0.908349790158346826
0.492000000000000326,-0.905236423500085152
0.493000000000000327,-0.902283815626628738
0.494000000000000328,-0.899488187995137745
0.495000000000000329,-0.896845768899882656
0.496000000000000330,-0.894352795830709146
0.497000000000000330,-0.892005517738855280
0.498000000000000331,-0.889800197211891075
0.499000000000000332,-0.887733112559777604
0.500000000000000333,-0.885800559813837429
0.501000000000000334,-0.883998854640500098
0.502000000000000335,-0.882324334171757707
0.503000000000000336,-0.880773358754110780
0.504000000000000337,-0.879342313617906823
0.505000000000000338,-0.878027610468882336
0.506000000000000338,-0.876825689003758235
0.507000000000000339,-0.875733018351688486
0.508000000000000340,-0.874746098443361930
0.509000000000000341,-0.873861461309592302
0.510000000000000342,-0.873075672311087736
0.511000000000000343,-0.872385331301242184
0.512000000000000344,-0.871787073723618966
0.513000000000000345,-0.871277571645878934
0.514000000000000346,-0.870853534731874879
0.515000000000000346,-0.870511711153529988
0.516000000000000347,-0.870248888444214663
0.517000000000000348,-0.870061894295255378
0.518000000000000349,-0.869947597297155872
0.519000000000000350,-0.869902907627160493
0.520000000000000351,-0.869924777684712658
0.521000000000000352,-0.870010202676373856
0.522000000000000353,-0.870156221151698106
0.523000000000000353,-0.870359915491583314
0.524000000000000354,-0.870618412350578352
0.525000000000000355,-0.870928883054584491
0.526000000000000356,-0.871288543955363481
0.527000000000000357,-0.871694656743307150
0.528000000000000358,-0.872144528719765333
0.529000000000000359,-0.872635513030372012
0.530000000000000360,-0.873165008860603109
0.531000000000000361,-0.873730461594946384
0.532000000000000361,-0.874329362940906352
0.533000000000000362,-0.874959251019122419
0.534000000000000363,-0.875617710420798945
0.535000000000000364,-0.876302372233676130
0.536000000000000365,-0.877010914037688716
0.537000000000000366,-0.877741059871482543
0.538000000000000367,-0.878490580170878999
0.539000000000000368,-0.879257291680451858
0.540000000000000369,-0.880039057339200070
0.541000000000000369,-0.880833786141460573
0.542000000000000370,-0.881639432974005266
0.543000000000000371,-0.882453998430378639
0.544000000000000372,-0.883275528603432170
0.545000000000000373,-0.884102114857014287
0.546000000000000374,-0.884931893577734163
0.547000000000000375,-0.885763045907727808
0.548000000000000376,-0.886593797459301669
0.549000000000000377,-0.887422418012305592
0.550000000000000377,-0.888247221195097802
0.551000000000000378,-0.889066564149889715
0.552000000000000379,-0.889878847183301458
0.553000000000000380,-0.890682513402876075
0.554000000000000381,-0.891476048340302918
0.555000000000000382,-0.892257979562130821
0.556000000000000383,-0.893026876268598890
0.557000000000000384,-0.893781348881375060
0.558000000000000385,-0.894520048620780273
0.559000000000000385,-0.895241667073236380
0.560000000000000386,-0.895944935749502847
0.561000000000000387,-0.896628625634361520
0.562000000000000388,-0.897291546728315126
0.563000000000000389,-0.897932547581917873
0.564000000000000390,-0.898550514823243995
0.565000000000000391,-0.899144372679083537
0.566000000000000392,-0.899713082490365301
0.567000000000000393,-0.900255642222337116
0.568000000000000393,-0.900771085969958918
0.569000000000000394,-0.901258483459029813
0.570000000000000395,-0.901716939543477425
0.571000000000000396,-0.902145593699254178
0.572000000000000397,-0.902543619515308371
0.573000000000000398,-0.902910224181982857
0.574000000000000399,-0.903244647977296089
0.575000000000000400,-0.903546163751461018
0.576000000000000401,-0.903814076410012213
0.577000000000000401,-0.904047722395936226
0.578000000000000402,-0.904246469171098965
0.579000000000000403,-0.904409714697320233
0.580000000000000404,-0.904536886917453486
0.581000000000000405,-0.904627443236703188
0.582000000000000406,-0.904680870004550441
0.583000000000000407,-0.904696681997507413
0.584000000000000408,-0.904674421903017723
0.585000000000000409,-0.904613659804734738
0.586000000000000409,-0.904513992669436773
0.587000000000000410,-0.904375043835830672
0.588000000000000411,-0.904196462505431953
0.589000000000000412,-0.903977923235801839
0.590000000000000413,-0.903719125436283632
0.591000000000000414,-0.903419792866480220
0.592000000000000415,-0.903079673137658245
0.593000000000000416,-0.902698537217232699
0.594000000000000417,-0.902276178936524564
0.595000000000000417,-0.901812414501979243
0.596000000000000418,-0.901307082009918048
0.597000000000000419,-0.900760040965082887
0.598000000000000420,-0.900171171803003767
0.599000000000000421,-0.899540375416403526
0.600000000000000422,-0.898867572685711047
0.601000000000000423,-0.898152704013818637
0.602000000000000424,-0.897395728865202580
0.603000000000000425,-0.896596625309492135
0.604000000000000425,-0.895755389569586669
0.605000000000000426,-0.894872035574411639
0.606000000000000427,-0.893946594516429771
0.607000000000000428,-0.892979114413882114
0.608000000000000429,-0.891969659678012006
0.609000000000000430,-0.890918310685107073
0.610000000000000431,-0.889825163353649473
0.611000000000000432,-0.888690328726457146
0.612000000000000433,-0.887513932557946972
0.613000000000000433,-0.886296114906573784
0.614000000000000434,-0.885037029732440361
