# TiO2-ana-101_CS-7021-AC
# h[nm],U(h)[kJ/mol]
0.200000000000000011,82.210479706702287217
0.201000000000000012,81.376795970839893357
0.202000000000000013,80.294616948586366334
0.203000000000000014,79.095699899704257518
0.204000000000000015,77.856391882482967048
0.205000000000000016,76.617505908653654956
0.206000000000000016,75.397921154837121094
0.207000000000000017,74.203698871391438274
0.208000000000000018,73.034033063534110397
0.209000000000000019,71.884999634669753732
0.210000000000000020,70.751801778742375859
0.211000000000000021,69.630011599216899754
0.212000000000000022,68.516161741792842577
0.213000000000000023,67.407933598739276704
0.214000000000000024,66.304110678819441205
0.215000000000000024,65.204409634732712675
0.216000000000000025,64.109261567287248340
0.217000000000000026,63.019588314138914598
0.218000000000000027,61.936599261515745241
0.219000000000000028,60.861621373972653259
0.220000000000000029,59.795966817496605472
0.221000000000000030,58.740837419589084334
0.222000000000000031,57.697262284304905222
0.223000000000000032,56.666063445282318867
0.224000000000000032,55.647843980198345548
0.225000000000000033,54.642993159510993451
0.226000000000000034,53.651703704788985760
0.227000000000000035,52.673996912302371243
0.228000000000000036,51.709752139560599460
0.229000000000000037,50.758737882051285339
0.230000000000000038,49.820642340290177685
0.231000000000000039,48.895101969865478964
0.232000000000000040,47.981727009866624201
0.233000000000000040,47.080123397472206648
0.234000000000000041,46.189910803741575762
0.235000000000000042,45.310736776224629807
0.236000000000000043,44.442287157815698606
0.237000000000000044,43.584293078674861022
0.238000000000000045,42.736534899033195245
0.239000000000000046,41.898843524544034267
0.240000000000000047,41.071099530789254572
0.241000000000000048,40.253230526762294517
0.242000000000000048,39.445207164687488444
0.243000000000000049,38.647038170414575120
0.244000000000000050,37.858764728916284525
0.245000000000000051,37.080454516320159541
0.246000000000000052,36.312195625907492058
0.247000000000000053,35.554090592452737951
0.248000000000000054,34.806250678486485128
0.249000000000000055,34.068790548436439281
0.250000000000000056,33.341823422688584344
0.251000000000000056,32.625456773693152002
0.252000000000000057,31.919788600392003275
0.253000000000000058,31.224904295382778230
0.254000000000000059,30.540874101164696697
0.255000000000000060,29.867751137264711758
0.256000000000000061,29.205569968698888772
0.257000000000000062,28.554345677743487641
0.258000000000000063,27.914073395020437829
0.259000000000000064,27.284728242098299944
0.260000000000000064,26.666265635841160275
0.261000000000000065,26.058621904295915073
0.262000000000000066,25.461715164704589398
0.263000000000000067,24.875446416011200768
0.264000000000000068,24.299700800767716657
0.265000000000000069,23.734348994434263602
0.266000000000000070,23.179248683539910303
0.267000000000000071,22.634246097874921588
0.268000000000000071,22.099177565700053094
0.269000000000000072,21.573871064781524609
0.270000000000000073,21.058147745809598916
0.271000000000000074,20.551823408370420765
0.272000000000000075,20.054709913065032367
0.273000000000000076,19.566616516571421869
0.274000000000000077,19.087351119400278066
0.275000000000000078,18.616721418787619768
0.276000000000000079,18.154535961592927151
0.277000000000000079,17.700605094226126823
0.278000000000000080,17.254741808520591917
0.279000000000000081,16.816762484106494213
0.280000000000000082,16.386487529236173799
0.281000000000000083,15.963741923181705928
0.282000000000000084,15.548355664284105870
0.283000000000000085,15.140164128497797691
0.284000000000000086,14.739008343862625594
0.285000000000000087,14.344735186766342849
0.286000000000000087,13.957197506149569222
0.287000000000000088,13.576254181970174528
0.288000000000000089,13.201770124301614118
0.289000000000000090,12.833616219403143788
0.290000000000000091,12.471669228986275613
0.291000000000000092,12.115811648720598015
0.292000000000000093,11.765931531789114217
0.293000000000000094,11.421922283026432865
0.294000000000000095,11.083682428864253922
0.295000000000000095,10.751115367974740877
0.296000000000000096,10.424129107153374818
0.297000000000000097,10.102635986623266007
0.298000000000000098,9.786552398580592893
0.299000000000000099,9.475798502439081616
0.300000000000000100,9.170297939876302706
0.301000000000000101,8.869977552437546819
0.302000000000000102,8.574767104119690231
0.303000000000000103,8.284599011036492655
0.304000000000000103,7.999408079964434037
0.305000000000000104,7.719131257281391711
0.306000000000000105,7.443707389543355646
0.307000000000000106,7.173076996696113206
0.308000000000000107,6.907182058689391724
0.309000000000000108,6.645965816051758068
0.310000000000000109,6.389372584793190590
0.311000000000000110,6.137347585831200547
0.312000000000000111,5.889836788981324567
0.313000000000000111,5.646786771417291462
0.314000000000000112,5.408144590385576045
0.315000000000000113,5.173857669855099317
0.316000000000000114,4.943873700693285578
0.317000000000000115,4.718140553884270005
0.318000000000000116,4.496606206242172554
0.319000000000000117,4.279218678021719846
0.320000000000000118,4.065925981788703680
0.321000000000000119,3.856676081882612461
0.322000000000000119,3.651416863783340183
0.323000000000000120,3.450096112681233507
0.324000000000000121,3.252661500544088646
0.325000000000000122,3.059060580976319166
0.326000000000000123,2.869240791172265936
0.327000000000000124,2.683149460277523879
0.328000000000000125,2.500733823488334728
0.329000000000000126,2.321941041239182546
0.330000000000000127,2.146718222851408786
0.331000000000000127,1.975012454041467524
0.332000000000000128,1.806770827714760941
0.333000000000000129,1.641940477500209550
0.334000000000000130,1.480468613511122467
0.335000000000000131,1.322302559848620884
0.336000000000000132,1.167389793396043540
0.337000000000000133,1.015677983483932678
0.338000000000000134,0.867115032036897992
0.339000000000000135,0.721649113845418855
0.340000000000000135,0.579228716635583618
0.341000000000000136,0.439802680640554056
0.342000000000000137,0.303320237406243309
0.343000000000000138,0.169731047592301454
0.344000000000000139,0.038985237556165342
0.345000000000000140,-0.088966565465568609
0.346000000000000141,-0.214173199739815218
0.347000000000000142,-0.336682937121331072
0.348000000000000143,-0.456543452954300655
0.349000000000000143,-0.573801797885746590
0.350000000000000144,-0.688504371665894843
0.351000000000000145,-0.800696898992189765
0.352000000000000146,-0.910424407436985939
0.353000000000000147,-1.017731207483015599
0.354000000000000148,-1.122660874676522980
0.355000000000000149,-1.225256233894742808
0.356000000000000150,-1.325559345712351789
0.357000000000000151,-1.423611494840779423
0.358000000000000151,-1.519453180604476428
0.359000000000000152,-1.613124109409535434
0.360000000000000153,-1.704663189152577640
0.361000000000000154,-1.794108525510698104
0.362000000000000155,-1.881497420047928859
0.363000000000000156,-1.966866370068340641
0.364000000000000157,-2.050251070141852150
0.365000000000000158,-2.131686415225585662
0.366000000000000159,-2.211206505300446601
0.367000000000000159,-2.288844651441064748
0.368000000000000160,-2.364633383235286601
0.369000000000000161,-2.438604457468779074
0.370000000000000162,-2.510788867989820261
0.371000000000000163,-2.581216856669281690
0.372000000000000164,-2.649917925371439775
0.373000000000000165,-2.716920848851947845
0.374000000000000166,-2.782253688500719857
0.375000000000000167,-2.845943806848520552
0.376000000000000167,-2.908017882758385131
0.377000000000000168,-2.968501927224564074
0.378000000000000169,-3.027421299704032176
0.379000000000000170,-3.084800724907997616
0.380000000000000171,-3.140664309983424829
0.381000000000000172,-3.195035562017032760
0.382000000000000173,-3.247937405797251209
0.383000000000000174,-3.299392201772286537
0.384000000000000175,-3.349421764145365188
0.385000000000000175,-3.398047379051143846
0.386000000000000176,-3.445289822760398302
0.387000000000000177,-3.491169379862706368
0.388000000000000178,-3.535705861380256554
0.389000000000000179,-3.578918622768424207
0.390000000000000180,-3.620826581761965368
0.391000000000000181,-3.661448236028442160
0.392000000000000182,-3.700801680593196696
0.393000000000000183,-3.738904625003206750
0.394000000000000183,-3.775774410199568276
0.395000000000000184,-3.811428025071192938
0.396000000000000185,-3.845882122664730840
0.397000000000000186,-3.879153036028165413
0.398000000000000187,-3.911256793668074661
0.399000000000000188,-3.942209134602681075
0.400000000000000189,-3.972025522994967250
0.401000000000000190,-4.000721162352547822
0.402000000000000191,-4.028311009282600885
0.403000000000000191,-4.054809786792341164
0.404000000000000192,-4.080231997127360621
0.405000000000000193,-4.104591934141646803
0.406000000000000194,-4.127903695195071165
0.407000000000000195,-4.150181192575402633
0.408000000000000196,-4.171438164443488361
0.409000000000000197,-4.191688185301634562
0.410000000000000198,-4.210944675986453056
0.411000000000000199,-4.229220913188521891
0.412000000000000199,-4.246530038502664084
0.413000000000000200,-4.262885067013182372
0.414000000000000201,-4.278298895419836434
0.415000000000000202,-4.292784309710823365
0.416000000000000203,-4.306353992390066665
0.417000000000000204,-4.319020529266746067
0.418000000000000205,-4.330796415815679090
0.419000000000000206,-4.341694063117778946
0.420000000000000207,-4.351725803390239733
0.421000000000000207,-4.360903895116825524
0.422000000000000208,-4.369240527788631923
0.423000000000000209,-4.376747826266550234
0.424000000000000210,-4.383437854776532028
0.425000000000000211,-4.389322620549234166
0.426000000000000212,-4.394414077115864181
0.427000000000000213,-4.398724127272001461
0.428000000000000214,-4.402264625721537428
0.429000000000000214,-4.405047381412786400
0.430000000000000215,-4.407084159578945837
0.431000000000000216,-4.408386683495118419
0.432000000000000217,-4.408966635963996517
0.433000000000000218,-4.408835660542335333
0.434000000000000219,-4.408005362520279746
0.435000000000000220,-4.406487309665460650
0.436000000000000221,-4.404293032743646918
0.437000000000000222,-4.401434025827644980
0.438000000000000222,-4.397921746405911492
0.439000000000000223,-4.393767615302246909
0.440000000000000224,-4.388983016417614458
0.441000000000000225,-4.383579296305010864
0.442000000000000226,-4.377567763588102068
0.443000000000000227,-4.370959688233936546
0.444000000000000228,-4.363766300690079092
0.445000000000000229,-4.355998790895954542
0.446000000000000230,-4.347668307178084390
0.447000000000000230,-4.338785955038674480
0.448000000000000231,-4.329362795846577683
0.449000000000000232,-4.319409845439453832
0.450000000000000233,-4.308938072645757345
0.451000000000000234,-4.297958397734666036
0.452000000000000235,-4.286481690802065536
0.453000000000000236,-4.274518770100085518
0.454000000000000237,-4.262080400317753259
0.455000000000000238,-4.249177290819693198
0.456000000000000238,-4.235820093849786971
0.457000000000000239,-4.222019402706257196
0.458000000000000240,-4.207785749894440208
0.459000000000000241,-4.193129605263127502
0.460000000000000242,-4.178061374130288108
0.461000000000000243,-4.162591395403422823
0.462000000000000244,-4.146729939699833167
0.463000000000000245,-4.130487207471489342
0.464000000000000246,-4.113873327139343061
0.465000000000000246,-4.096898353241225088
0.466000000000000247,-4.079572264597579156
0.467000000000000248,-4.061904962498811500
0.468000000000000249,-4.043906268917963232
0.469000000000000250,-4.025585924752022038
0.470000000000000251,-4.006953588095126584
0.471000000000000252,-3.988018832546503578
0.472000000000000253,-3.968791145556066713
0.473000000000000254,-3.949279926809980967
0.474000000000000254,-3.929494486658742236
0.475000000000000255,-3.909444044589752476
0.476000000000000256,-3.889137727746464268
0.477000000000000257,-3.868584569495799208
0.478000000000000258,-3.847793508045472155
0.479000000000000259,-3.826773385112664183
0.480000000000000260,-3.805532944645306337
0.481000000000000261,-3.784080831597079086
0.482000000000000262,-3.762425590757142224
0.483000000000000262,-3.740575665635405667
0.484000000000000263,-3.718539397403999747
0.485000000000000264,-3.696325023895575157
0.486000000000000265,-3.673940678658845549
0.487000000000000266,-3.651394390071637908
0.488000000000000267,-3.628694080511768227
0.489000000000000268,-3.605847565585758474
0.490000000000000269,-3.582862553415419704
0.491000000000000270,-3.559746643982236947
0.492000000000000270,-3.536507328529290284
0.493000000000000271,-3.513151989020543819
0.494000000000000272,-3.489687897657065552
0.495000000000000273,-3.466122216449755822
0.496000000000000274,-3.442461996848140693
0.497000000000000275,-3.418714179424577004
0.498000000000000276,-3.394885593613300223
0.499000000000000277,-3.370982957503600552
0.500000000000000222,-3.347012877686349697
0.501000000000000334,-3.322981849153145983
0.502000000000000224,-3.298896255247177667
0.503000000000000336,-3.274762367664918905
0.504000000000000226,-3.250586346507803537
0.505000000000000338,-3.226374240382772207
0.506000000000000227,-3.202131986550880161
0.507000000000000339,-3.177865411122754669
0.508000000000000229,-3.153580229300009030
0.509000000000000341,-3.129282045661381684
0.510000000000000231,-3.104976354492695378
0.511000000000000343,-3.080668540159301916
0.512000000000000233,-3.056363877520078987
0.513000000000000345,-3.032067532381659714
0.514000000000000234,-3.007784561991953431
0.515000000000000346,-2.983519915571511749
0.516000000000000236,-2.959278434881865927
0.517000000000000348,-2.935064854829413594
0.518000000000000238,-2.910883804103881367
0.519000000000000350,-2.886739805849996010
0.520000000000000240,-2.862637278371330751
0.521000000000000352,-2.838580535865097065
0.522000000000000242,-2.814573789186705532
0.523000000000000353,-2.790621146642931816
0.524000000000000243,-2.766726614812541118
0.525000000000000355,-2.742894099393215601
0.526000000000000245,-2.719127406073666098
0.527000000000000357,-2.695430241429714435
0.528000000000000247,-2.671806213843372912
0.529000000000000359,-2.648258834443639298
0.530000000000000249,-2.624791518068082752
0.531000000000000361,-2.601407584243998095
0.532000000000000250,-2.578110258188186066
0.533000000000000362,-2.554902671824203608
0.534000000000000252,-2.531787864816133826
0.535000000000000364,-2.508768785617803587
0.536000000000000254,-2.485848292536527726
0.537000000000000366,-2.463029154810248755
0.538000000000000256,-2.440314053697330898
0.539000000000000368,-2.417705583577829831
0.540000000000000258,-2.395206253065535140
0.541000000000000369,-2.372818486129661952
0.542000000000000259,-2.350544623225531815
0.543000000000000371,-2.328386922433175688
0.544000000000000261,-2.306347560603152047
0.545000000000000373,-2.284428634508686606
0.546000000000000263,-2.262632162003389347
0.547000000000000375,-2.240960083183622942
0.548000000000000265,-2.219414261555017198
0.549000000000000377,-2.197996485202067252
0.550000000000000266,-2.176708467960385640
0.551000000000000378,-2.155551850590691210
0.552000000000000268,-2.134528201953977078
0.553000000000000380,-2.113639020187130235
0.554000000000000270,-2.092885733878435239
0.555000000000000382,-2.072269703242198169
0.556000000000000272,-2.051792221292106255
0.557000000000000384,-2.031454515012476314
0.558000000000000274,-2.011257746527106427
0.559000000000000385,-1.991203014264922189
0.560000000000000275,-1.971291354122125528
0.561000000000000387,-1.951523740620160208
0.562000000000000277,-1.931901088059120308
0.563000000000000389,-1.912424251666076769
0.564000000000000279,-1.893094028737902779
0.565000000000000391,-1.873911159778127722
0.566000000000000281,-1.854876329627461518
0.567000000000000393,-1.835990168587507965
0.568000000000000282,-1.817253253537405966
0.569000000000000394,-1.798666109042878603
0.570000000000000284,-1.780229208457506873
0.571000000000000396,-1.761942975015750479
0.572000000000000286,-1.743807782917542015
0.573000000000000398,-1.725823958403981617
0.574000000000000288,-1.707991780824033246
0.575000000000000400,-1.690311483691803840
0.576000000000000290,-1.672783255734245245
0.577000000000000401,-1.655407241928965378
0.578000000000000291,-1.638183544531985003
0.579000000000000403,-1.621112224095170973
0.580000000000000293,-1.604193300473201633
0.581000000000000405,-1.587426753819786374
0.582000000000000295,-1.570812525573104690
0.583000000000000407,-1.554350519430133248
0.584000000000000297,-1.538040602309850957
0.585000000000000409,-1.521882605305095115
0.586000000000000298,-1.505876324622991813
0.587000000000000410,-1.490021522513795826
0.588000000000000300,-1.474317928188099813
0.589000000000000412,-1.458765238722212754
0.590000000000000302,-1.443363119951740048
0.591000000000000414,-1.428111207353207401
0.592000000000000304,-1.413009106913696522
0.593000000000000416,-1.398056395988389600
0.594000000000000306,-1.383252624146071863
0.595000000000000417,-1.368597314002417686
0.596000000000000307,-1.354089962041149064
0.597000000000000419,-1.339730039422957653
0.598000000000000309,-1.325516992782240999
0.599000000000000421,-1.311450245011562377
0.600000000000000311,-1.297529196033935239
0.601000000000000423,-1.283753223562830836
0.602000000000000313,-1.270121683850025551
0.603000000000000425,-1.256633912421180277
0.604000000000000314,-1.243289224799352777
0.605000000000000426,-1.230086917216253850
0.606000000000000316,-1.217026267311500209
0.607000000000000428,-1.204106534819732399
0.608000000000000318,-1.191326962245779608
0.609000000000000430,-1.178686775527798325
0.610000000000000320,-1.166185184688577126
0.611000000000000432,-1.153821384474922995
0.612000000000000322,-1.141594554985335908
0.613000000000000433,-1.129503862285929916
0.614000000000000323,-1.117548459014749085
0.615000000000000435,-1.105727484974512898
0.616000000000000325,-1.094040067713899722
0.617000000000000437,-1.082485323097424512
0.618000000000000327,-1.071062355864052185
0.619000000000000439,-1.059770260174554002
0.620000000000000329,-1.048608120147791256
0.621000000000000441,-1.037575010385968888
0.622000000000000330,-1.026669996488966730
0.623000000000000442,-1.015892135557864062
0.624000000000000332,-1.005240476687754292
0.625000000000000444,-0.994714061449950782
0.626000000000000334,-0.984311924363714175
0.627000000000000446,-0.974033093357570601
0.628000000000000336,-0.963876590220383966
0.629000000000000448,-0.953841431042255272
0.630000000000000338,-0.943926626645392952
0.631000000000000449,-0.934131183005042054
0.632000000000000339,-0.924454101660620031
0.633000000000000451,-0.914894380117157291
0.634000000000000341,-0.905451012237171282
0.635000000000000453,-0.896122988623097250
0.636000000000000343,-0.886909296990387452
0.637000000000000455,-0.877808922531402303
0.638000000000000345,-0.868820848270252633
0.639000000000000457,-0.859944055408626951
0.640000000000000346,-0.851177523662859370
0.641000000000000458,-0.842520231592213564
0.642000000000000348,-0.833971156918651979
0.643000000000000460,-0.825529276838090631
0.644000000000000350,-0.817193568323355768
0.645000000000000462,-0.808963008418905893
0.646000000000000352,-0.800836574527493794
0.647000000000000464,-0.792813244688824192
0.648000000000000353,-0.784891997850443279
0.649000000000000465,-0.777071814130832594
0.650000000000000355,-0.769351675074991803
0.651000000000000467,-0.761730563902486280
0.652000000000000357,-0.754207465748216288
0.653000000000000469,-0.746781367895900994
0.654000000000000359,-0.739451260004526545
0.655000000000000471,-0.732216134327753010
0.656000000000000361,-0.725074985926525750
0.657000000000000473,-0.718026812874886455
0.658000000000000362,-0.711070616459224536
0.659000000000000474,-0.704205401370976203
0.660000000000000364,-0.697430175892987725
0.661000000000000476,-0.690743952079564405
0.662000000000000366,-0.684145745930408888
0.663000000000000478,-0.677634577558499873
0.664000000000000368,-0.671209471352056775
