# TiO2-ana-101_CS-5894-AC
# h[nm],U(h)[kJ/mol]
0.149999999999999994,106.193986326069236270
0.150999999999999995,105.247232342753591183
0.151999999999999996,103.960651631388145688
0.152999999999999997,102.589095897489272602
0.153999999999999998,101.235210149613720887
0.154999999999999999,99.926877231770930621
0.156000000000000000,98.659955520190848688
0.157000000000000001,97.420363873755405848
0.158000000000000002,96.194323754993746434
0.159000000000000002,94.972155891271725636
0.160000000000000003,93.748841389076815744
0.161000000000000004,92.523180780007407975
0.162000000000000005,91.296538419849952106
0.163000000000000006,90.071655355482349137
0.164000000000000007,88.851725683090563734
0.165000000000000008,87.639776974829970868
0.166000000000000009,86.438321007289601994
0.167000000000000010,85.249212672206709840
0.168000000000000010,84.073651338893256479
0.169000000000000011,82.912267221109061666
0.170000000000000012,81.765248027662622121
0.171000000000000013,80.632474288869843804
0.172000000000000014,79.513643268872712611
0.173000000000000015,78.408370536527371542
0.174000000000000016,77.316264992717549376
0.175000000000000017,76.236977698215042665
0.176000000000000018,75.170227611823264624
0.177000000000000018,74.115808756741785146
0.178000000000000019,73.073583772211293308
0.179000000000000020,72.043468604395357602
0.180000000000000021,71.025412503380039198
0.181000000000000022,70.019376715223401675
0.182000000000000023,69.025314425667886553
0.183000000000000024,68.043153715686258920
0.184000000000000025,67.072784582743423698
0.185000000000000026,66.114050493073477810
0.186000000000000026,65.166744468035162186
0.187000000000000027,64.230609367744804672
0.188000000000000028,63.305341805949623790
0.189000000000000029,62.390598995625396128
0.190000000000000030,61.486007767608860775
0.191000000000000031,60.591175007448569545
0.192000000000000032,59.705698802606363529
0.193000000000000033,58.829179669108022210
0.194000000000000034,57.961231321874628009
0.195000000000000034,57.101490556655527087
0.196000000000000035,56.249625916251360991
0.197000000000000036,55.405344914016893654
0.198000000000000037,54.568399679589333573
0.199000000000000038,53.738590972932819056
0.200000000000000039,52.915770581790880556
0.201000000000000040,52.099842174060071898
0.202000000000000041,51.290760720676622952
0.203000000000000042,50.488530637065323958
0.204000000000000042,49.693202813082208991
0.205000000000000043,48.904870713934187165
0.206000000000000044,48.123665739110890627
0.207000000000000045,47.349752024272596884
0.208000000000000046,46.583320863603375983
0.209000000000000047,45.824584918586410254
0.210000000000000048,45.073772364595143358
0.211000000000000049,44.331121110107304162
0.212000000000000050,43.596873205584657285
0.213000000000000050,42.871269540841630885
0.214000000000000051,42.154544911638140547
0.215000000000000052,41.446923518747880166
0.216000000000000053,40.748614946235896639
0.217000000000000054,40.059810650394190645
0.218000000000000055,39.380680976912401547
0.219000000000000056,38.711372711514073330
0.220000000000000057,38.052007158512935803
0.221000000000000058,37.402678732544089257
0.222000000000000058,36.763454041054522747
0.223000000000000059,36.134371428934400683
0.224000000000000060,35.515440951835770989
0.225000000000000061,34.906644741154686074
0.226000000000000062,34.307937721225286509
0.227000000000000063,33.719248637868830087
0.228000000000000064,33.140481356930891366
0.229000000000000065,32.571516391702843407
0.230000000000000066,32.012212619043609152
0.231000000000000066,31.462409145478396510
0.232000000000000067,30.921927286452067563
0.233000000000000068,30.390572624157368153
0.234000000000000069,29.868137111856508881
0.235000000000000070,29.354401195290240167
0.236000000000000071,28.849135924552776089
0.237000000000000072,28.352105032644043803
0.238000000000000073,27.863066959740802275
0.239000000000000073,27.381776805012957965
0.240000000000000074,26.907988190512547533
0.241000000000000075,26.441455024254700845
0.242000000000000076,25.981933152066506665
0.243000000000000077,25.529181890084934992
0.244000000000000078,25.082965431927483735
0.245000000000000079,24.643054126528660674
0.246000000000000080,24.209225624430519730
0.247000000000000081,23.781265891932068968
0.248000000000000081,23.358970093944769530
0.249000000000000082,22.942143347672637077
0.250000000000000111,22.530601350340305089
0.251000000000000112,22.124170885140408416
0.252000000000000113,21.722690210368572394
0.253000000000000114,21.326009337372081376
0.254000000000000115,20.933990203463814339
0.255000000000000115,20.546506746359167295
0.256000000000000116,20.163444886988333593
0.257000000000000117,19.784702427731126306
0.258000000000000118,19.410188873226484674
0.259000000000000119,19.039825180932506754
0.260000000000000120,18.673543448566015002
0.261000000000000121,18.311286545442026608
0.262000000000000122,17.953007694570512598
0.263000000000000123,17.598670012160347653
0.264000000000000123,17.248246010933591776
0.265000000000000124,16.901717073376396172
0.266000000000000125,16.559072900750130941
0.267000000000000126,16.220310943365376488
0.268000000000000127,15.885435817285388893
0.269000000000000128,15.554458712282066557
0.270000000000000129,15.227396795517439188
0.271000000000000130,14.904272615072907016
0.272000000000000131,14.585113507100208707
0.273000000000000131,14.269951010023754989
0.274000000000000132,13.958820288887604733
0.275000000000000133,13.651759572613002547
0.276000000000000134,13.348809606616049095
0.277000000000000135,13.050013122931636289
0.278000000000000136,12.755414329699117815
0.279000000000000137,12.465058421589692017
0.280000000000000138,12.178991112494923499
0.281000000000000139,11.897258191550189821
0.282000000000000139,11.619905103337748287
0.283000000000000140,11.346976552900329693
0.284000000000000141,11.078516135998114578
0.285000000000000142,10.814565994859703935
0.286000000000000143,10.555166499510416855
0.287000000000000144,10.300355954609099030
0.288000000000000145,10.050170331586432582
0.289000000000000146,9.804643025754261387
0.290000000000000147,9.563804637944050668
0.291000000000000147,9.327682780135296170
0.292000000000000148,9.096301904448154119
0.293000000000000149,8.869683154800579672
0.294000000000000150,8.647844240466183052
0.295000000000000151,8.430799330715441187
0.296000000000000152,8.218558969678666060
0.297000000000000153,8.011130010533772605
0.298000000000000154,7.808515568094216874
0.299000000000000155,7.610714988852938845
0.300000000000000155,7.417723837524855313
0.301000000000000156,7.229533899123933516
0.302000000000000157,7.046133195609495026
0.303000000000000158,6.867506016140898062
0.304000000000000159,6.693632959988059739
0.305000000000000160,6.524490991158472752
0.306000000000000161,6.360053503817683307
0.307000000000000162,6.200290397599836467
0.308000000000000163,6.045168161927727546
0.309000000000000163,5.894649968486421088
0.310000000000000164,5.748695771021560930
0.311000000000000165,5.607262411662295776
0.312000000000000166,5.470303732998624824
0.313000000000000167,5.337770695174258506
0.314000000000000168,5.209611497288123338
0.315000000000000169,5.085771702430200492
0.316000000000000170,4.966194365710313363
0.317000000000000171,4.850820164671834966
0.318000000000000171,4.739587531515272900
0.319000000000000172,4.632432786589667728
0.320000000000000173,4.529290272642538362
0.321000000000000174,4.430092489351268981
0.322000000000000175,4.334770227690402322
0.323000000000000176,4.243252703720465924
0.324000000000000177,4.155467691414069797
0.325000000000000178,4.071341654164686297
0.326000000000000179,3.990799874651680845
0.327000000000000179,3.913766582763245516
0.328000000000000180,3.840165081305278338
0.329000000000000181,3.769917869249849840
0.330000000000000182,3.702946762301796646
0.331000000000000183,3.639173010585184720
0.332000000000000184,3.578517413274178161
0.333000000000000185,3.520900430014202609
0.334000000000000186,3.466242288999558330
0.335000000000000187,3.414463091593167299
0.336000000000000187,3.365482913392198405
0.337000000000000188,3.319221901660807994
0.338000000000000189,3.275600369067201534
0.339000000000000190,3.234538883677610777
0.340000000000000191,3.195958355174093768
0.341000000000000192,3.159780117276237199
0.342000000000000193,3.125926006359361242
0.343000000000000194,3.094318436273242767
0.344000000000000195,3.064880469376244587
0.345000000000000195,3.037535883809181492
0.346000000000000196,3.012209237042723142
0.347000000000000197,2.988825925740085765
0.348000000000000198,2.967312241984387811
0.349000000000000199,2.947595425926974322
0.350000000000000200,2.929603714918978419
0.351000000000000201,2.913266389194141937
0.352000000000000202,2.898513814175663228
0.353000000000000203,2.885277479484279262
0.354000000000000203,2.873490034728553688
0.355000000000000204,2.863085322161722956
0.356000000000000205,2.853998406292165502
0.357000000000000206,2.846165600536913587
0.358000000000000207,2.839524491009731033
0.359000000000000208,2.834013957536625217
0.360000000000000209,2.829574191992866528
0.361000000000000210,2.826146714056549936
0.362000000000000210,2.823674384474009980
0.363000000000000211,2.822101415932813939
0.364000000000000212,2.821373381637781730
0.365000000000000213,2.821437221685316743
0.366000000000000214,2.822241247330658176
0.367000000000000215,2.823735143241933088
0.368000000000000216,2.825869967833866792
0.369000000000000217,2.828598151772935498
0.370000000000000218,2.831873494744298281
0.371000000000000218,2.835651160569589102
0.372000000000000219,2.839887670762811123
0.373000000000000220,2.844540896610088687
0.374000000000000221,2.849570049857064635
0.375000000000000222,2.854935672086048815
0.376000000000000223,2.860599622862731284
0.377000000000000224,2.866525066730570614
0.378000000000000225,2.872676459128687743
0.379000000000000226,2.879019531307001500
0.380000000000000226,2.885521274310166362
0.381000000000000227,2.892149922099729320
0.382000000000000228,2.898874933881648630
0.383000000000000229,2.905666975704052746
0.384000000000000230,2.912497901388066524
0.385000000000000231,2.919340732852020448
0.386000000000000232,2.926169639887411744
0.387000000000000233,2.932959919442560182
0.388000000000000234,2.939687974467879883
0.389000000000000234,2.946331292374356980
0.390000000000000235,2.952868423154792588
0.391000000000000236,2.959278957215190964
0.392000000000000237,2.965543502961634381
0.393000000000000238,2.971643664185845246
0.394000000000000239,2.977562017290777963
0.395000000000000240,2.983282088395408760
0.396000000000000241,2.988788330356153100
0.397000000000000242,2.994066099740332554
0.398000000000000242,2.999101633785291376
0.399000000000000243,3.003882027375000430
0.400000000000000244,3.008395210064259473
0.401000000000000245,3.012629923178729907
0.402000000000000246,3.016575697017714663
0.403000000000000247,3.020222828184616848
0.404000000000000248,3.023562357068747097
0.405000000000000249,3.026586045500491373
0.406000000000000250,3.029286354600473352
0.407000000000000250,3.031656422841856102
0.408000000000000251,3.033690044343699821
0.409000000000000252,3.035381647411843353
0.410000000000000253,3.036726273342604809
0.411000000000000254,3.037719555503395785
0.412000000000000255,3.038357698703105125
0.413000000000000256,3.038637458864055674
0.414000000000000257,3.038556123006261434
0.415000000000000258,3.038111489553602773
0.416000000000000258,3.037301848970732188
0.417000000000000259,3.036125964738337846
0.418000000000000260,3.034583054673727354
0.419000000000000261,3.032672772602693634
0.420000000000000262,3.030395190387854321
0.421000000000000263,3.027750780317872259
0.422000000000000264,3.024740397861231056
0.423000000000000265,3.021365264787576610
0.424000000000000266,3.017626952658818862
0.425000000000000266,3.013527366691797660
0.426000000000000267,3.009068729993495062
0.427000000000000268,3.004253568169337640
0.428000000000000269,2.999084694304586574
0.429000000000000270,2.993565194318238198
0.430000000000000271,2.987698412688511329
0.431000000000000272,2.981487938548422978
0.432000000000000273,2.974937592149637045
0.433000000000000274,2.968051411692334884
0.434000000000000274,2.960833640518503174
0.435000000000000275,2.953288714665696979
0.436000000000000276,2.945421250778026856
0.437000000000000277,2.937236034370832360
0.438000000000000278,2.928738008445201935
0.439000000000000279,2.919932262448296179
0.440000000000000280,2.910824021575173060
0.441000000000000281,2.901418636407641305
0.442000000000000282,2.891721572885372904
0.443000000000000282,2.881738402604536731
0.444000000000000283,2.871474793438786310
0.445000000000000284,2.860936500477559985
0.446000000000000285,2.850129357276375508
0.447000000000000286,2.839059267413655441
0.448000000000000287,2.827732196348706317
0.449000000000000288,2.816154163575179670
0.450000000000000289,2.804331235064427386
0.451000000000000290,2.792269515993019091
0.452000000000000290,2.779975143748662170
0.453000000000000291,2.767454281208778788
0.454000000000000292,2.754713110285857969
0.455000000000000293,2.741757825733799780
0.456000000000000294,2.728594629209386557
0.457000000000000295,2.715229723583025390
0.458000000000000296,2.701669307492954530
0.459000000000000297,2.687919570137057956
0.460000000000000298,2.673986686296513149
0.461000000000000298,2.659876811585475842
0.462000000000000299,2.645596077921076983
0.463000000000000300,2.631150589208041346
0.464000000000000301,2.616546417232236355
0.465000000000000302,2.601789597757584005
0.466000000000000303,2.586886126820774567
0.467000000000000304,2.571841957218271801
0.468000000000000305,2.556662995180197573
0.469000000000000306,2.541355097225731718
0.470000000000000306,2.525924067194708300
0.471000000000000307,2.510375653450214628
0.472000000000000308,2.494715546247024740
0.473000000000000309,2.478949375260785182
0.474000000000000310,2.463082707272989058
0.475000000000000311,2.447121044006780544
0.476000000000000312,2.431069820108810120
0.477000000000000313,2.414934401272328834
0.478000000000000314,2.398720082496940798
0.479000000000000314,2.382432086480336331
0.480000000000000315,2.366075562137615940
0.481000000000000316,2.349655583243728252
0.482000000000000317,2.333177147194747114
0.483000000000000318,2.316645173883746800
0.484000000000000319,2.300064504687143074
0.485000000000000320,2.283439901557462015
0.486000000000000321,2.266776046218550889
0.487000000000000322,2.250077539459382159
0.488000000000000322,2.233348900522683422
0.489000000000000323,2.216594566584659809
0.490000000000000324,2.199818892322231711
0.491000000000000325,2.183026149564278651
0.492000000000000326,2.166220527023420939
0.493000000000000327,2.149406130105039558
0.494000000000000328,2.132586980790232012
0.495000000000000329,2.115767017589562649
0.496000000000000330,2.098950095564505514
0.497000000000000330,2.082139986413536370
0.498000000000000331,2.065340378620024175
0.499000000000000332,2.048554877658996354
0.500000000000000333,2.031787006260032946
0.501000000000000334,2.015040204723653972
0.502000000000000335,1.998317831288494828
0.503000000000000336,1.981623162546820804
0.504000000000000337,1.964959393905860718
0.505000000000000338,1.948329640092615112
0.506000000000000338,1.931736935699782887
0.507000000000000339,1.915184235770603705
0.508000000000000340,1.898674416420422562
0.509000000000000341,1.882210275492855356
0.510000000000000342,1.865794533248562814
0.511000000000000343,1.849429833084613506
0.512000000000000344,1.833118742282558333
0.513000000000000345,1.816863752783374197
0.514000000000000346,1.800667281987450519
0.515000000000000346,1.784531673577982813
0.516000000000000347,1.768459198366019169
0.517000000000000348,1.752452055155619304
0.518000000000000349,1.736512371627549012
0.519000000000000350,1.720642205240034528
0.520000000000000351,1.704843544145131062
0.521000000000000352,1.689118308119310186
0.522000000000000353,1.673468349506968433
0.523000000000000353,1.657895454175529526
0.524000000000000354,1.642401342480943383
0.525000000000000355,1.626987670242362682
0.526000000000000356,1.611656029724911843
0.527000000000000357,1.596407950629368688
0.528000000000000358,1.581244901087809795
0.529000000000000359,1.566168288664113284
0.530000000000000360,1.551179461358454637
0.531000000000000361,1.536279708614774142
0.532000000000000361,1.521470262330408607
0.533000000000000362,1.506752297866983614
0.534000000000000363,1.492126935061814264
0.535000000000000364,1.477595239238973290
0.536000000000000365,1.463158222219363314
0.537000000000000366,1.448816843329023385
0.538000000000000367,1.434572010405056997
0.539000000000000368,1.420424580798486547
0.540000000000000369,1.406375362373487592
0.541000000000000369,1.392425114502363170
0.542000000000000370,1.378574549055779475
0.543000000000000371,1.364824331387683110
0.544000000000000372,1.351175081314438309
0.545000000000000373,1.337627374087721810
0.546000000000000374,1.324181741360724640
0.547000000000000375,1.310838672147247141
0.548000000000000376,1.297598613773304210
0.549000000000000377,1.284461972820878595
0.550000000000000377,1.271429116063446330
0.551000000000000378,1.258500371392995421
0.552000000000000379,1.245676028738209151
0.553000000000000380,1.232956340973523357
0.554000000000000381,1.220341524818833623
0.555000000000000382,1.207831761729555975
0.556000000000000383,1.195427198776870537
0.557000000000000384,1.183127949517880140
0.558000000000000385,1.170934094855566432
0.559000000000000385,1.158845683888285460
0.560000000000000386,1.146862734748706592
0.561000000000000387,1.134985235432022010
0.562000000000000388,1.123213144613310011
0.563000000000000389,1.111546392453900411
0.564000000000000390,1.099984881396694147
0.565000000000000391,1.088528486950298246
0.566000000000000392,1.077177058461924686
0.567000000000000393,1.065930419878968527
0.568000000000000393,1.054788370499227135
0.569000000000000394,1.043750685709694537
0.570000000000000395,1.032817117713921595
0.571000000000000396,1.021987396247896696
0.572000000000000397,1.011261229284421859
0.573000000000000398,1.000638303726021583
0.574000000000000399,0.990118286086331567
0.575000000000000400,0.979700823160017054
0.576000000000000401,0.969385542681225898
0.577000000000000401,0.959172053970583027
0.578000000000000402,0.949059948570784462
0.579000000000000403,0.939048800870840195
0.580000000000000404,0.929138168718942281
0.581000000000000405,0.919327594024112016
0.582000000000000406,0.909616603346585118
0.583000000000000407,0.900004708477064264
0.584000000000000408,0.890491407004876501
0.585000000000000409,0.881076182875111136
0.586000000000000409,0.871758506934820820
0.587000000000000410,0.862537837468350665
0.588000000000000411,0.853413620721919175
0.589000000000000412,0.844385291417476425
0.590000000000000413,0.835452273255998024
0.591000000000000414,0.826613979410271482
0.592000000000000415,0.817869813007271240
0.593000000000000416,0.809219167600255140
0.594000000000000417,0.800661427630654954
0.595000000000000417,0.792195968879872869
0.596000000000000418,0.783822158911117617
0.597000000000000419,0.775539357501356386
0.598000000000000420,0.767346917063521206
0.599000000000000421,0.759244183059074373
0.600000000000000422,0.751230494401040172
0.601000000000000423,0.743305183847653428
0.602000000000000424,0.735467578386702403
0.603000000000000425,0.727716999610697801
0.604000000000000425,0.720052764083024655
0.605000000000000426,0.712474183695155583
0.606000000000000427,0.704980566015042331
0.607000000000000428,0.697571214626891090
0.608000000000000429,0.690245429462293170
0.609000000000000430,0.683002507123035341
0.610000000000000431,0.675841741195507328
0.611000000000000432,0.668762422556994141
0.612000000000000433,0.661763839673901288
0.613000000000000433,0.654845278892026039
0.614000000000000434,0.648006024719053553
0.615000000000000435,0.641245360099369499
0.616000000000000436,0.634562566681311724
0.617000000000000437,0.627956925076982420
0.618000000000000438,0.621427715114774903
0.619000000000000439,0.614974216084710035
0.620000000000000440,0.608595706976706730
