# TiO2-ana-101_CS-68900-AC
# h[nm],U(h)[kJ/mol]
0.200000000000000011,71.304619960021028646
0.201000000000000012,70.467855854234727531
0.202000000000000013,69.486942178853453811
0.203000000000000014,68.438088864305143488
0.204000000000000015,67.365215472014071452
0.205000000000000016,66.291684712415857916
0.206000000000000016,65.228292596132959602
0.207000000000000017,64.178590983855215768
0.208000000000000018,63.142333536977979236
0.209000000000000019,62.117622017042116056
0.210000000000000020,61.102169825161141148
0.211000000000000021,60.093980704334015286
0.212000000000000022,59.091652701547126014
0.213000000000000023,58.094453159710155887
0.214000000000000024,57.102263825898162963
0.215000000000000024,56.115461650447414854
0.216000000000000025,55.134777109129252892
0.217000000000000026,54.161155330339816771
0.218000000000000027,53.195634007174234625
0.219000000000000028,52.239244562277363571
0.220000000000000029,51.292938224296825922
0.221000000000000030,50.357535763647845783
0.222000000000000031,49.433698030992459849
0.223000000000000032,48.521913714385974004
0.224000000000000032,47.622500571354251520
0.225000000000000033,46.735616581168763162
0.226000000000000034,45.861277847783604500
0.227000000000000035,44.999380561593241623
0.228000000000000036,44.149724830050573132
0.229000000000000037,43.312038670298854015
0.230000000000000038,42.486000896226059353
0.231000000000000039,41.671262014997587642
0.232000000000000040,40.867462569708131070
0.233000000000000040,40.074248626224665770
0.234000000000000041,39.291284307749585025
0.235000000000000042,38.518261436104445750
0.236000000000000043,37.754906450997403056
0.237000000000000044,37.000984854503954580
0.238000000000000045,36.256303474262239206
0.239000000000000046,35.520710861520896628
0.240000000000000047,34.794096144541832416
0.241000000000000048,34.076386648596532325
0.242000000000000048,33.367544574809684832
0.243000000000000049,32.667563004628149770
0.244000000000000050,31.976461467334434730
0.245000000000000051,31.294281276832247585
0.246000000000000052,30.621080812490379941
0.247000000000000053,29.956930888306960270
0.248000000000000054,29.301910325887781994
0.249000000000000055,28.656101820276358438
0.250000000000000056,28.019588163868000663
0.251000000000000056,27.392448872647531033
0.252000000000000057,26.774757240840564521
0.253000000000000058,26.166577834691459259
0.254000000000000059,25.567964423333798152
0.255000000000000060,24.978958334414901543
0.256000000000000061,24.399587214050580286
0.257000000000000062,23.829864164588141051
0.258000000000000063,23.269787229301705622
0.259000000000000064,22.719339190300726017
0.260000000000000064,22.178487644372346210
0.261000000000000065,21.647185320991248147
0.262000000000000066,21.125370607119911881
0.263000000000000067,20.612968244514483729
0.264000000000000068,20.109890166886817298
0.265000000000000069,19.616036446315234798
0.266000000000000070,19.131296320625246210
0.267000000000000071,18.655549275973132950
0.268000000000000071,18.188666161475637750
0.269000000000000072,17.730510315364604423
0.270000000000000073,17.280938684749095557
0.271000000000000074,16.839802923593367723
0.272000000000000075,16.406950455930093824
0.273000000000000076,15.982225493599088395
0.274000000000000077,15.565469999912972199
0.275000000000000078,15.156524592590823630
0.276000000000000079,14.755229381062793692
0.277000000000000079,14.361424734829679295
0.278000000000000080,13.974951980966139331
0.279000000000000081,13.595654030085842834
0.280000000000000082,13.223375931151878149
0.281000000000000083,12.857965356422846881
0.282000000000000084,12.499273018585462580
0.283000000000000085,12.147153022749002105
0.284000000000000086,11.801463156475836769
0.285000000000000087,11.462065121409303003
0.286000000000000087,11.128824710344289883
0.287000000000000088,10.801611933780041142
0.288000000000000089,10.480301100109121748
0.289000000000000090,10.164770853640819226
0.290000000000000091,9.854904174642820536
0.291000000000000092,9.550588345518384870
0.292000000000000093,9.251714887128223097
0.293000000000000094,8.958179469122772076
0.294000000000000095,8.669881797979483551
0.295000000000000095,8.386725486246161765
0.296000000000000096,8.108617906282789889
0.297000000000000097,7.835470031573237293
0.298000000000000098,7.567196268451269248
0.299000000000000099,7.303714280854286756
0.300000000000000100,7.044944810488151354
0.301000000000000101,6.790811494558210093
0.302000000000000102,6.541240682999726275
0.303000000000000103,6.296161256924430738
0.304000000000000103,6.055504449793645882
0.305000000000000104,5.819203672630551161
0.306000000000000105,5.587194344397500068
0.307000000000000106,5.359413728488958029
0.308000000000000107,5.135800776126520084
0.309000000000000108,4.916295977291000874
0.310000000000000109,4.700841219685985450
0.311000000000000110,4.489379656100069838
0.312000000000000111,4.281855580417610163
0.313000000000000111,4.078214312423563470
0.314000000000000112,3.878402091453511780
0.315000000000000113,3.682365978856493083
0.316000000000000114,3.490053769164618735
0.317000000000000115,3.301413909799562507
0.318000000000000116,3.116395429090529579
0.319000000000000117,2.934947872331672425
0.320000000000000118,2.757021245567703005
0.321000000000000119,2.582565966764306609
0.322000000000000119,2.411532823994694930
0.323000000000000120,2.243872940254308723
0.324000000000000121,2.079537744501268826
0.325000000000000122,1.918478948511556537
0.326000000000000123,1.760648529133010287
0.327000000000000124,1.605998715521560261
0.328000000000000125,1.454481980945745878
0.329000000000000126,1.306051038751545157
0.330000000000000127,1.160658842087674891
0.331000000000000127,1.018258587002382143
0.332000000000000128,0.878803718535220213
0.333000000000000129,0.742247939441386118
0.334000000000000130,0.608545221201811537
0.335000000000000131,0.477649816988290232
0.336000000000000132,0.349516276270657511
0.337000000000000133,0.224099460770328329
0.338000000000000134,0.101354561482778743
0.339000000000000135,-0.018762883489871030
0.340000000000000135,-0.136296970537269663
0.341000000000000136,-0.251291411792612607
0.342000000000000137,-0.363789516242571387
0.343000000000000138,-0.473834170882299510
0.344000000000000139,-0.581467822085641184
0.345000000000000140,-0.686732457343657066
0.346000000000000141,-0.789669587508822990
0.347000000000000142,-0.890320229666637375
0.348000000000000143,-0.988724890741817575
0.349000000000000143,-1.084923551932025498
0.350000000000000144,-1.178955654048955193
0.351000000000000145,-1.270860083833789345
0.352000000000000146,-1.360675161302492775
0.353000000000000147,-1.448438628165071185
0.354000000000000148,-1.534187637352767197
0.355000000000000149,-1.617958743677512912
0.356000000000000150,-1.699787895639059077
0.357000000000000151,-1.779710428387090149
0.358000000000000151,-1.857761057838127838
0.359000000000000152,-1.933973875940196319
0.360000000000000153,-2.008382347072210639
0.361000000000000154,-2.081019305559201893
0.362000000000000155,-2.151916954279882610
0.363000000000000156,-2.221106864338419307
0.364000000000000157,-2.288619975768446668
0.365000000000000158,-2.354486599234252520
0.366000000000000159,-2.418736418690706991
0.367000000000000159,-2.481398494961659207
0.368000000000000160,-2.542501270193984197
0.369000000000000161,-2.602072573143226375
0.370000000000000162,-2.660139625245363515
0.371000000000000163,-2.716729047428299904
0.372000000000000164,-2.771866867616135544
0.373000000000000165,-2.825578528878933682
0.374000000000000166,-2.877888898180706256
0.375000000000000167,-2.928822275678293785
0.376000000000000167,-2.978402404524564506
0.377000000000000168,-3.026652481129666228
0.378000000000000169,-3.073595165834927201
0.379000000000000170,-3.119252593954944253
0.380000000000000171,-3.163646387144458227
0.381000000000000172,-3.206797665047706580
0.382000000000000173,-3.248727057189302769
0.383000000000000174,-3.289454715067109625
0.384000000000000175,-3.329000324408843969
0.385000000000000175,-3.367383117555779570
0.386000000000000176,-3.404621885938543979
0.387000000000000177,-3.440734992611299781
0.388000000000000178,-3.475740384812609385
0.389000000000000179,-3.509655606522541937
0.390000000000000180,-3.542497810987478069
0.391000000000000181,-3.574283773185636282
0.392000000000000182,-3.605029902207864012
0.393000000000000183,-3.634752253530062482
0.394000000000000183,-3.663466541155031564
0.395000000000000184,-3.691188149603210178
0.396000000000000185,-3.717932145733295890
0.397000000000000186,-3.743713290375177305
0.398000000000000187,-3.768546049759250671
0.399000000000000188,-3.792444606727484402
0.400000000000000189,-3.815422871712937258
0.401000000000000190,-3.837494493476086177
0.402000000000000191,-3.858672869587209675
0.403000000000000191,-3.878971156645614204
0.404000000000000192,-3.898402280227652117
0.405000000000000193,-3.916978944556473330
0.406000000000000194,-3.934713641887767288
0.407000000000000195,-3.951618661606663530
0.408000000000000196,-3.967706099031980127
0.409000000000000197,-3.982987863925002703
0.410000000000000198,-3.997475688700864005
0.411000000000000199,-4.011181136341317455
0.412000000000000199,-4.024115608008774991
0.413000000000000200,-4.036290350361854351
0.414000000000000201,-4.047716462573770713
0.415000000000000202,-4.058404903055212287
0.416000000000000203,-4.068366495884211176
0.417000000000000204,-4.077611936945946702
0.418000000000000205,-4.086151799785964656
0.419000000000000206,-4.093996541180825233
0.420000000000000207,-4.101156506430525539
0.421000000000000207,-4.107641934377618931
0.422000000000000208,-4.113462962158049407
0.423000000000000209,-4.118629629689396054
0.424000000000000210,-4.123151883902193227
0.425000000000000211,-4.127039582720370525
0.426000000000000212,-4.130302498797266075
0.427000000000000213,-4.132950323013469429
0.428000000000000214,-4.134992667743341954
0.429000000000000214,-4.136439069896900023
0.430000000000000215,-4.137298993744020770
0.431000000000000216,-4.137581833527997688
0.432000000000000217,-4.137296915875486647
0.433000000000000218,-4.136453502009971750
0.434000000000000219,-4.135060789775943491
0.435000000000000220,-4.133127915480959480
0.436000000000000221,-4.130663955562696721
0.437000000000000222,-4.127677928088158588
0.438000000000000222,-4.124178794092149047
0.439000000000000223,-4.120175458762046716
0.440000000000000224,-4.115676772475828749
0.441000000000000225,-4.110691531700246593
0.442000000000000226,-4.105228479756018345
0.443000000000000227,-4.099296307456613775
0.444000000000000228,-4.092903653627378624
0.445000000000000229,-4.086059105511365530
0.446000000000000230,-4.078771199068230935
0.447000000000000230,-4.071048419172494270
0.448000000000000231,-4.062899199717169729
0.449000000000000232,-4.054331923628676115
0.450000000000000233,-4.045354922798958697
0.451000000000000234,-4.035976477940266705
0.452000000000000235,-4.026204818368266380
0.453000000000000236,-4.016048121718604591
0.454000000000000237,-4.005514513602322246
0.455000000000000238,-3.994612067204905692
0.456000000000000238,-3.983348802833960978
0.457000000000000239,-3.971732687420129082
0.458000000000000240,-3.959771633975788241
0.459000000000000241,-3.947473501015824837
0.460000000000000242,-3.934846091944790736
0.461000000000000243,-3.921897154414320852
0.462000000000000244,-3.908634379654851720
0.463000000000000245,-3.895065401785113401
0.464000000000000246,-3.881197797103232539
0.465000000000000246,-3.867039083362584506
0.466000000000000247,-3.852596719035781714
0.467000000000000248,-3.837878102569839633
0.468000000000000249,-3.822890571635466195
0.469000000000000250,-3.807641402373267425
0.470000000000000251,-3.792137808639529428
0.471000000000000252,-3.776386941254037843
0.472000000000000253,-3.760395887252427460
0.473000000000000254,-3.744171669145140324
0.474000000000000254,-3.727721244185236316
0.475000000000000255,-3.711051503646956462
0.476000000000000256,-3.694169272116940128
0.477000000000000257,-3.677081306799808491
0.478000000000000258,-3.659794296839735672
0.479000000000000259,-3.642314862659521424
0.480000000000000260,-3.624649555318581573
0.481000000000000261,-3.606804855891076134
0.482000000000000262,-3.588787174865428309
0.483000000000000262,-3.570602851566325509
0.484000000000000263,-3.552258153600099000
0.485000000000000264,-3.533759276324518250
0.486000000000000265,-3.515112342343695850
0.487000000000000266,-3.496323401028850864
0.488000000000000267,-3.477398428065625602
0.489000000000000268,-3.458343325028447879
0.490000000000000269,-3.439163918982448997
0.491000000000000270,-3.419865962113380675
0.492000000000000270,-3.400455131385808016
0.493000000000000271,-3.380937028229916930
0.494000000000000272,-3.361317178257132277
0.495000000000000273,-3.341601031004657330
0.496000000000000274,-3.321793959709113064
0.497000000000000275,-3.301901261109225771
0.498000000000000276,-3.281928155277637593
0.499000000000000277,-3.261879785481722305
0.500000000000000222,-3.241761218073314410
0.501000000000000334,-3.221577442407217884
0.502000000000000224,-3.201333370788308486
0.503000000000000336,-3.181033838446937878
0.504000000000000226,-3.160683603542497000
0.505000000000000338,-3.140287347194668843
0.506000000000000227,-3.119849673542240520
0.507000000000000339,-3.099375109828906627
0.508000000000000229,-3.078868106515859182
0.509000000000000341,-3.058333037420577938
0.510000000000000231,-3.037774199881569270
0.511000000000000343,-3.017195814948406163
0.512000000000000233,-2.996602027596736217
0.513000000000000345,-2.975996906967638633
0.514000000000000234,-2.955384446630972661
0.515000000000000346,-2.934768564871968355
0.516000000000000236,-2.914153105000745647
0.517000000000000348,-2.893541835684013019
0.518000000000000238,-2.872938451298552742
0.519000000000000350,-2.852346572305735517
0.520000000000000240,-2.831769745646637304
0.521000000000000352,-2.811211445157093092
0.522000000000000242,-2.790675072002090307
0.523000000000000353,-2.770163955128926325
0.524000000000000243,-2.749681351738507473
0.525000000000000355,-2.729230447774196211
0.526000000000000245,-2.708814358427608759
0.527000000000000357,-2.688436128660704583
0.528000000000000247,-2.668098733743643258
0.529000000000000359,-2.647805079807715067
0.530000000000000249,-2.627558004412812398
0.531000000000000361,-2.607360277128790038
0.532000000000000250,-2.587214600130163689
0.533000000000000362,-2.567123608803497881
0.534000000000000252,-2.547089872366941066
0.535000000000000364,-2.527115894501291482
0.536000000000000254,-2.507204113992071548
0.537000000000000366,-2.487356905381920669
0.538000000000000256,-2.467576579632908995
0.539000000000000368,-2.447865384798039390
0.540000000000000258,-2.428225506701558789
0.541000000000000369,-2.408659069627351546
0.542000000000000259,-2.389168137015076798
0.543000000000000371,-2.369754712163348209
0.544000000000000261,-2.350420738939563048
0.545000000000000373,-2.331168102495802863
0.546000000000000263,-2.311998629990374532
0.547000000000000375,-2.292914091314357083
0.548000000000000265,-2.273916199822937578
0.549000000000000377,-2.255006613070739796
0.550000000000000266,-2.236186933550986744
0.551000000000000378,-2.217458709437830855
0.552000000000000268,-2.198823435331538345
0.553000000000000380,-2.180282553006037016
0.554000000000000270,-2.161837452158462458
0.555000000000000382,-2.143489471160192839
0.556000000000000272,-2.125239897809152900
0.557000000000000384,-2.107089970082760111
0.558000000000000274,-2.089040876891395726
0.559000000000000385,-2.071093758831795473
0.560000000000000275,-2.053249708940199980
0.561000000000000387,-2.035509773444776460
0.562000000000000277,-2.017874952517067833
0.563000000000000389,-2.000346201022085157
0.564000000000000279,-1.982924429266782251
0.565000000000000391,-1.965610503746547888
0.566000000000000281,-1.948405247889483105
0.567000000000000393,-1.931309442798112341
0.568000000000000282,-1.914323827988339888
0.569000000000000394,-1.897449102125272180
0.570000000000000284,-1.880685923755778699
0.571000000000000396,-1.864034912037418223
0.572000000000000286,-1.847496647463631847
0.573000000000000398,-1.831071672584810184
0.574000000000000288,-1.814760492725182583
0.575000000000000400,-1.798563576695196176
0.576000000000000290,-1.782481357499259733
0.577000000000000401,-1.766514233038604775
0.578000000000000291,-1.750662566809128240
0.579000000000000403,-1.734926688594004229
0.580000000000000293,-1.719306895150936487
0.581000000000000405,-1.703803450893827343
0.582000000000000295,-1.688416588568821153
0.583000000000000407,-1.673146509924447800
0.584000000000000297,-1.657993386375837375
0.585000000000000409,-1.642957359662814865
0.586000000000000298,-1.628038542501802910
0.587000000000000410,-1.613237019231357205
0.588000000000000300,-1.598552846451304799
0.589000000000000412,-1.583986053655293658
0.590000000000000302,-1.569536643856751290
0.591000000000000414,-1.555204594208109636
0.592000000000000304,-1.540989856613236952
0.593000000000000416,-1.526892358332965216
0.594000000000000306,-1.512912002583732818
0.595000000000000417,-1.499048669129161571
0.596000000000000307,-1.485302214864614001
0.597000000000000419,-1.471672474394611019
0.598000000000000309,-1.458159260603119067
0.599000000000000421,-1.444762365216592181
0.600000000000000311,-1.431481559359833122
0.601000000000000423,-1.418316594104530814
0.602000000000000313,-1.405267201010563127
0.603000000000000425,-1.392333092659911120
0.604000000000000314,-1.379513963183335967
0.605000000000000426,-1.366809488779609172
0.606000000000000316,-1.354219328227471264
0.607000000000000428,-1.341743123390177539
0.608000000000000318,-1.329380499712729202
0.609000000000000430,-1.317131066711697329
0.610000000000000320,-1.304994418457757765
0.611000000000000432,-1.292970134050827502
0.612000000000000322,-1.281057778087922427
0.613000000000000433,-1.269256901123675174
0.614000000000000323,-1.257567040123585445
0.615000000000000435,-1.245987718909992159
0.616000000000000325,-1.234518448600813167
0.617000000000000437,-1.223158728041060073
0.618000000000000327,-1.211908044227206771
0.619000000000000439,-1.200765872724360195
0.620000000000000329,-1.189731678076372035
0.621000000000000441,-1.178804914208850585
0.622000000000000330,-1.167985024825150653
0.623000000000000442,-1.157271443795376165
0.624000000000000332,-1.146663595538442104
0.625000000000000444,-1.136160895397236414
0.626000000000000334,-1.125762750006950252
0.627000000000000446,-1.115468557656590365
0.628000000000000336,-1.105277708643766177
0.629000000000000448,-1.095189585622780459
0.630000000000000338,-1.085203563946093519
0.631000000000000449,-1.075319011999194441
0.632000000000000339,-1.065535291528971751
0.633000000000000451,-1.055851757965607929
0.634000000000000341,-1.046267760738086583
0.635000000000000453,-1.036782643583356700
0.636000000000000343,-1.027395744849221693
0.637000000000000455,-1.018106397791007867
0.638000000000000345,-1.008913930862118669
0.639000000000000457,-0.999817667998448734
0.640000000000000346,-0.990816928896849802
0.641000000000000458,-0.981911029287582005
0.642000000000000348,-0.973099281200942356
0.643000000000000460,-0.964380993228026506
0.644000000000000350,-0.955755470775786820
0.645000000000000462,-0.947222016316380810
0.646000000000000352,-0.938779929630940813
0.647000000000000464,-0.930428508047766334
0.648000000000000353,-0.922167046675106739
0.649000000000000465,-0.913994838628473416
0.650000000000000355,-0.905911175252694933
0.651000000000000467,-0.897915346338650777
0.652000000000000357,-0.890006640334879306
0.653000000000000469,-0.882184344554008959
0.654000000000000359,-0.874447745374202112
0.655000000000000471,-0.866796128435572522
0.656000000000000361,-0.859228778831746753
0.657000000000000473,-0.851744981296542192
0.658000000000000362,-0.844344020385933924
0.659000000000000474,-0.837025180655284751
0.660000000000000364,-0.829787746831990525
0.661000000000000476,-0.822631003983539388
0.662000000000000366,-0.815554237681114680
0.663000000000000478,-0.808556734158774049
0.664000000000000368,-0.801637780468283934
