# TiO2-ana-101_CS-66243-AC
# h[nm],U(h)[kJ/mol]
0.200000000000000011,110.806608046827790304
0.201000000000000012,109.472873599918287368
0.202000000000000013,108.056186333490970242
0.203000000000000014,106.627768590377627334
0.204000000000000015,105.221986280637651134
0.205000000000000016,103.851287591018191847
0.206000000000000016,102.516017248804544693
0.207000000000000017,101.210662969722420712
0.208000000000000018,99.927659296072619100
0.209000000000000019,98.659554066335417133
0.210000000000000020,97.400106971815063162
0.211000000000000021,96.144717174960760531
0.212000000000000022,94.890451861195032279
0.213000000000000023,93.635857759455504379
0.214000000000000024,92.380673918624296448
0.215000000000000024,91.125519441602278903
0.216000000000000025,89.871599252959114779
0.217000000000000026,88.620450421292190413
0.218000000000000027,87.373738184461245737
0.219000000000000028,86.133102502518582355
0.220000000000000029,84.900051128129547351
0.221000000000000030,83.675892704808035205
0.222000000000000031,82.461702466515234278
0.223000000000000032,81.258313142523718398
0.224000000000000032,80.066324268140746767
0.225000000000000033,78.886123991720467075
0.226000000000000034,77.717918470416663013
0.227000000000000035,76.561764946226361417
0.228000000000000036,75.417605521235927313
0.229000000000000037,74.285299469728968802
0.230000000000000038,73.164652619527046795
0.231000000000000039,72.055442904119743730
0.232000000000000040,70.957441637861251138
0.233000000000000040,69.870430410659054132
0.234000000000000041,68.794213750301537402
0.235000000000000042,67.728627874582358004
0.236000000000000043,66.673545965880791186
0.237000000000000044,65.628880460911517503
0.238000000000000045,64.594582869529943991
0.239000000000000046,63.570641628745860885
0.240000000000000047,62.557078469813994559
0.241000000000000048,61.553943734305640589
0.242000000000000048,60.561311024899374900
0.243000000000000049,59.579271522553334250
0.244000000000000050,58.607928246987533782
0.245000000000000051,57.647390484382597720
0.246000000000000052,56.697768556562536446
0.247000000000000053,55.759169060742465263
0.248000000000000054,54.831690668812221645
0.249000000000000055,53.915420540357935408
0.250000000000000056,53.010431374189487030
0.251000000000000056,52.116779098847018759
0.252000000000000057,51.234501183072254094
0.253000000000000058,50.363615532132492092
0.254000000000000059,49.504119924707268297
0.255000000000000060,48.655991937307035755
0.256000000000000061,47.819189298401326482
0.257000000000000062,46.993650612126586452
0.258000000000000063,46.179296391181267722
0.259000000000000064,45.376030339896757937
0.260000000000000064,44.583740831134790028
0.261000000000000065,43.802302524284684182
0.262000000000000066,43.031578075936181449
0.263000000000000067,42.271419899549748322
0.264000000000000068,41.521671935432173939
0.265000000000000069,40.782171397384907152
0.266000000000000070,40.052750467394034217
0.267000000000000071,39.333237914563731863
0.268000000000000071,38.623460619082848666
0.269000000000000072,37.923244986294136538
0.270000000000000073,37.232418239869360832
0.271000000000000074,36.550809586654892769
0.272000000000000075,35.878251248930254746
0.273000000000000076,35.214579362615566538
0.274000000000000077,34.559634742379259364
0.275000000000000078,33.913263516650495433
0.276000000000000079,33.275317637250054759
0.277000000000000079,32.645655269739862092
0.278000000000000080,32.024141071684418591
0.279000000000000081,31.410646366838147259
0.280000000000000082,30.805049223853490759
0.281000000000000083,30.207234448468376797
0.282000000000000084,29.617093498308030064
0.283000000000000085,29.034524329448760938
0.284000000000000086,28.459431183764110074
0.285000000000000087,27.891724325831962261
0.286000000000000087,27.331319737841432982
0.287000000000000088,26.778138780524209039
0.288000000000000089,26.232107827660506416
0.289000000000000090,25.693157881192053793
0.290000000000000091,25.161224173427889639
0.291000000000000092,24.636245762262738879
0.292000000000000093,24.118165124756281159
0.293000000000000094,23.606927753851273621
0.294000000000000095,23.102481762447659719
0.295000000000000095,22.604777498504478928
0.296000000000000096,22.113767174317860764
0.297000000000000097,21.629404512623572998
0.298000000000000098,21.151644411702214654
0.299000000000000099,20.680442631223588279
0.300000000000000100,20.215755500158969937
0.301000000000000101,19.757539647712665243
0.302000000000000102,19.305751757882788411
0.303000000000000103,18.860348347949262404
0.304000000000000103,18.421285570911059892
0.305000000000000104,17.988519041647293761
0.306000000000000105,17.562003686361315147
0.307000000000000106,17.141693614680058033
0.308000000000000107,16.727542013620926298
0.309000000000000108,16.319501062505629818
0.310000000000000109,15.917521867789321988
0.311000000000000110,15.521554416687957101
0.312000000000000111,15.131547548417739080
0.313000000000000111,14.747448941814303325
0.314000000000000112,14.369205118066926019
0.315000000000000113,13.996761457287764330
0.316000000000000114,13.630062227633530370
0.317000000000000115,13.269050625707185631
0.318000000000000116,12.913668826987095173
0.319000000000000117,12.563858045061019553
0.320000000000000118,12.219558598479252964
0.321000000000000119,11.880709984085061848
0.322000000000000119,11.547250955729722932
0.323000000000000120,11.219119607333407629
0.324000000000000121,10.896253459309214406
0.325000000000000122,10.578589547427741380
0.326000000000000123,10.266064513260511504
0.327000000000000124,9.958614695402218331
0.328000000000000125,9.656176220734529636
0.329000000000000126,9.358685095056163306
0.330000000000000127,9.066077292465175574
0.331000000000000127,8.778288842939945269
0.332000000000000128,8.495255917623847353
0.333000000000000129,8.216914911375429398
0.334000000000000130,7.943202522201010751
0.335000000000000131,7.674055827238511540
0.336000000000000132,7.409412355012149121
0.337000000000000133,7.149210153724287586
0.338000000000000134,6.893387855395724628
0.339000000000000135,6.641884735708037724
0.340000000000000135,6.394640769440073313
0.341000000000000136,6.151596681427713875
0.342000000000000137,5.912693993009311200
0.343000000000000138,5.677875063950480694
0.344000000000000139,5.447083129869564999
0.345000000000000140,5.220262335211428351
0.346000000000000141,4.997357761839782420
0.347000000000000142,4.778315453339283536
0.348000000000000143,4.563082435136695203
0.349000000000000143,4.351606730566714099
0.350000000000000144,4.143837373021820092
0.351000000000000145,3.939724414337773872
0.352000000000000146,3.739218929576013206
0.353000000000000147,3.542273018372910975
0.354000000000000148,3.348839803032137574
0.355000000000000149,3.158873423541564307
0.356000000000000150,2.972329029699780190
0.357000000000000151,2.789162770539508784
0.358000000000000151,2.609331781236351677
0.359000000000000152,2.432794167691221698
0.360000000000000153,2.259508988973574439
0.361000000000000154,2.089436237811099772
0.362000000000000155,1.922536819308054534
0.363000000000000156,1.758772528071427699
0.364000000000000157,1.598106023919799501
0.365000000000000158,1.440500806344728435
0.366000000000000159,1.285921187889966788
0.367000000000000159,1.134332266607208428
0.368000000000000160,0.985699897742063569
0.369000000000000161,0.839990664796882003
0.370000000000000162,0.697171850110900770
0.371000000000000163,0.557211405091549539
0.372000000000000164,0.420077920223615286
0.373000000000000165,0.285740594976440998
0.374000000000000166,0.154169207721859713
0.375000000000000167,0.025334085769386051
0.376000000000000167,-0.100793924382602998
0.377000000000000168,-0.224243486487242905
0.378000000000000169,-0.345042803595581149
0.379000000000000170,-0.463219646630163517
0.380000000000000171,-0.578801382413602683
0.381000000000000172,-0.691815001085929859
0.382000000000000173,-0.802287142851134005
0.383000000000000174,-0.910244123999058630
0.384000000000000175,-1.015711962154673742
0.385000000000000175,-1.118716400712267633
0.386000000000000176,-1.219282932417816268
0.387000000000000177,-1.317436822067309832
0.388000000000000178,-1.413203128294501898
0.389000000000000179,-1.506606724425558097
0.390000000000000180,-1.597672318382993950
0.391000000000000181,-1.686424471625424193
0.392000000000000182,-1.772887617113364289
0.393000000000000183,-1.857086076295572097
0.394000000000000183,-1.939044075113504517
0.395000000000000184,-2.018785759025044424
0.396000000000000185,-2.096335207051672089
0.397000000000000186,-2.171716444855954276
0.398000000000000187,-2.244953456859257734
0.399000000000000188,-2.316070197411689957
0.400000000000000189,-2.385090601028549084
0.401000000000000190,-2.452038591710005822
0.402000000000000191,-2.516938091362020291
0.403000000000000191,-2.579813027338663911
0.404000000000000192,-2.640687339127335331
0.405000000000000193,-2.699584984199630444
0.406000000000000194,-2.756529943052060450
0.407000000000000195,-2.811546223461577565
0.408000000000000196,-2.864657863981916908
0.409000000000000197,-2.915888936707521140
0.410000000000000198,-2.965263549332420645
0.411000000000000199,-3.012805846531756870
0.412000000000000199,-3.058540010694515754
0.413000000000000200,-3.102490262035618063
0.414000000000000201,-3.144680858116408295
0.415000000000000202,-3.185136092802094421
0.416000000000000203,-3.223880294684987824
0.417000000000000204,-3.260937825002263590
0.418000000000000205,-3.296333075076675279
0.419000000000000206,-3.330090463308566395
0.420000000000000207,-3.362234431747066488
0.421000000000000207,-3.392789442268201672
0.422000000000000208,-3.421779972386895796
0.423000000000000209,-3.449230510729823784
0.424000000000000210,-3.475165552195129237
0.425000000000000211,-3.499609592824682203
0.426000000000000212,-3.522587124414060078
0.427000000000000213,-3.544122628884469606
0.428000000000000214,-3.564240572440596999
0.429000000000000214,-3.582965399537340723
0.430000000000000215,-3.600321526677937811
0.431000000000000216,-3.616333336065146398
0.432000000000000217,-3.631025169126480989
0.433000000000000218,-3.644421319933674575
0.434000000000000219,-3.656546028535957227
0.435000000000000220,-3.667423474225858904
0.436000000000000221,-3.677077768755506071
0.437000000000000222,-3.685532949520641921
0.438000000000000222,-3.692812972728914733
0.439000000000000223,-3.698941706568098287
0.440000000000000224,-3.703942924389290958
0.441000000000000225,-3.707840297919256844
0.442000000000000226,-3.710657390515552656
0.443000000000000227,-3.712417650477068953
0.444000000000000228,-3.713144404422253242
0.445000000000000229,-3.712860850746269481
0.446000000000000230,-3.711590053167776571
0.447000000000000230,-3.709354934375502122
0.448000000000000231,-3.706178269783834800
0.449000000000000232,-3.702082681406147824
0.450000000000000233,-3.697090631854134557
0.451000000000000234,-3.691224418470380186
0.452000000000000235,-3.684506167601313109
0.453000000000000236,-3.676957829016620050
0.454000000000000237,-3.668601170481113005
0.455000000000000238,-3.659457772484047577
0.456000000000000238,-3.649549023130734149
0.457000000000000239,-3.638896113200559057
0.458000000000000240,-3.627520031375159881
0.459000000000000241,-3.615441559639870128
0.460000000000000242,-3.602681268861418040
0.461000000000000243,-3.589259514543976515
0.462000000000000244,-3.575196432765772592
0.463000000000000245,-3.560511936297439117
0.464000000000000246,-3.545225710903657124
0.465000000000000246,-3.529357211828551666
0.466000000000000247,-3.512925660465473499
0.467000000000000248,-3.495950041211200787
0.468000000000000249,-3.478449098504403647
0.469000000000000250,-3.460441334047876349
0.470000000000000251,-3.441945004213729842
0.471000000000000252,-3.422978117630523620
0.472000000000000253,-3.403558432951130364
0.473000000000000254,-3.383703456799646236
0.474000000000000254,-3.363430441895805867
0.475000000000000255,-3.342756385354761051
0.476000000000000256,-3.321698027160246536
0.477000000000000257,-3.300271848808725927
0.478000000000000258,-3.278494072122037917
0.479000000000000259,-3.256380658225952907
0.480000000000000260,-3.233947306691820955
0.481000000000000261,-3.211209454838391597
0.482000000000000262,-3.188182277190807490
0.483000000000000262,-3.164880685093655721
0.484000000000000263,-3.141319326474734108
0.485000000000000264,-3.117512585756361698
0.486000000000000265,-3.093474583910730935
0.487000000000000266,-3.069219178655810509
0.488000000000000267,-3.044759964788386064
0.489000000000000268,-3.020110274650542159
0.490000000000000269,-2.995283178726001694
0.491000000000000270,-2.970291486362699018
0.492000000000000270,-2.945147746617807538
0.493000000000000271,-2.919864249221601593
0.494000000000000272,-2.894453025656394285
0.495000000000000273,-2.868925850346762729
0.496000000000000274,-2.843294241957422308
0.497000000000000275,-2.817569464794926759
0.498000000000000276,-2.791762530309521928
0.499000000000000277,-2.765884198693433937
0.500000000000000222,-2.739944980571843214
0.501000000000000334,-2.713955138782959686
0.502000000000000224,-2.687924690243503001
0.503000000000000336,-2.661863407895945777
0.504000000000000226,-2.635780822734038242
0.505000000000000338,-2.609686225902939416
0.506000000000000227,-2.583588670870597515
0.507000000000000339,-2.557496975666794903
0.508000000000000229,-2.531419725186558889
0.509000000000000341,-2.505365273554441163
0.510000000000000231,-2.479341746546578129
0.511000000000000343,-2.453357044067002057
0.512000000000000233,-2.427418842675246768
0.513000000000000345,-2.401534598161920719
0.514000000000000234,-2.375711548169378240
0.515000000000000346,-2.349956714854168460
0.516000000000000236,-2.324276907588623153
0.517000000000000348,-2.298678725698436676
0.518000000000000238,-2.273168561233588569
0.519000000000000350,-2.247752601769668068
0.520000000000000240,-2.222436833237025233
0.521000000000000352,-2.197227042775088179
0.522000000000000242,-2.172128821609213389
0.523000000000000353,-2.147147567947618629
0.524000000000000243,-2.122288489895926666
0.525000000000000355,-2.097556608386986543
0.526000000000000245,-2.072956760123623621
0.527000000000000357,-2.048493600532076186
0.528000000000000247,-2.024171606723994099
0.529000000000000359,-1.999995080464819663
0.530000000000000249,-1.975968151146573648
0.531000000000000361,-1.952094778763012739
0.532000000000000250,-1.928378756885297252
0.533000000000000362,-1.904823715636265291
0.534000000000000252,-1.881433124661565870
0.535000000000000364,-1.858210296095898384
0.536000000000000254,-1.835158387522774159
0.537000000000000366,-1.812280404926021049
0.538000000000000256,-1.789579205631744330
0.539000000000000368,-1.767057501239008177
0.540000000000000258,-1.744717860538047116
0.541000000000000369,-1.722562712414410058
0.542000000000000259,-1.700594348737981321
0.543000000000000371,-1.678814927235393828
0.544000000000000261,-1.657226474344797307
0.545000000000000373,-1.635830888051780674
0.546000000000000263,-1.614629940705371691
0.547000000000000375,-1.593625281813001671
0.548000000000000265,-1.572818440813656293
0.549000000000000377,-1.552210829827972205
0.550000000000000266,-1.531803746384701181
0.551000000000000378,-1.511598376122459175
0.552000000000000268,-1.491595795466103436
0.553000000000000380,-1.471796974276938119
0.554000000000000270,-1.452202778476093581
0.555000000000000382,-1.432813972640288647
0.556000000000000272,-1.413631222569581736
0.557000000000000384,-1.394655097826253076
0.558000000000000274,-1.375886074244574653
0.559000000000000385,-1.357324536410688065
0.560000000000000275,-1.338970780112366254
0.561000000000000387,-1.320825014758077121
0.562000000000000277,-1.302887365765019734
0.563000000000000389,-1.285157876915791419
0.564000000000000279,-1.267636512683349093
0.565000000000000391,-1.250323160523944432
0.566000000000000281,-1.233217633137849045
0.567000000000000393,-1.216319670697564970
0.568000000000000282,-1.199628943043407947
0.569000000000000394,-1.183145051846188345
0.570000000000000284,-1.166867532736971080
0.571000000000000396,-1.150795857403687616
0.572000000000000286,-1.134929435654632668
0.573000000000000398,-1.119267617448626906
0.574000000000000288,-1.103809694891966675
0.575000000000000400,-1.088554904202041484
0.576000000000000290,-1.073502427637670342
0.577000000000000401,-1.058651395396150274
0.578000000000000291,-1.044000887477097184
0.579000000000000403,-1.029549935513138115
0.580000000000000293,-1.015297524567536858
0.581000000000000405,-1.001242594898821059
0.582000000000000295,-0.987384043692638436
0.583000000000000407,-0.973720726760841315
0.584000000000000297,-0.960251460208046526
0.585000000000000409,-0.946975022065825955
0.586000000000000298,-0.933890153894676445
0.587000000000000410,-0.920995562354003816
0.588000000000000300,-0.908289920740317003
0.589000000000000412,-0.895771870493818456
0.590000000000000302,-0.883440022673690928
0.591000000000000414,-0.871292959402294342
0.592000000000000304,-0.859329235278504688
0.593000000000000416,-0.847547378760468262
0.594000000000000306,-0.835945893518115546
0.595000000000000417,-0.824523259755588711
0.596000000000000307,-0.813277935503988636
0.597000000000000419,-0.802208357884687695
0.598000000000000309,-0.791312944343530278
0.599000000000000421,-0.780590093856193379
0.600000000000000311,-0.770038188105115373
0.601000000000000423,-0.759655592628207810
0.602000000000000313,-0.749440657939786092
0.603000000000000425,-0.739391720623936544
0.604000000000000314,-0.729507104400822781
0.605000000000000426,-0.719785121166072073
0.606000000000000316,-0.710224072003769802
0.607000000000000428,-0.700822248173302631
0.608000000000000318,-0.691577932070465584
0.609000000000000430,-0.682489398163118155
0.610000000000000320,-0.673554913901852181
0.611000000000000432,-0.664772740605912960
0.612000000000000322,-0.656141134324830899
0.613000000000000433,-0.647658346676077579
0.614000000000000323,-0.639322625659119348
0.615000000000000435,-0.631132216446247174
0.616000000000000325,-0.623085362150526234
0.617000000000000437,-0.615180304571232739
0.618000000000000327,-0.607415284917194986
0.619000000000000439,-0.599788544508294441
0.620000000000000329,-0.592298325455608010
0.621000000000000441,-0.584942871320500157
0.622000000000000330,-0.577720427752998700
0.623000000000000442,-0.570629243109893602
0.624000000000000332,-0.563667569052837214
0.625000000000000444,-0.556833661126870050
0.626000000000000334,-0.550125779319690089
0.627000000000000446,-0.543542188602026632
0.628000000000000336,-0.537081159449488199
0.629000000000000448,-0.530740968346224751
0.630000000000000338,-0.524519898270744633
0.631000000000000449,-0.518416239164257830
0.632000000000000339,-0.512428288381847397
0.633000000000000451,-0.506554351126864533
0.634000000000000341,-0.500792740868830522
0.635000000000000453,-0.495141779745237209
0.636000000000000343,-0.489599798947515819
0.637000000000000455,-0.484165139091551455
0.638000000000000345,-0.478836150573075880
0.639000000000000457,-0.473611193908186290
0.640000000000000346,-0.468488640059429085
0.641000000000000458,-0.463466870747632320
0.642000000000000348,-0.458544278749929646
0.643000000000000460,-0.453719268184173519
0.644000000000000350,-0.448990254780111731
0.645000000000000462,-0.444355666137609795
0.646000000000000352,-0.439813941972216405
0.647000000000000464,-0.435363534348341463
0.648000000000000353,-0.431002907900420063
0.649000000000000465,-0.426730540042224604
0.650000000000000355,-0.422544921164730414
0.651000000000000467,-0.418444554822714365
0.652000000000000357,-0.414427957910455613
0.653000000000000469,-0.410493660826714291
0.654000000000000359,-0.406640207629343720
0.655000000000000471,-0.402866156179722157
0.656000000000000361,-0.399170078277342744
0.657000000000000473,-0.395550559784729472
0.658000000000000362,-0.392006200743027722
0.659000000000000474,-0.388535615478424079
0.660000000000000364,-0.385137432699720006
0.661000000000000476,-0.381810295587233228
0.662000000000000366,-0.378552861873309721
0.663000000000000478,-0.375363803914666283
