# TiO2-ana-101_CS-4481813-AC
# h[nm],U(h)[kJ/mol]
0.149999999999999994,61.686050874458452142
0.150999999999999995,60.431675079249806970
0.151999999999999996,59.783635811447709330
0.152999999999999997,59.249554021306153118
0.153999999999999998,58.654789966950239943
0.154999999999999999,57.971884734165790576
0.156000000000000000,57.229375439905730616
0.157000000000000001,56.466963214673420168
0.158000000000000002,55.716585143773144750
0.159000000000000002,54.997051468633046056
0.160000000000000003,54.315055429155698619
0.161000000000000004,53.668561837624054078
0.162000000000000005,53.050516602738142069
0.163000000000000006,52.451950113976295142
0.164000000000000007,51.864174618637662206
0.165000000000000008,51.280096421699759901
0.166000000000000009,50.694804376277140534
0.167000000000000010,50.105636343587299564
0.168000000000000010,49.511913973777623710
0.169000000000000011,48.914502288974873068
0.170000000000000012,48.315310498857797938
0.171000000000000013,47.716812771368701362
0.172000000000000014,47.121636133901141363
0.173000000000000015,46.532238409983719407
0.174000000000000016,45.950681778572871394
0.175000000000000017,45.378496179527616050
0.176000000000000018,44.816620157183614026
0.177000000000000018,44.265403633990999310
0.178000000000000019,43.724656481493596516
0.179000000000000020,43.193727740435193141
0.180000000000000021,42.671602264015419337
0.181000000000000022,42.157003923626461983
0.182000000000000023,41.648496979610442281
0.183000000000000024,41.144579555353153921
0.184000000000000025,40.643765227892707514
0.185000000000000026,40.144650496126686789
0.186000000000000026,39.645967289824348256
0.187000000000000027,39.146620751388191195
0.188000000000000028,38.645713289038880589
0.189000000000000029,38.142556406202366759
0.190000000000000030,37.636672102382036087
0.191000000000000031,37.127785760109354385
0.192000000000000032,36.615812421794075249
0.193000000000000033,36.100838255750275607
0.194000000000000034,35.583098843210777318
0.195000000000000034,35.062955713063260532
0.196000000000000035,34.540872328388793733
0.197000000000000036,34.017390503937960489
0.198000000000000037,33.493108017581285196
0.199000000000000038,32.968657979162422578
0.200000000000000039,32.444690341858269278
0.201000000000000040,31.921855786629624419
0.202000000000000041,31.400792080415619978
0.203000000000000042,30.882112902880656691
0.204000000000000042,30.366399053354644622
0.205000000000000043,29.854191887116702020
0.206000000000000044,29.345988786010412497
0.207000000000000045,28.842240440048151129
0.208000000000000046,28.343349701657096773
0.209000000000000047,27.849671770129827308
0.210000000000000048,27.361515468427860753
0.211000000000000049,26.879145385716629590
0.212000000000000050,26.402784675091499622
0.213000000000000050,25.932618315338817894
0.214000000000000051,25.468796666951924124
0.215000000000000052,25.011439174910869099
0.216000000000000053,24.560638093064969922
0.217000000000000054,24.116462126650652920
0.218000000000000055,23.678959910021898594
0.219000000000000056,23.248163255701573604
0.220000000000000057,22.824090128136255373
0.221000000000000058,22.406747310918994742
0.222000000000000058,21.996132749674607965
0.223000000000000059,21.592237564297299457
0.224000000000000060,21.195047733851222205
0.225000000000000061,20.804545465294232542
0.226000000000000062,20.420710263393079487
0.227000000000000063,20.043519723910634411
0.228000000000000064,19.672950075520212465
0.229000000000000065,19.308976498097084828
0.230000000000000066,18.951573246213932578
0.231000000000000066,18.600713606975812553
0.232000000000000067,18.256369720918645072
0.233000000000000068,17.918512293696757354
0.234000000000000069,17.587110224823625515
0.235000000000000070,17.262130177916780838
0.236000000000000071,16.943536114832554063
0.237000000000000072,16.631288813843227103
0.238000000000000073,16.325345389685981701
0.239000000000000073,16.025658830960729517
0.240000000000000074,15.732177568025623060
0.241000000000000075,15.444845082278883197
0.242000000000000076,15.163599565556571847
0.243000000000000077,14.888373636344642392
0.244000000000000078,14.619094117619757967
0.245000000000000079,14.355681879409312174
0.246000000000000080,14.098051747605904183
0.247000000000000081,13.846112479186928113
0.248000000000000081,13.599766802777372376
0.249000000000000082,13.358911522448755349
0.250000000000000111,13.123437681763906681
0.251000000000000112,12.893230784348229889
0.252000000000000113,12.668171066683457937
0.253000000000000114,12.448133818370402892
0.254000000000000115,12.232989744780393693
0.255000000000000115,12.022605366800895865
0.256000000000000116,11.816843452266935444
0.257000000000000117,11.615563473645268644
0.258000000000000118,11.418622086591954101
0.259000000000000119,11.225873624124798056
0.260000000000000120,11.037170601330059228
0.261000000000000121,10.852364225748976523
0.262000000000000122,10.671304908853857185
0.263000000000000123,10.493842774318741462
0.264000000000000123,10.319828159107544252
0.265000000000000124,10.149112103736854351
0.266000000000000125,9.981546828414927575
0.267000000000000126,9.816986192107460596
0.268000000000000127,9.655286131929454285
0.269000000000000128,9.496305080607623239
0.270000000000000129,9.339904360094513081
0.271000000000000130,9.185948549742088076
0.272000000000000131,9.034305827755584772
0.273000000000000131,8.884848284946730956
0.274000000000000132,8.737452210086669169
0.275000000000000133,8.591998346422521138
0.276000000000000134,8.448372119166387861
0.277000000000000135,8.306463833991401202
0.278000000000000136,8.166168846775580192
0.279000000000000137,8.027387705021144626
0.280000000000000138,7.890026261544813124
0.281000000000000139,7.753995761183328561
0.282000000000000139,7.619212901389175840
0.283000000000000140,7.485599867704483934
0.284000000000000141,7.353084345197399507
0.285000000000000142,7.221599507025240783
0.286000000000000143,7.091083981353994758
0.287000000000000144,6.961481797914574443
0.288000000000000145,6.832742315513877784
0.289000000000000146,6.704820131844388520
0.290000000000000147,6.577674976949930752
0.291000000000000147,6.451271591709482500
0.292000000000000148,6.325579592695135034
0.293000000000000149,6.200573324746860848
0.294000000000000150,6.076231702585014993
0.295000000000000151,5.952538042753838354
0.296000000000000152,5.829479887155062379
0.297000000000000153,5.707048819392219308
0.298000000000000154,5.585240275102699492
0.299000000000000155,5.464053347408116323
0.300000000000000155,5.343490588563602373
0.301000000000000156,5.223557808834716099
0.302000000000000157,5.104263873576515564
0.303000000000000158,4.985620499434473274
0.304000000000000159,4.867642050530621489
0.305000000000000160,4.750345335442144545
0.306000000000000161,4.633749405723163406
0.307000000000000162,4.517875356664424302
0.308000000000000163,4.402746130930259127
0.309000000000000163,4.288386325657757681
0.310000000000000164,4.174822003549754967
0.311000000000000165,4.062080508441392013
0.312000000000000166,3.950190285769656917
0.313000000000000167,3.839180708326657143
0.314000000000000168,3.729081907630610093
0.315000000000000169,3.619924611203637621
0.316000000000000170,3.511739986002535119
0.317000000000000171,3.404559488208016127
0.318000000000000171,3.298414719539128903
0.319000000000000172,3.193337290222988845
0.320000000000000173,3.089358688715622137
0.321000000000000174,2.986510158237388524
0.322000000000000175,2.884822580156245930
0.323000000000000176,2.784326364224127381
0.324000000000000177,2.685051345645573129
0.325000000000000178,2.587026688933887986
0.326000000000000179,2.490280798487850777
0.327000000000000179,2.394841235802051216
0.328000000000000180,2.300734643205428753
0.329000000000000181,2.207986674006174432
0.330000000000000182,2.116621928906239791
0.331000000000000183,2.026663898535481678
0.332000000000000184,1.938134911943841132
0.333000000000000185,1.851056090879765748
0.334000000000000186,1.765447309674273324
0.335000000000000187,1.681327160542661403
0.336000000000000187,1.598712924109571665
0.337000000000000188,1.517620544958278472
0.338000000000000189,1.438064612000948594
0.339000000000000190,1.360058343463841801
0.340000000000000191,1.283613576279555968
0.341000000000000192,1.208740759677264576
0.342000000000000193,1.135448952761761054
0.343000000000000194,1.063745825872634443
0.344000000000000195,0.993637665516301283
0.345000000000000195,0.925129382665181077
0.346000000000000196,0.858224524221175900
0.347000000000000197,0.792925287443264959
0.348000000000000198,0.729232537142668669
0.349000000000000199,0.667145825452885366
0.350000000000000200,0.606663413986094135
0.351000000000000201,0.547782298192069805
0.352000000000000202,0.490498233740607081
0.353000000000000203,0.434805764753541879
0.354000000000000203,0.380698253717740354
0.355000000000000204,0.328167912916056403
0.356000000000000205,0.277205837218737428
0.357000000000000206,0.227802038083496861
0.358000000000000207,0.179945478618486615
0.359000000000000208,0.133624109568010463
0.360000000000000209,0.088824906086869368
0.361000000000000210,0.045533905175160379
0.362000000000000210,0.003736243651117755
0.363000000000000211,-0.036583803454429596
0.364000000000000212,-0.075442784192694151
0.365000000000000213,-0.112858030785567373
0.366000000000000214,-0.148847620607531345
0.367000000000000215,-0.183430337154531969
0.368000000000000216,-0.216625631088084691
0.369000000000000217,-0.248453581437420606
0.370000000000000218,-0.278934857037397954
0.371000000000000218,-0.308090678274643703
0.372000000000000219,-0.335942779209566333
0.373000000000000220,-0.362513370136973545
0.374000000000000221,-0.387825100643374832
0.375000000000000222,-0.411901023214469197
0.376000000000000223,-0.434764557442087696
0.377000000000000224,-0.456439454875462558
0.378000000000000225,-0.476949764557727918
0.379000000000000226,-0.496319799284621888
0.380000000000000226,-0.514574102618663209
0.381000000000000227,-0.531737416688334630
0.382000000000000228,-0.547834650798556533
0.383000000000000229,-0.562890850875300996
0.384000000000000230,-0.576931169764106189
0.385000000000000231,-0.589980838399331353
0.386000000000000232,-0.602065137858028065
0.387000000000000233,-0.613209372309780010
0.388000000000000234,-0.623438842871135712
0.389000000000000234,-0.632778822371021343
0.390000000000000235,-0.641254531031138941
0.391000000000000236,-0.648891113063258529
0.392000000000000237,-0.655713614183309312
0.393000000000000238,-0.661746960040297538
0.394000000000000239,-0.667015935556267925
0.395000000000000240,-0.671545165171976155
0.396000000000000241,-0.675359093991332204
0.397000000000000242,-0.678481969816267849
0.398000000000000242,-0.680937826062444906
0.399000000000000243,-0.682750465544881502
0.400000000000000244,-0.683943445121593441
0.401000000000000245,-0.684540061182268955
0.402000000000000246,-0.684563335968024989
0.403000000000000247,-0.684036004707569534
0.404000000000000248,-0.682980503554235119
0.405000000000000249,-0.681418958307719813
0.406000000000000250,-0.679373173903749072
0.407000000000000250,-0.676864624654365810
0.408000000000000251,-0.673914445221073688
0.409000000000000252,-0.670543422302654402
0.410000000000000253,-0.666771987019180279
0.411000000000000254,-0.662620207973421138
0.412000000000000255,-0.658107784970633602
0.413000000000000256,-0.653254043377598959
0.414000000000000257,-0.648077929101532613
0.415000000000000258,-0.642598004169578796
0.416000000000000258,-0.636832442889392114
0.417000000000000259,-0.630799028571462750
0.418000000000000260,-0.624515150793779616
0.419000000000000261,-0.617997803189573203
0.420000000000000262,-0.611263581738931472
0.421000000000000263,-0.604328683545289791
0.422000000000000264,-0.597208906077895008
0.423000000000000265,-0.589919646861569169
0.424000000000000266,-0.582475903595374711
0.425000000000000266,-0.574892274681862991
0.426000000000000267,-0.567182960149060222
0.427000000000000268,-0.559361762947422347
0.428000000000000269,-0.551442090604416735
0.429000000000000270,-0.543436957219667116
0.430000000000000271,-0.535358985783841446
0.431000000000000272,-0.527220410804940753
0.432000000000000273,-0.519033081225837578
0.433000000000000274,-0.510808463617382302
0.434000000000000274,-0.502557645631680150
0.435000000000000275,-0.494291339700539401
0.436000000000000276,-0.486019886964488002
0.437000000000000277,-0.477753261418042474
0.438000000000000278,-0.469501074257403062
0.439000000000000279,-0.461272578417063595
0.440000000000000280,-0.453076673282200915
0.441000000000000281,-0.444921909564123641
0.442000000000000282,-0.436816494326457749
0.443000000000000282,-0.428768296150039308
0.444000000000000283,-0.420784850425001467
0.445000000000000284,-0.412873364758785943
0.446000000000000285,-0.405040724489265869
0.447000000000000286,-0.397293498292554559
0.448000000000000287,-0.389637943875338510
0.449000000000000288,-0.382080013742085112
0.450000000000000289,-0.374625361027691617
0.451000000000000290,-0.367279345386606781
0.452000000000000290,-0.360047038929756424
0.453000000000000291,-0.352933232200937474
0.454000000000000292,-0.345942440184728195
0.455000000000000293,-0.339078908338248441
0.456000000000000294,-0.332346618639462132
0.457000000000000295,-0.325749295645033077
0.458000000000000296,-0.319290412551015756
0.459000000000000297,-0.312973197250047797
0.460000000000000298,-0.306800638378914858
0.461000000000000298,-0.300775491350757318
0.462000000000000299,-0.294900284366372556
0.463000000000000300,-0.289177324399404190
0.464000000000000301,-0.283608703150484254
0.465000000000000302,-0.278196302965634357
0.466000000000000303,-0.272941802714471382
0.467000000000000304,-0.267846683624090587
0.468000000000000305,-0.262912235064639677
0.469000000000000306,-0.258139560282909741
0.470000000000000306,-0.253529582080491367
0.471000000000000307,-0.249083048433186072
0.472000000000000308,-0.244800538048699667
0.473000000000000309,-0.240682465859764078
0.474000000000000310,-0.236729088450055331
0.475000000000000311,-0.232940509410480473
0.476000000000000312,-0.229316684623607270
0.477000000000000313,-0.225857427474138450
0.478000000000000314,-0.222562413983561413
0.479000000000000314,-0.219431187867260291
0.480000000000000315,-0.216463165512499611
0.481000000000000316,-0.213657640875911381
0.482000000000000317,-0.211013790299198783
0.483000000000000318,-0.208530677241966694
0.484000000000000319,-0.206207256930694527
0.485000000000000320,-0.204042380923011912
0.486000000000000321,-0.202034801586565310
0.487000000000000322,-0.200183176491885939
0.488000000000000322,-0.198486072718749601
0.489000000000000323,-0.196941971075720590
0.490000000000000324,-0.195549270232559108
0.491000000000000325,-0.194306290765369483
0.492000000000000326,-0.193211279114396339
0.493000000000000327,-0.192262411454528881
0.494000000000000328,-0.191457797478592706
0.495000000000000329,-0.190795484093649270
0.496000000000000330,-0.190273459030557007
0.497000000000000330,-0.189889654367178945
0.498000000000000331,-0.189641949965587225
0.499000000000000332,-0.189528176823830774
0.500000000000000333,-0.189546120342762858
0.501000000000000334,-0.189693523508520229
0.502000000000000335,-0.189968089991376543
0.503000000000000336,-0.190367487161613641
0.504000000000000337,-0.190889349023222354
0.505000000000000338,-0.191531279066206983
0.506000000000000338,-0.192290853038367432
0.507000000000000339,-0.193165621637423762
0.508000000000000340,-0.194153113124414634
0.509000000000000341,-0.195250835859355792
0.510000000000000342,-0.196456280760087310
0.511000000000000343,-0.197766923685399665
0.512000000000000344,-0.199180227743418176
0.513000000000000345,-0.200693645526349218
0.514000000000000346,-0.202304621272687946
0.515000000000000346,-0.204010592957946824
0.516000000000000347,-0.205808994315078125
0.517000000000000348,-0.207697256785720624
0.518000000000000349,-0.209672811403399051
0.519000000000000350,-0.211733090609877495
0.520000000000000351,-0.213875530005814080
0.521000000000000352,-0.216097570036924813
0.522000000000000353,-0.218396657616819478
0.523000000000000353,-0.220770247687731569
0.524000000000000354,-0.223215804720321598
0.525000000000000355,-0.225730804153769338
0.526000000000000356,-0.228312733777336602
0.527000000000000357,-0.230959095054634356
0.528000000000000358,-0.233667404391754541
0.529000000000000359,-0.236435194350509026
0.530000000000000360,-0.239260014807918864
0.531000000000000361,-0.242139434063192299
0.532000000000000361,-0.245071039893340004
0.533000000000000362,-0.248052440558627907
0.534000000000000363,-0.251081265759015182
0.535000000000000364,-0.254155167542766791
0.536000000000000365,-0.257271821168365000
0.537000000000000366,-0.260428925920890730
0.538000000000000367,-0.263624205883976503
0.539000000000000368,-0.266855410668497717
0.540000000000000369,-0.270120316099062507
0.541000000000000369,-0.273416724859450178
0.542000000000000370,-0.276742467098037737
0.543000000000000371,-0.280095400994330779
0.544000000000000372,-0.283473413287633536
0.545000000000000373,-0.286874419768916977
0.546000000000000374,-0.290296365736920747
0.547000000000000375,-0.293737226419493291
0.548000000000000376,-0.297195007361206576
0.549000000000000377,-0.300667744778195634
0.550000000000000377,-0.304153505881244290
0.551000000000000378,-0.307650389168029614
0.552000000000000379,-0.311156524685515856
0.553000000000000380,-0.314670074263396826
0.554000000000000381,-0.318189231719507304
0.555000000000000382,-0.321712223038125467
0.556000000000000383,-0.325237306522002334
0.557000000000000384,-0.328762772919045876
0.558000000000000385,-0.332286945524448374
0.559000000000000385,-0.335808180259144440
0.560000000000000386,-0.339324865725389779
0.561000000000000387,-0.342835423240273773
0.562000000000000388,-0.346338306847944921
0.563000000000000389,-0.349832003311345230
0.564000000000000390,-0.353315032084173419
0.565000000000000391,-0.356785945263853210
0.566000000000000392,-0.360243327526196810
0.567000000000000393,-0.363685796042515830
0.568000000000000393,-0.367112000379818004
0.569000000000000394,-0.370520622384822640
0.570000000000000395,-0.373910376052421056
0.571000000000000396,-0.377280007379237725
0.572000000000000397,-0.380628294202948692
0.573000000000000398,-0.383954046027925266
0.574000000000000399,-0.387256103837867571
0.575000000000000400,-0.390533339895961673
0.576000000000000401,-0.393784657533163829
0.577000000000000401,-0.397008990925175165
0.578000000000000402,-0.400205304858636812
0.579000000000000403,-0.403372594487069303
0.580000000000000404,-0.406509885077122379
0.581000000000000405,-0.409616231745568549
0.582000000000000406,-0.412690719187597199
0.583000000000000407,-0.415732461396845832
0.584000000000000408,-0.418740601377647181
0.585000000000000409,-0.421714310849951146
0.586000000000000409,-0.424652789947344178
0.587000000000000410,-0.427555266908617893
0.588000000000000411,-0.430420997763264701
0.589000000000000412,-0.433249266011355605
0.590000000000000413,-0.436039382298134437
0.591000000000000414,-0.438790684083753768
0.592000000000000415,-0.441502535308494815
0.593000000000000416,-0.444174326053839330
0.594000000000000417,-0.446805472199729548
0.595000000000000417,-0.449395415078378435
0.596000000000000418,-0.451943621124903216
0.597000000000000419,-0.454449581525163571
0.598000000000000420,-0.456912811861043267
0.599000000000000421,-0.459332851753521176
0.600000000000000422,-0.461709264503786521
0.601000000000000423,-0.464041636732673290
0.602000000000000424,-0.466329578018705615
0.603000000000000425,-0.468572720534981779
0.604000000000000425,-0.470770718685151468
0.605000000000000426,-0.472923248738731927
0.606000000000000427,-0.475030008466007125
0.607000000000000428,-0.477090716772666401
0.608000000000000429,-0.479105113334511945
0.609000000000000430,-0.481072958232302228
0.610000000000000431,-0.482994031587054007
0.611000000000000432,-0.484868133195907436
0.612000000000000433,-0.486695082168768889
0.613000000000000433,-0.488474716565924616
0.614000000000000434,-0.490206893036750802
0.615000000000000435,-0.491891486459719196
