# TiO2-ana-101_WaterUCD
# h[nm],U(h)[kJ/mol]
0.200000000000000011,30.364585682679866352
0.201000000000000012,29.664457837134118989
0.202000000000000013,29.177593684144540020
0.203000000000000014,28.770937927408319013
0.204000000000000015,28.373926870878783291
0.205000000000000016,27.954585931786766650
0.206000000000000016,27.503494005324228056
0.207000000000000017,27.023303977178954938
0.208000000000000018,26.522130668094074935
0.209000000000000019,26.009582941089650632
0.210000000000000020,25.494563020769383854
0.211000000000000021,24.984212083430485052
0.212000000000000022,24.483569015722252971
0.213000000000000023,23.995645867311583999
0.214000000000000024,23.521721888472992390
0.215000000000000024,23.061727998666238904
0.216000000000000025,22.614642542577097828
0.217000000000000026,22.178852887585431830
0.218000000000000027,21.752460028014816373
0.219000000000000028,21.333518040761585866
0.220000000000000029,20.920209321684701820
0.221000000000000030,20.510961741713796158
0.222000000000000031,20.104516448893090086
0.223000000000000032,19.699955910615084775
0.224000000000000032,19.296701581439354101
0.225000000000000033,18.894489745457082819
0.226000000000000034,18.493332925796529764
0.227000000000000035,18.093472982257718940
0.228000000000000036,17.695330761969728428
0.229000000000000037,17.299456005834517924
0.230000000000000038,16.906480187502129553
0.231000000000000039,16.517074089271574167
0.232000000000000040,16.131911202109545656
0.233000000000000040,15.751637466407856891
0.234000000000000041,15.376847431937491706
0.235000000000000042,15.008066592729329969
0.236000000000000043,14.645739427578259750
0.237000000000000044,14.290222532297580216
0.238000000000000045,13.941782149793706225
0.239000000000000046,13.600595374238423574
0.240000000000000047,13.266754313708924329
0.241000000000000048,12.940272531160051273
0.242000000000000048,12.621093137796972172
0.243000000000000049,12.309097978790248362
0.244000000000000050,12.004117423247116392
0.245000000000000051,11.705940344122151231
0.246000000000000052,11.414323946107520769
0.247000000000000053,11.129003168178186911
0.248000000000000054,10.849699450817229973
0.249000000000000055,10.576128715042347750
0.250000000000000056,10.308008450697304426
0.251000000000000056,10.045063854924656255
0.252000000000000057,9.787032998429541664
0.253000000000000058,9.533671027404988507
0.254000000000000059,9.284753433274612888
0.255000000000000060,9.040078441259398190
0.256000000000000061,8.799468582776521330
0.257000000000000062,8.562771526427733093
0.258000000000000063,8.329860248423562652
0.259000000000000064,8.100632626282120441
0.260000000000000064,7.875010540067762577
0.261000000000000065,7.652938563781185977
0.262000000000000066,7.434382326217246373
0.263000000000000067,7.219326616061392698
0.264000000000000068,7.007773300540199202
0.265000000000000069,6.799739120871848286
0.266000000000000070,6.595253421328543197
0.267000000000000071,6.394355862133551227
0.268000000000000071,6.197094159843158145
0.269000000000000072,6.003521892445249364
0.270000000000000073,5.813696400249722451
0.271000000000000074,5.627676807832821204
0.272000000000000075,5.445522186885954241
0.273000000000000076,5.267289874849451436
0.274000000000000077,5.093033959704849956
0.275000000000000078,4.922803937265665120
0.276000000000000079,4.756643543743499514
0.277000000000000079,4.594589763262925786
0.278000000000000080,4.436672007337674195
0.279000000000000081,4.282911461077956616
0.280000000000000082,4.133320589048632421
0.281000000000000083,3.987902792210055392
0.282000000000000084,3.846652206217543668
0.283000000000000085,3.709553630499699217
0.284000000000000086,3.576582576948758252
0.285000000000000087,3.447705426707472043
0.286000000000000087,3.322879683396361195
0.287000000000000088,3.202054311164880041
0.288000000000000089,3.085170146142995229
0.289000000000000090,2.972160370191427425
0.290000000000000091,2.862951036276496275
0.291000000000000092,2.757461635307746128
0.292000000000000093,2.655605694855256438
0.293000000000000094,2.557291400790970837
0.294000000000000095,2.462422233559967477
0.295000000000000095,2.370897611469655608
0.296000000000000096,2.282613534076348039
0.297000000000000097,2.197463219438914539
0.298000000000000098,2.115337729690464297
0.299000000000000099,2.036126580043486456
0.300000000000000100,1.959718326986296999
0.301000000000000101,1.886001132043802597
0.302000000000000102,1.814863298060268137
0.303000000000000103,1.746193775512536961
0.304000000000000103,1.679882636877939373
0.305000000000000104,1.615821517559604903
0.306000000000000105,1.553904022313321365
0.307000000000000106,1.494026096523831226
0.308000000000000107,1.436086362044918907
0.309000000000000108,1.379986417647801833
0.310000000000000109,1.325631104416763684
0.311000000000000110,1.272928736691549600
0.312000000000000111,1.221791299383496732
0.313000000000000111,1.172134612689216038
0.314000000000000112,1.123878465392829096
0.315000000000000113,1.076946718087723687
0.316000000000000114,1.031267377762970394
0.317000000000000115,0.986772645290252326
0.318000000000000116,0.943398937415851235
0.319000000000000117,0.901086884911156738
0.320000000000000118,0.859781308565917057
0.321000000000000119,0.819431174722845990
0.322000000000000119,0.779989532052007162
0.323000000000000120,0.741413431250247390
0.324000000000000121,0.703663829326172108
0.325000000000000122,0.666705480096584258
0.326000000000000123,0.630506812477027445
0.327000000000000124,0.595039798098458639
0.328000000000000125,0.560279809725278577
0.329000000000000126,0.526205471888264054
0.330000000000000127,0.492798505080043747
0.331000000000000127,0.460043564791903115
0.332000000000000128,0.427928076599557339
0.333000000000000129,0.396442068432847128
0.334000000000000130,0.365578001090963556
0.335000000000000131,0.335330597991055690
0.336000000000000132,0.305696675064978440
0.337000000000000133,0.276674971646389656
0.338000000000000134,0.248265983119280165
0.339000000000000135,0.220471796029554079
0.340000000000000135,0.193295926293526932
0.341000000000000136,0.166743161071918056
0.342000000000000137,0.140819404814799098
0.343000000000000138,0.115531529922582712
0.344000000000000139,0.090887232410325286
0.345000000000000140,0.066894892907755105
0.346000000000000141,0.043563443275363364
0.347000000000000142,0.020902239067794520
0.348000000000000143,-0.001079061970421197
0.349000000000000143,-0.022370615234955121
0.350000000000000144,-0.042962498316093445
0.351000000000000145,-0.062844813713382158
0.352000000000000146,-0.082007785181066065
0.353000000000000147,-0.100441847706693871
0.354000000000000148,-0.118137731154483699
0.355000000000000149,-0.135086537631587511
0.356000000000000150,-0.151279812659504492
0.357000000000000151,-0.166709610254554552
0.358000000000000151,-0.181368552040733350
0.359000000000000152,-0.195249880535420695
0.360000000000000153,-0.208347506763619073
0.361000000000000154,-0.220656052369408162
0.362000000000000155,-0.232170886404727994
0.363000000000000156,-0.242888156985037185
0.364000000000000157,-0.252804818009298327
0.365000000000000158,-0.261918651148187243
0.366000000000000159,-0.270228283309214223
0.367000000000000159,-0.277733199791180274
0.368000000000000160,-0.284433753342699103
0.369000000000000161,-0.290331169340795670
0.370000000000000162,-0.295427547305804450
0.371000000000000163,-0.299725858968080794
0.372000000000000164,-0.303229943100419397
0.373000000000000165,-0.305944497327756859
0.374000000000000166,-0.307875067122664825
0.375000000000000167,-0.309028032191408397
0.376000000000000167,-0.309410590451206613
0.377000000000000168,-0.309030739794523057
0.378000000000000169,-0.307897257831098947
0.379000000000000170,-0.306019679792960297
0.380000000000000171,-0.303408274781761744
0.381000000000000172,-0.300074020531779673
0.382000000000000173,-0.296028576855563164
0.383000000000000174,-0.291284257932826973
0.384000000000000175,-0.285854003596533013
0.385000000000000175,-0.279751349763484758
0.386000000000000176,-0.272990398150039226
0.387000000000000177,-0.265585785406735497
0.388000000000000178,-0.257552651799018872
0.389000000000000179,-0.248906609554400277
0.390000000000000180,-0.239663710989886758
0.391000000000000181,-0.229840416526846475
0.392000000000000182,-0.219453562694096466
0.393000000000000183,-0.208520330213578575
0.394000000000000183,-0.197058212256844140
0.395000000000000184,-0.185084982954458022
0.396000000000000185,-0.172618666234508444
0.397000000000000186,-0.159677505060703717
0.398000000000000187,-0.146279931134919133
0.399000000000000188,-0.132444535123675239
0.400000000000000189,-0.118190037462833256
0.401000000000000190,-0.103535259789730466
0.402000000000000191,-0.088499097047228095
0.403000000000000191,-0.073100490299406323
0.404000000000000192,-0.057358400294306014
0.405000000000000193,-0.041291781804805618
0.406000000000000194,-0.024919558774703376
0.407000000000000195,-0.008260600293255104
0.408000000000000196,0.008666302582321395
0.409000000000000197,0.025842459140241636
0.410000000000000198,0.043249300450636172
0.411000000000000199,0.060868399915422013
0.412000000000000199,0.078681492924742955
0.413000000000000200,0.096670495615912816
0.414000000000000201,0.114817522733360072
0.415000000000000202,0.133104904590505863
0.416000000000000203,0.151515203136665166
0.417000000000000204,0.170031227134250285
0.418000000000000205,0.188636046453383693
0.419000000000000206,0.207313005492862523
0.420000000000000207,0.226045735738083620
0.421000000000000207,0.244818167467935055
0.422000000000000208,0.263614540624197979
0.423000000000000209,0.282419414858072926
0.424000000000000210,0.301217678769716168
0.425000000000000211,0.319994558357614090
0.426000000000000212,0.338735624695532589
0.427000000000000213,0.357426800855619065
0.428000000000000214,0.376054368096872260
0.429000000000000214,0.394604971338878896
0.430000000000000215,0.413065623941184845
0.431000000000000216,0.431423711809087951
0.432000000000000217,0.449666996847082945
0.433000000000000218,0.467783619781370619
0.434000000000000219,0.485762102373112792
0.435000000000000220,0.503591349044245185
0.436000000000000221,0.521260647937747512
0.437000000000000222,0.538759671434304144
0.438000000000000222,0.556078476147237155
0.439000000000000223,0.573207502417543702
0.440000000000000224,0.590137573330736465
0.441000000000000225,0.606859893277039042
0.442000000000000226,0.623366046076218261
0.443000000000000227,0.639647992688204381
0.444000000000000228,0.655698068530265465
0.445000000000000229,0.671508980421277601
0.446000000000000230,0.687073803173260389
0.447000000000000230,0.702385975849998845
0.448000000000000231,0.717439297712210489
0.449000000000000232,0.732227923868306596
0.450000000000000233,0.746746360649365615
0.451000000000000234,0.760989460726553490
0.452000000000000235,0.774952417988718945
0.453000000000000236,0.788630762197511048
0.454000000000000237,0.802020353436817324
0.455000000000000238,0.815117376372937463
0.456000000000000238,0.827918334341351647
0.457000000000000239,0.840420043275528217
0.458000000000000240,0.852619625492653244
0.459000000000000241,0.864514503350779728
0.460000000000000242,0.876102392791280438
0.461000000000000243,0.887381296780128559
0.462000000000000244,0.898349498660920398
0.463000000000000245,0.909005555432206180
0.464000000000000246,0.919348290961066517
0.465000000000000246,0.929376789144519266
0.466000000000000247,0.939090387029802187
0.467000000000000248,0.948488667904143767
0.468000000000000249,0.957571454364138930
0.469000000000000250,0.966338801374443390
0.470000000000000251,0.974790989325007962
0.471000000000000252,0.982928517095685073
0.472000000000000253,0.990752095136544830
0.473000000000000254,0.998262638571897121
0.474000000000000254,1.005461260335542617
0.475000000000000255,1.012349264344400535
0.476000000000000256,1.018928138717271281
0.477000000000000257,1.025199549045088920
0.478000000000000258,1.031165331718671307
0.479000000000000259,1.036827487319593510
0.480000000000000260,1.042188174079463625
0.481000000000000261,1.047249701412546141
0.482000000000000262,1.052014523526320300
0.483000000000000262,1.056485233114265121
0.484000000000000263,1.060664555134845699
0.485000000000000264,1.064555340680352291
0.486000000000000265,1.068160560938977266
0.487000000000000266,1.071483301253222553
0.488000000000000267,1.074526755277456003
0.489000000000000268,1.077294219237168837
0.490000000000000269,1.079789086292260780
0.491000000000000270,1.082014841006387229
0.492000000000000270,1.083975053924231213
0.493000000000000271,1.085673376258273537
0.494000000000000272,1.087113534686487304
0.495000000000000273,1.088299326262114342
0.496000000000000274,1.089234613436525612
0.497000000000000275,1.089923319195981621
0.498000000000000276,1.090369422312878811
0.499000000000000277,1.090576952711973524
0.500000000000000222,1.090549986951846018
0.501000000000000334,1.090292643821747287
0.502000000000000224,1.089809080053811607
0.503000000000000336,1.089103486150481581
0.504000000000000226,1.088180082326865250
0.505000000000000338,1.087043114567603608
0.506000000000000227,1.085696850797722268
0.507000000000000339,1.084145577166832908
0.508000000000000229,1.082393594445929974
0.509000000000000341,1.080445214535938891
0.510000000000000231,1.078304757087077181
0.511000000000000343,1.075976546228004871
0.512000000000000233,1.073464907403669955
0.513000000000000345,1.070774164320642097
0.514000000000000234,1.067908635998705558
0.515000000000000346,1.064872633927389511
0.516000000000000236,1.061670459326061966
0.517000000000000348,1.058306400506138889
0.518000000000000238,1.054784730333965914
0.519000000000000350,1.051109703792790118
0.520000000000000240,1.047285555642314847
0.521000000000000352,1.043316498174164719
0.522000000000000242,1.039206719061686046
0.523000000000000353,1.034960379302343414
0.524000000000000243,1.030581611251082386
0.525000000000000355,1.026074516742871534
0.526000000000000245,1.021443165302742262
0.527000000000000357,1.016691592441516967
0.528000000000000247,1.011823798035493160
0.529000000000000359,1.006843744788277650
0.530000000000000249,1.001755356772989547
0.531000000000000361,0.996562518053027757
0.532000000000000250,0.991269071379617173
0.533000000000000362,0.985878816964307902
0.534000000000000252,0.980395511324670510
0.535000000000000364,0.974822866201323857
0.536000000000000254,0.969164547544583477
0.537000000000000366,0.963424174568877745
0.538000000000000256,0.957605318873202549
0.539000000000000368,0.951711503625819910
0.540000000000000258,0.945746202811471370
0.541000000000000369,0.939712840539339234
0.542000000000000259,0.933614790410066675
0.543000000000000371,0.927455374940086563
0.544000000000000261,0.921237865041603099
0.545000000000000373,0.914965479556524186
0.546000000000000263,0.908641384842723498
0.547000000000000375,0.902268694410946592
0.548000000000000265,0.895850468610815631
0.549000000000000377,0.889389714364267392
0.550000000000000266,0.882889384944928857
0.551000000000000378,0.876352379801812353
0.552000000000000268,0.869781544425876851
0.553000000000000380,0.863179670257896658
0.554000000000000270,0.856549494636213993
0.555000000000000382,0.849893700782886397
0.556000000000000272,0.843214917826840327
0.557000000000000384,0.836515720862608725
0.558000000000000274,0.829798631043297319
0.559000000000000385,0.823066115706422963
0.560000000000000275,0.816320588531322500
0.561000000000000387,0.809564409726814205
0.562000000000000277,0.802799886247886341
0.563000000000000389,0.796029272040123415
0.564000000000000279,0.789254768310713173
0.565000000000000391,0.782478523824799210
0.566000000000000281,0.775702635226069748
0.567000000000000393,0.768929147380404188
0.568000000000000282,0.762160053741512633
0.569000000000000394,0.755397296737456370
0.570000000000000284,0.748642768177042450
0.571000000000000396,0.741898309675002032
0.572000000000000286,0.735165713095019324
0.573000000000000398,0.728446721009589848
0.574000000000000288,0.721743027175792973
0.575000000000000400,0.715056277026014708
0.576000000000000290,0.708388068172784213
0.577000000000000401,0.701739950926774991
0.578000000000000291,0.695113428827193847
0.579000000000000403,0.688509959183679077
0.580000000000000293,0.681930953628951619
0.581000000000000405,0.675377778681386376
0.582000000000000295,0.668851756316826140
0.583000000000000407,0.662354164548819790
0.584000000000000297,0.655886238016665235
0.585000000000000409,0.649449168580481961
0.586000000000000298,0.643044105922740972
0.587000000000000410,0.636672158155515922
0.588000000000000300,0.630334392432922774
0.589000000000000412,0.624031835568067739
0.590000000000000302,0.617765474653997337
0.591000000000000414,0.611536257688011009
0.592000000000000304,0.605345094198879163
0.593000000000000416,0.599192855876372610
0.594000000000000306,0.593080377202649944
0.595000000000000417,0.587008456084982422
0.596000000000000307,0.580977854489395207
0.597000000000000419,0.574989299074719962
0.598000000000000309,0.569043481826670972
0.599000000000000421,0.563141060691523254
0.600000000000000311,0.557282660208977321
0.601000000000000423,0.551468872143838551
0.602000000000000313,0.545700256116165461
0.603000000000000425,0.539977340229495617
0.604000000000000314,0.534300621696857103
0.605000000000000426,0.528670567464209151
0.606000000000000316,0.523087614831039049
0.607000000000000428,0.517552172067789029
0.608000000000000318,0.512064619029869883
0.609000000000000430,0.506625307767958111
0.610000000000000320,0.501234563134370203
0.611000000000000432,0.495892683385219524
0.612000000000000322,0.490599940778188248
0.613000000000000433,0.485356582165644201
0.614000000000000323,0.480162829582937434
0.615000000000000435,0.475018880831657886
0.616000000000000325,0.469924910057701428
0.617000000000000437,0.464881068323933389
0.618000000000000327,0.459887484177328776
0.619000000000000439,0.454944264210412452
0.620000000000000329,0.450051493616867582
0.621000000000000441,0.445209236741176073
0.622000000000000330,0.440417537622181166
0.623000000000000442,0.435676420530428377
0.624000000000000332,0.430985890499228919
0.625000000000000444,0.426345933849285708
0.626000000000000334,0.421756518706856376
0.627000000000000446,0.417217595515317563
0.628000000000000336,0.412729097540098011
0.629000000000000448,0.408290941366881932
0.630000000000000338,0.403903027393055614
0.631000000000000449,0.399565240312299674
0.632000000000000339,0.395277449592336294
0.633000000000000451,0.391039509945734609
0.634000000000000341,0.386851261793791812
0.635000000000000453,0.382712531723406246
0.636000000000000343,0.378623132936986795
0.637000000000000455,0.374582865695304745
0.638000000000000345,0.370591517753350363
0.639000000000000457,0.366648864789121842
0.640000000000000346,0.362754670825398473
0.641000000000000458,0.358908688644451634
0.642000000000000348,0.355110660195744776
0.643000000000000460,0.351360316996590760
0.644000000000000350,0.347657380525821180
0.645000000000000462,0.344001562610446787
0.646000000000000352,0.340392565805370750
0.647000000000000464,0.336830083766137711
0.648000000000000353,0.333313801614793959
0.649000000000000465,0.329843396298841518
0.650000000000000355,0.326418536943370530
0.651000000000000467,0.323038885196365644
0.652000000000000357,0.319704095567254820
0.653000000000000469,0.316413815758730566
0.654000000000000359,0.313167686991896566
0.655000000000000471,0.309965344324779957
0.656000000000000361,0.306806416964272743
0.657000000000000473,0.303690528571535334
0.658000000000000362,0.300617297560938912
0.659000000000000474,0.297586337392585221
0.660000000000000364,0.294597256858475320
0.661000000000000476,0.291649660362369167
0.662000000000000366,0.288743148193425447
0.663000000000000478,0.285877316793651581
0.664000000000000368,0.283051759019259108
0.665000000000000480,0.280266064395960524
0.666000000000000369,0.277519819368302445
0.667000000000000481,0.274812607543076959
0.668000000000000371,0.272144009926903852
0.669000000000000483,0.269513605158027858
0.670000000000000373,0.266920969732424962
0.671000000000000485,0.264365678224273259
