# TiO2-ana-101_METHANAL-AC
# h[nm],U(h)[kJ/mol]
0.149999999999999994,51.240917681948566553
0.150999999999999995,50.077193213575199593
0.151999999999999996,49.383008147392224885
0.152999999999999997,48.758883051409547704
0.153999999999999998,48.073278046632260896
0.154999999999999999,47.314467753458309573
0.156000000000000000,46.513055610552676455
0.157000000000000001,45.705112699688712041
0.158000000000000002,44.917567503715446264
0.159000000000000002,44.164914824237364144
0.160000000000000003,43.450984554616596256
0.161000000000000004,42.772378991055333586
0.162000000000000005,42.121896440503135750
0.163000000000000006,41.491236820589008971
0.164000000000000007,40.872811938417171973
0.165000000000000008,40.260740161766349843
0.166000000000000009,39.651207148484715503
0.167000000000000010,39.042392525197492148
0.168000000000000010,38.434139942974610449
0.169000000000000011,37.827509718261438820
0.170000000000000012,37.224312885166966680
0.171000000000000013,36.626689623246640792
0.172000000000000014,36.036766313164790176
0.173000000000000015,35.456404294699282786
0.174000000000000016,34.887039008958112163
0.175000000000000017,34.329599382392608220
0.176000000000000018,33.784492744275951281
0.177000000000000018,33.251639054609810842
0.178000000000000019,32.730538738268428745
0.179000000000000020,32.220360169010561435
0.180000000000000021,31.720035221759950161
0.181000000000000022,31.228353887006313983
0.182000000000000023,30.744051434405776035
0.183000000000000024,30.265883851999138443
0.184000000000000025,29.792689183748233717
0.185000000000000026,29.323433910441430328
0.186000000000000026,28.857244675487322638
0.187000000000000027,28.393426479755561331
0.188000000000000028,27.931469003461437239
0.189000000000000029,27.471043008289704801
0.190000000000000030,27.011988879519286399
0.191000000000000031,26.554299332358034746
0.192000000000000032,26.098098170144957919
0.193000000000000033,25.643616779399383887
0.194000000000000034,25.191169806368321815
0.195000000000000034,24.741131204129793275
0.196000000000000035,24.293911585337578884
0.197000000000000036,23.849937575445515847
0.198000000000000037,23.409633642819724031
0.199000000000000038,22.973406690367699667
0.200000000000000039,22.541633530452934053
0.201000000000000040,22.114651231240678442
0.202000000000000041,21.692750217143206726
0.203000000000000042,21.276169926633937024
0.204000000000000042,20.865096774702994509
0.205000000000000043,20.459664131632163020
0.206000000000000044,20.059954011462696855
0.207000000000000045,19.666000159462686980
0.208000000000000046,19.277792235181671288
0.209000000000000047,18.895280803663752067
0.210000000000000048,18.518382869716816685
0.211000000000000049,18.146987716752445152
0.212000000000000050,17.780962840872540198
0.213000000000000050,17.420159801142123257
0.214000000000000051,17.064419837183606887
0.215000000000000052,16.713579134446391095
0.216000000000000053,16.367473645059437359
0.217000000000000054,16.025943397575154847
0.218000000000000055,15.688836251839285651
0.219000000000000056,15.356011075493636753
0.220000000000000057,15.027340336168787616
0.221000000000000058,14.702712118281226594
0.222000000000000058,14.382031585605551172
0.223000000000000059,14.065221920600304628
0.224000000000000060,13.752224779007690358
0.225000000000000061,13.443000303734995882
0.226000000000000062,13.137526745679062756
0.227000000000000063,12.835799741203103963
0.228000000000000064,12.537831296640375101
0.229000000000000065,12.243648529697766847
0.230000000000000066,11.953292216168875939
0.231000000000000066,11.666815188129106673
0.232000000000000067,11.384280626948539705
0.233000000000000068,11.105760291176277832
0.234000000000000069,10.831332715761703867
0.235000000000000070,10.561081415302398412
0.236000000000000071,10.295093120150569987
0.237000000000000072,10.033456070354663581
0.238000000000000073,9.776258388635143959
0.239000000000000073,9.523586549950476154
0.240000000000000074,9.275523961746651835
0.241000000000000075,9.032149665738415933
0.242000000000000076,8.793537169065119841
0.243000000000000077,8.559753409917417954
0.244000000000000078,8.330857860250842961
0.245000000000000079,8.106901765992081010
0.246000000000000080,7.887927523201154756
0.247000000000000081,7.673968186970602012
0.248000000000000081,7.465047108411918764
0.249000000000000082,7.261177693886788020
0.250000000000000111,7.062363279671342475
0.251000000000000112,6.868597114480351706
0.252000000000000113,6.679862441706970522
0.253000000000000114,6.496132672836678168
0.254000000000000115,6.317371643252122304
0.255000000000000115,6.143533941543007693
0.256000000000000116,5.974565303454355103
0.257000000000000117,5.810403061731567398
0.258000000000000118,5.650976643336851346
0.259000000000000119,5.496208105803519040
0.260000000000000120,5.346012704849776753
0.261000000000000121,5.200299485779407149
0.262000000000000122,5.058971891641469654
0.263000000000000123,4.921928381595250812
0.264000000000000123,4.789063053420236749
0.265000000000000124,4.660266264616350185
0.266000000000000125,4.535425247049342801
0.267000000000000126,4.414424710604095026
0.268000000000000127,4.297147431808897799
0.269000000000000128,4.183474823882482596
0.270000000000000129,4.073287485128134655
0.271000000000000130,3.966465723052920112
0.272000000000000131,3.862890052022321274
0.273000000000000131,3.762441662669280706
0.274000000000000132,3.665002861660472178
0.275000000000000133,3.570457480780588444
0.276000000000000134,3.478691254626856910
0.277000000000000135,3.389592166510951188
0.278000000000000136,3.303050762443525912
0.279000000000000137,3.218960433328697412
0.280000000000000138,3.137217665722201509
0.281000000000000139,3.057722261708348821
0.282000000000000139,2.980377528628497252
0.283000000000000140,2.905090439548398074
0.284000000000000141,2.831771765484631054
0.285000000000000142,2.760336180522649840
0.286000000000000143,2.690702341051942614
0.287000000000000144,2.622792940418949392
0.288000000000000145,2.556534740356418922
0.289000000000000146,2.491858580591068684
0.290000000000000147,2.428699368059853203
0.291000000000000147,2.366996047181252116
0.292000000000000148,2.306691552631986664
0.293000000000000149,2.247732746073437760
0.294000000000000150,2.190070338256352223
0.295000000000000151,2.133658797908510429
0.296000000000000152,2.078456248778937976
0.297000000000000153,2.024424356174821860
0.298000000000000154,1.971528204284490382
0.299000000000000155,1.919736165532578642
0.300000000000000155,1.869019763162415471
0.301000000000000156,1.819353528186766766
0.302000000000000157,1.770714851791570066
0.303000000000000158,1.723083834219450994
0.304000000000000159,1.676443131100416206
0.305000000000000160,1.630777798137464485
0.306000000000000161,1.586075134994723301
0.307000000000000162,1.542324529175950865
0.308000000000000163,1.499517300622101645
0.309000000000000163,1.457646547698288719
0.310000000000000164,1.416706995183386386
0.311000000000000165,1.376694844819888131
0.312000000000000166,1.337607628927519610
0.313000000000000167,1.299444067531920100
0.314000000000000168,1.262203929409418279
0.315000000000000169,1.225887897400705917
0.316000000000000170,1.190497438300111677
0.317000000000000171,1.156034677583419157
0.318000000000000171,1.122502279195533692
0.319000000000000172,1.089903330580022756
0.320000000000000173,1.058241233095618572
0.321000000000000174,1.027519597930073747
0.322000000000000175,0.997742147589321116
0.323000000000000176,0.968912623009791196
0.324000000000000177,0.941034696313723940
0.325000000000000178,0.914111889201617345
0.326000000000000179,0.888147496952074844
0.327000000000000179,0.863144517977852743
0.328000000000000180,0.839105588867071206
0.329000000000000181,0.816032924820710881
0.330000000000000182,0.793928265381667941
0.331000000000000183,0.772792825336148681
0.332000000000000184,0.752627250655749869
0.333000000000000185,0.733431579337391448
0.334000000000000186,0.715205206988749786
0.335000000000000187,0.697946856998646226
0.336000000000000187,0.681654555124978079
0.337000000000000188,0.666325608327220875
0.338000000000000189,0.651956587665989185
0.339000000000000190,0.638543315088796692
0.340000000000000191,0.626080853918833946
0.341000000000000192,0.614563502862005118
0.342000000000000193,0.603984793347006610
0.343000000000000194,0.594337490013278069
0.344000000000000195,0.585613594162749052
0.345000000000000195,0.577804349992630972
0.346000000000000196,0.570900253428898496
0.347000000000000197,0.564891063382632841
0.348000000000000198,0.559765815254636978
0.349000000000000199,0.555512836517338626
0.350000000000000200,0.552119764206923658
0.351000000000000201,0.549573564162997519
0.352000000000000202,0.547860551857646816
0.353000000000000203,0.546966414660560729
0.354000000000000203,0.546876235391971388
0.355000000000000204,0.547574517020349094
0.356000000000000205,0.549045208367106463
0.357000000000000206,0.551271730685991113
0.358000000000000207,0.554237004990461246
0.359000000000000208,0.557923480007733730
0.360000000000000209,0.562313160643892807
0.361000000000000210,0.567387636849990384
0.362000000000000210,0.573128112784600630
0.363000000000000211,0.579515436173836940
0.364000000000000212,0.586530127775256593
0.365000000000000213,0.594152410857502034
0.366000000000000214,0.602362240612792310
0.367000000000000215,0.611139333424582931
0.368000000000000216,0.620463195917792643
0.369000000000000217,0.630313153723972119
0.370000000000000218,0.640668379898605589
0.371000000000000218,0.651507922932495043
0.372000000000000219,0.662810734303647453
0.373000000000000220,0.674555695520605569
0.374000000000000221,0.686721644612341309
0.375000000000000222,0.699287402024054705
0.376000000000000223,0.712231795882048546
0.377000000000000224,0.725533686594779237
0.378000000000000225,0.739171990760783548
0.379000000000000226,0.753125704357669123
0.380000000000000226,0.767373925189686168
0.381000000000000227,0.781895874574659033
0.382000000000000228,0.796670918253969518
0.383000000000000229,0.811678586512233791
0.384000000000000230,0.826898593496081524
0.385000000000000231,0.842310855723876983
0.386000000000000232,0.857895509780853383
0.387000000000000233,0.873632929196256014
0.388000000000000234,0.889503740501378815
0.389000000000000234,0.905488838469289958
0.390000000000000235,0.921569400539030248
0.391000000000000236,0.937726900428755838
0.392000000000000237,0.953943120944003686
0.393000000000000238,0.970200165988720054
0.394000000000000239,0.986480471788157565
0.395000000000000240,1.002766817333997862
0.396000000000000241,1.019042334063264388
0.397000000000000242,1.035290514783701710
0.398000000000000242,1.051495221859227724
0.399000000000000243,1.067640694670022539
0.400000000000000244,1.083711556362610073
0.401000000000000245,1.099692819905933261
0.402000000000000246,1.115569893470192309
0.403000000000000247,1.131328585145668253
0.404000000000000248,1.146955107019261177
0.405000000000000249,1.162436078626922997
0.406000000000000250,1.177758529800478460
0.407000000000000250,1.192909902927599797
0.408000000000000251,1.207878054643986898
0.409000000000000252,1.222651256976882816
0.410000000000000253,1.237218197959257804
0.411000000000000254,1.251567981733989088
0.412000000000000255,1.265690128167443973
0.413000000000000256,1.279574571991788590
0.414000000000000257,1.293211661495352161
0.415000000000000258,1.306592156780185254
0.416000000000000258,1.319707227605915634
0.417000000000000259,1.332548450838733967
0.418000000000000260,1.345107807524232202
0.419000000000000261,1.357377679602524756
0.420000000000000262,1.369350846283865719
0.421000000000000263,1.381020480102701509
0.422000000000000264,1.392380142667766219
0.423000000000000265,1.403423780125599540
0.424000000000000266,1.414145718354387293
0.425000000000000266,1.424540657904876273
0.426000000000000267,1.434603668704558910
0.427000000000000268,1.444330184541102291
0.428000000000000269,1.453715997340545130
0.429000000000000270,1.462757251255375035
0.430000000000000271,1.471450436577298460
0.431000000000000272,1.479792383488999885
0.432000000000000273,1.487780255668851970
0.433000000000000274,1.495411543762112494
0.434000000000000274,1.502684058731716288
0.435000000000000275,1.509595925101371972
0.436000000000000276,1.516145574103246130
0.437000000000000277,1.522331736742120523
0.438000000000000278,1.528153436787472508
0.439000000000000279,1.533609983704529611
0.440000000000000280,1.538700965534949505
0.441000000000000281,1.543426241737354543
0.442000000000000282,1.547785935997540108
0.443000000000000282,1.551780429017837637
0.444000000000000283,1.555410351294621130
0.445000000000000284,1.558676575892655958
0.446000000000000285,1.561580211224578019
0.447000000000000286,1.564122593843346509
0.448000000000000287,1.566305281255291337
0.449000000000000288,1.568130044760855712
0.450000000000000289,1.569598862329904865
0.451000000000000290,1.570713911518054839
0.452000000000000290,1.571477562430158681
0.453000000000000291,1.571892370736767131
0.454000000000000292,1.571961070749030798
0.455000000000000293,1.571686568557226327
0.456000000000000294,1.571071935237757788
0.457000000000000295,1.570120400133192318
0.458000000000000296,1.568835344209607907
0.459000000000000297,1.567220293495247052
0.460000000000000298,1.565278912604172401
0.461000000000000298,1.563014998348392748
0.462000000000000299,1.560432473441633494
0.463000000000000300,1.557535380297717875
0.464000000000000301,1.554327874926230812
0.465000000000000302,1.550814220927951625
0.466000000000000303,1.546998783592302917
0.467000000000000304,1.542886024098828690
0.468000000000000305,1.538480493824524231
0.469000000000000306,1.533786828758643583
0.470000000000000306,1.528809744026387696
0.471000000000000307,1.523554028522730919
0.472000000000000308,1.518024539657433225
0.473000000000000309,1.512226198212123229
0.474000000000000310,1.506163983310183418
0.475000000000000311,1.499842927499992262
0.476000000000000312,1.493268111951949306
0.477000000000000313,1.486444661769546371
0.478000000000000314,1.479377741414633629
0.479000000000000314,1.472072550246859901
0.480000000000000315,1.464534318177198369
0.481000000000000316,1.456768301435296786
0.482000000000000317,1.448779778450316247
0.483000000000000318,1.440574045844785989
0.484000000000000319,1.432156414540945999
0.485000000000000320,1.423532205978893073
0.486000000000000321,1.414706748445812456
0.487000000000000322,1.405685373515453751
0.488000000000000322,1.396473412596957564
0.489000000000000323,1.387076193592044815
0.490000000000000324,1.377499037659517755
0.491000000000000325,1.367747256085959373
0.492000000000000326,1.357826147261454341
0.493000000000000327,1.347740993759100947
0.494000000000000328,1.337497059517007481
0.495000000000000329,1.327099587121476798
0.496000000000000330,1.316553795189957521
0.497000000000000330,1.305864875852363216
0.498000000000000331,1.295037992329299836
0.499000000000000332,1.284078276605707947
0.500000000000000333,1.272990827198378749
0.501000000000000334,1.261780707015823566
0.502000000000000335,1.250452941308887400
0.503000000000000336,1.239012515710536722
0.504000000000000337,1.227464374363183897
0.505000000000000338,1.215813418131921342
0.506000000000000338,1.204064502902023603
0.507000000000000339,1.192222437959048476
0.508000000000000340,1.180291984449874931
0.509000000000000341,1.168277853923004539
0.510000000000000342,1.156184706946440155
0.511000000000000343,1.144017151801465015
0.512000000000000344,1.131779743250637793
0.513000000000000345,1.119476981378323632
0.514000000000000346,1.107113310502068071
0.515000000000000346,1.094693118153162725
0.516000000000000347,1.082220734124713868
0.517000000000000348,1.069700429585555668
0.518000000000000349,1.057136416258359413
0.519000000000000350,1.044532845660297138
0.520000000000000351,1.031893808404612534
0.521000000000000352,1.019223333561502853
0.522000000000000353,1.006525388076687344
0.523000000000000353,0.993803876246067697
0.524000000000000354,0.981062639244935419
0.525000000000000355,0.968305454710110425
0.526000000000000356,0.955536036373533904
0.527000000000000357,0.942758033745733193
0.528000000000000358,0.929975031847680933
0.529000000000000359,0.917190550989560927
0.530000000000000360,0.904408046594964099
0.531000000000000361,0.891630909069069610
0.532000000000000361,0.878862463709384700
0.533000000000000362,0.866105970657637947
0.534000000000000363,0.853364624891448154
0.535000000000000364,0.840641556254390743
0.536000000000000365,0.827939829523141824
0.537000000000000366,0.815262444510369555
0.538000000000000367,0.802612336202083831
0.539000000000000368,0.789992374928169427
0.540000000000000369,0.777405366564860478
0.541000000000000369,0.764854052767923287
0.542000000000000370,0.752341111235356630
0.543000000000000371,0.739869155998422290
0.544000000000000372,0.727440737739853738
0.545000000000000373,0.715058344138117308
0.546000000000000374,0.702724400236610869
0.547000000000000375,0.690441268836722855
0.548000000000000376,0.678211250913683283
0.549000000000000377,0.666036586054186475
0.550000000000000377,0.653919452914744070
0.551000000000000378,0.641861969699804691
0.552000000000000379,0.629866194658664669
0.553000000000000380,0.617934126600209632
0.554000000000000381,0.606067705424591652
0.555000000000000382,0.594268812670921243
0.556000000000000383,0.582539272080108139
0.557000000000000384,0.570880850171990084
0.558000000000000385,0.559295256835924626
0.559000000000000385,0.547784145934020472
0.560000000000000386,0.536349115916234020
0.561000000000000387,0.524991710446548021
0.562000000000000388,0.513713419039499741
0.563000000000000389,0.502515677706307784
0.564000000000000390,0.491399869609927820
0.565000000000000391,0.480367325728310868
0.566000000000000392,0.469419325525230302
0.567000000000000393,0.458557097628011168
0.568000000000000393,0.447781820511544137
0.569000000000000394,0.437094623187962328
0.570000000000000395,0.426496585901419423
0.571000000000000396,0.415988740827363035
0.572000000000000397,0.405572072775767734
0.573000000000000398,0.395247519897800659
0.574000000000000399,0.385015974395380767
0.575000000000000400,0.374878283233143539
0.576000000000000401,0.364835248852330929
0.577000000000000401,0.354887629886124989
0.578000000000000402,0.345036141875977920
0.579000000000000403,0.335281457988522047
0.580000000000000404,0.325624209732603198
0.581000000000000405,0.316064987676069220
0.582000000000000406,0.306604342161898191
0.583000000000000407,0.297242784023299067
0.584000000000000408,0.287980785297432984
0.585000000000000409,0.278818779937393679
0.586000000000000409,0.269757164522119841
0.587000000000000410,0.260796298963918372
0.588000000000000411,0.251936507213301131
0.589000000000000412,0.243178077960815919
0.590000000000000413,0.234521265335622259
0.591000000000000414,0.225966289600518178
0.592000000000000415,0.217513337843169591
0.593000000000000416,0.209162564663297135
0.594000000000000417,0.200914092855579429
0.595000000000000417,0.192768014088060796
0.596000000000000418,0.184724389575832010
0.597000000000000419,0.176783250749804055
0.598000000000000420,0.168944599920360539
0.599000000000000421,0.161208410935724633
0.600000000000000422,0.153574629834849902
0.601000000000000423,0.146043175494696642
0.602000000000000424,0.138613940271709563
0.603000000000000425,0.131286790637367368
0.604000000000000425,0.124061567807675965
0.605000000000000426,0.116938088366461621
0.606000000000000427,0.109916144882341318
0.607000000000000428,0.102995506519287350
0.608000000000000429,0.096175919640626759
0.609000000000000430,0.089457108406452351
0.610000000000000431,0.082838775364279055
0.611000000000000432,0.076320602032918211
0.612000000000000433,0.069902249479475528
0.613000000000000433,0.063583358889382449
0.614000000000000434,0.057363552129439298
0.615000000000000435,0.051242432303776876
0.616000000000000436,0.045219584302705076
0.617000000000000437,0.039294575344391014
0.618000000000000438,0.033466955509340229
0.619000000000000439,0.027736258267635948
0.620000000000000440,0.022102000998909747
0.621000000000000441,0.016563685505021266
