# TiO2-ana-101_BSAIV11
# h[nm],U(h)[kJ/mol]
0.149999999999999994,119.890547855971902891
0.150999999999999995,117.993167200106626069
0.151999999999999996,116.332382635141087235
0.152999999999999997,114.683157635712518641
0.153999999999999998,112.981525207876785544
0.154999999999999999,111.233490839997813282
0.156000000000000000,109.467433195249327582
0.157000000000000001,107.711741485310625421
0.158000000000000002,105.986368520583070563
0.159000000000000002,104.301477071186667445
0.160000000000000003,102.659223236486496944
0.161000000000000004,101.056507052059970420
0.162000000000000005,99.487602856048212630
0.163000000000000006,97.946212415384067640
0.164000000000000007,96.426830475150126176
0.165000000000000008,94.925485636340923179
0.166000000000000009,93.439990702251151333
0.167000000000000010,91.969851152186137710
0.168000000000000010,90.515966192338069618
0.169000000000000011,89.080230592002834555
0.170000000000000012,87.665116692620898675
0.171000000000000013,86.273289497293376371
0.172000000000000014,84.907285779386441504
0.173000000000000015,83.569271267276249660
0.174000000000000016,82.260877886175052254
0.175000000000000017,80.983115080168971645
0.176000000000000018,79.736344575201854923
0.177000000000000018,78.520305768833424054
0.178000000000000019,77.334178528364773797
0.179000000000000020,76.176670950332621146
0.180000000000000021,75.046121112608418002
0.181000000000000022,73.940603683016874470
0.182000000000000023,72.858034183292744501
0.183000000000000024,71.796265573972249285
0.184000000000000025,70.753173518281371912
0.185000000000000026,69.726728143407314064
0.186000000000000026,68.715051322867083172
0.187000000000000027,67.716459455284422120
0.188000000000000028,66.729492429620421490
0.189000000000000029,65.752929970798732029
0.190000000000000030,64.785796883176047345
0.191000000000000031,63.827358883978966730
0.192000000000000032,62.877110775089327888
0.193000000000000033,61.934758667310134683
0.194000000000000034,61.000197871114984594
0.195000000000000034,60.073487922890365098
0.196000000000000035,59.154826043236809596
0.197000000000000036,58.244520137987208841
0.198000000000000037,57.342962264108678028
0.199000000000000038,56.450603299726651585
0.200000000000000039,55.567929385953597432
0.201000000000000040,54.695440551890918357
0.202000000000000041,53.833631795383837471
0.203000000000000042,52.982976771889376266
0.204000000000000042,52.143914142246956089
0.205000000000000043,51.316836546599198243
0.206000000000000044,50.502082105071771423
0.207000000000000045,49.699928294638041848
0.208000000000000046,48.910588014226696885
0.209000000000000047,48.134207624854916219
0.210000000000000048,47.370866736662783580
0.211000000000000049,46.620579508521217349
0.212000000000000050,45.883297226818264392
0.213000000000000050,45.158911936663862718
0.214000000000000051,44.447260909792511541
0.215000000000000052,43.748131747748125520
0.216000000000000053,43.061267935511196470
0.217000000000000054,42.386374678728465426
0.218000000000000055,41.723124876423192120
0.219000000000000056,41.071165099916299823
0.220000000000000057,40.430121467207740693
0.221000000000000058,39.799605319892876309
0.222000000000000058,39.179218626540929904
0.223000000000000059,38.568559052150064304
0.224000000000000060,37.967224647682314753
0.225000000000000061,37.374818126698116316
0.226000000000000062,36.790950707724682900
0.227000000000000063,36.215245511211037410
0.228000000000000064,35.647340508783983637
0.229000000000000065,35.086891030078085407
0.230000000000000066,34.533571838748066796
0.231000000000000066,33.987078794466349052
0.232000000000000067,33.447130121857263418
0.233000000000000068,32.913467310519266107
0.234000000000000069,32.385855672634320968
0.235000000000000070,31.864084586258730525
0.236000000000000071,31.347967453322247877
0.237000000000000072,30.837341401725343104
0.238000000000000073,30.332066760798692684
0.239000000000000073,29.832026338856429959
0.240000000000000074,29.337124530702077152
0.241000000000000075,28.847286281804819907
0.242000000000000076,28.362455934507416089
0.243000000000000077,27.882595980111823053
0.244000000000000078,27.407685739059058250
0.245000000000000079,26.937719989716306657
0.246000000000000080,26.472707564544435854
0.247000000000000081,26.012669930668106844
0.248000000000000081,25.557639770139132906
0.249000000000000082,25.107659573488188443
0.250000000000000111,24.662780258520278664
0.251000000000000112,24.223059824737170231
0.252000000000000113,23.788562052276795100
0.253000000000000114,23.359355252853571727
0.254000000000000115,22.935511078867754975
0.255000000000000115,22.517103395632656060
0.256000000000000116,22.104207220544786594
0.257000000000000117,21.696897731994845060
0.258000000000000118,21.295249349886272938
0.259000000000000119,20.899334888788725806
0.260000000000000120,20.509224784005315456
0.261000000000000121,20.124986390169567585
0.262000000000000122,19.746683351407135376
0.263000000000000123,19.374375041593960844
0.264000000000000123,19.008116072811198194
0.265000000000000124,18.647955869733728207
0.266000000000000125,18.293938307387957565
0.267000000000000126,17.946101409470752941
0.268000000000000127,17.604477104229879103
0.269000000000000128,17.269091034763210502
0.270000000000000129,16.939962420492800987
0.271000000000000130,16.617103966508022239
0.272000000000000131,16.300521817444213468
0.273000000000000131,15.990215552565677726
0.274000000000000132,15.686178218750736590
0.275000000000000133,15.388396398128667997
0.276000000000000134,15.096850307189431106
0.277000000000000135,14.811513924276306753
0.278000000000000136,14.532355142472614062
0.279000000000000137,14.259335945007844515
0.280000000000000138,13.992412600431084257
0.281000000000000139,13.731535874928610497
0.282000000000000139,13.476651259297678820
0.283000000000000140,13.227699208225889294
0.284000000000000141,12.984615389665805196
0.285000000000000142,12.747330942234698981
0.286000000000000143,12.515772738709097567
0.287000000000000144,12.289863653822450829
0.288000000000000145,12.069522834709543346
0.289000000000000146,11.854665972474823121
0.290000000000000147,11.645205573489894491
0.291000000000000147,11.441051229151037560
0.292000000000000148,11.242109882946973443
0.293000000000000149,11.048286093802687446
0.294000000000000150,10.859482294774712940
0.295000000000000151,10.675599046277881143
0.296000000000000152,10.496535283122428339
0.297000000000000153,10.322188554733951804
0.298000000000000154,10.152455258016338746
0.299000000000000155,9.987230862400370057
0.300000000000000155,9.826410126697396663
0.301000000000000156,9.669887307449304359
0.302000000000000157,9.517556358531956917
0.303000000000000158,9.369311121830991240
0.304000000000000159,9.225045508864820221
0.305000000000000160,9.084653673281698261
0.306000000000000161,8.948030174204555820
0.307000000000000162,8.815070130440272322
0.308000000000000163,8.685669365608713832
0.309000000000000163,8.559724544281602121
0.310000000000000164,8.437133299252312923
0.311000000000000165,8.317794350085490507
0.312000000000000166,8.201607613119341167
0.313000000000000167,8.088474303114940867
0.314000000000000168,7.978297026765218902
0.315000000000000169,7.870979868291779091
0.316000000000000170,7.766428467371056854
0.317000000000000171,7.664550089642117037
0.318000000000000171,7.565253690057138769
0.319000000000000172,7.468449969342401573
0.320000000000000173,7.374051423842549191
0.321000000000000174,7.281972389024356396
0.322000000000000175,7.192129076917869845
0.323000000000000176,7.104439607773477050
0.324000000000000177,7.018824036212558681
0.325000000000000178,6.935204372147724783
0.326000000000000179,6.853504596745563227
0.327000000000000179,6.773650673701377301
0.328000000000000180,6.695570556090868486
0.329000000000000181,6.619194189058360323
0.330000000000000182,6.544453508595876379
0.331000000000000183,6.471282436660669823
0.332000000000000184,6.399616872872515572
0.333000000000000185,6.329394683024924362
0.334000000000000186,6.260555684637092888
0.335000000000000187,6.193041629766000256
0.336000000000000187,6.126796185290187324
0.337000000000000188,6.061764910869170464
0.338000000000000189,5.997895234774221151
0.339000000000000190,5.935136427778475721
0.340000000000000191,5.873439575286446335
0.341000000000000192,5.812757547874800146
0.342000000000000193,5.753044970408716985
0.343000000000000194,5.694258189890033961
0.344000000000000195,5.636355242186095182
0.345000000000000195,5.579295817780193900
0.346000000000000196,5.523041226677543492
0.347000000000000197,5.467554362593154416
0.348000000000000198,5.412799666541125099
0.349000000000000199,5.358743089937844317
0.350000000000000200,5.305352057324957293
0.351000000000000201,5.252595428811545730
0.352000000000000202,5.200443462328556699
0.353000000000000203,5.148867775782556500
0.354000000000000203,5.097841309189992565
0.355000000000000204,5.047338286867575796
0.356000000000000205,4.997334179748912142
0.357000000000000206,4.947805667892310133
0.358000000000000207,4.898730603239874526
0.359000000000000208,4.850087972683044590
0.360000000000000209,4.801857861485233414
0.361000000000000210,4.754021417108058145
0.362000000000000210,4.706560813483241290
0.363000000000000211,4.659459215768595897
0.364000000000000212,4.612700745622565712
0.365000000000000213,4.566270447028445645
0.366000000000000214,4.520154252695890662
0.367000000000000215,4.474338951064291692
0.368000000000000216,4.428812153929433393
0.369000000000000217,4.383562264712303147
0.370000000000000218,4.338578447385928349
0.371000000000000218,4.293850596073943038
0.372000000000000219,4.249369305332016289
0.373000000000000220,4.205125841121178709
0.374000000000000221,4.161112112480043201
0.375000000000000222,4.117320643901054567
0.376000000000000223,4.073744548413860578
0.377000000000000224,4.030377501377662597
0.378000000000000225,3.987213714982472901
0.379000000000000226,3.944247913458052146
0.380000000000000226,3.901475308987802926
0.381000000000000227,3.858891578323841109
0.382000000000000228,3.816492840098272499
0.383000000000000229,3.774275632824611648
0.384000000000000230,3.732236893582619786
0.385000000000000231,3.690373937378587321
0.386000000000000232,3.648684437172769801
0.387000000000000233,3.607166404564581708
0.388000000000000234,3.565818171125898495
0.389000000000000234,3.524638370371977913
0.390000000000000235,3.483625920359206596
0.391000000000000236,3.442780006898370715
0.392000000000000237,3.402100067371792047
0.393000000000000238,3.361585775142360344
0.394000000000000239,3.321237024542210925
0.395000000000000240,3.281053916428573025
0.396000000000000241,3.241036744294135019
0.397000000000000242,3.201185980919123431
0.398000000000000242,3.161502265552178947
0.399000000000000243,3.121986391607084688
0.400000000000000244,3.082639294862301149
0.401000000000000245,3.043462042150234304
0.402000000000000246,3.004455820523361353
0.403000000000000247,2.965621926884057125
0.404000000000000248,2.926961758065368180
0.405000000000000249,2.888476801349809442
0.406000000000000250,2.850168625413539658
0.407000000000000250,2.812038871683252061
0.408000000000000251,2.774089246093366601
0.409000000000000252,2.736321511231201153
0.410000000000000253,2.698737478857965666
0.411000000000000254,2.661339002793634556
0.412000000000000255,2.624127972153932120
0.413000000000000256,2.587106304927763389
0.414000000000000257,2.550275941883861197
0.415000000000000258,2.513638840795277662
0.416000000000000258,2.477196970971003775
0.417000000000000259,2.440952308083748523
0.418000000000000260,2.404906829283569358
0.419000000000000261,2.369062508586925908
0.420000000000000262,2.333421312531240410
0.421000000000000263,2.297985196085016391
0.422000000000000264,2.262756098804090232
0.423000000000000265,2.227735941224540106
0.424000000000000266,2.192926621483212379
0.425000000000000266,2.158330012157009925
0.426000000000000267,2.123947957312254609
0.427000000000000268,2.089782269755751987
0.428000000000000269,2.055834728479403850
0.429000000000000270,2.022107076290386551
0.430000000000000271,1.988601017619229250
0.431000000000000272,1.955318216498250106
0.432000000000000273,1.922260294703149075
0.433000000000000274,1.889428830050671637
0.434000000000000274,1.856825354845501819
0.435000000000000275,1.824451354469829312
0.436000000000000276,1.792308266109114312
0.437000000000000277,1.760397477607893224
0.438000000000000278,1.728720326449624478
0.439000000000000279,1.697278098854751338
0.440000000000000280,1.666072028991386400
0.441000000000000281,1.635103298293238527
0.442000000000000282,1.604373034879451820
0.443000000000000282,1.573882313071457650
0.444000000000000283,1.543632153001804230
0.445000000000000284,1.513623520310406478
0.446000000000000285,1.483857325923607862
0.447000000000000286,1.454334425911695261
0.448000000000000287,1.425055621420711294
0.449000000000000288,1.396021658674460930
0.450000000000000289,1.367233229042857046
0.451000000000000290,1.338690969172856349
0.452000000000000290,1.310395461178338605
0.453000000000000291,1.282347232885549859
0.454000000000000292,1.254546758130703932
0.455000000000000293,1.226994457106593384
0.456000000000000294,1.199690696755147057
0.457000000000000295,1.172635791202947919
0.458000000000000296,1.145830002236958078
0.459000000000000297,1.119273539817691399
0.460000000000000298,1.092966562627267546
0.461000000000000298,1.066909178649869894
0.462000000000000299,1.041101445782211199
0.463000000000000300,1.015543372471765071
0.464000000000000301,0.990234918380557994
0.465000000000000302,0.965175995072471316
0.466000000000000303,0.940366466722059036
0.467000000000000304,0.915806150842957245
0.468000000000000305,0.891494819034144514
0.469000000000000306,0.867432197742261435
0.470000000000000306,0.843617969038358284
0.471000000000000307,0.820051771407543817
0.472000000000000308,0.796733200550002296
0.473000000000000309,0.773661810191943466
0.474000000000000310,0.750837112905213599
0.475000000000000311,0.728258580934163180
0.476000000000000312,0.705925647028697645
0.477000000000000313,0.683837705282186903
0.478000000000000314,0.661994111973307375
0.479000000000000314,0.640394186410629618
0.480000000000000315,0.619037211779070007
0.481000000000000316,0.597922435987202294
0.482000000000000317,0.577049072514613126
0.483000000000000318,0.556416301258402357
0.484000000000000319,0.536023269378090417
0.485000000000000320,0.515869092138192098
0.486000000000000321,0.495952853747715250
0.487000000000000322,0.476273608195974252
0.488000000000000322,0.456830380084107535
0.489000000000000323,0.437622165451663769
0.490000000000000324,0.418647932597778882
0.491000000000000325,0.399906622896410935
0.492000000000000326,0.381397151605158746
0.493000000000000327,0.363118408667221726
0.494000000000000328,0.345069259506112558
0.495000000000000329,0.327248545812704905
0.496000000000000330,0.309655086324323259
0.497000000000000330,0.292287677595446715
0.498000000000000331,0.275145094759873532
0.499000000000000332,0.258226092283931952
0.500000000000000333,0.241529404710541462
0.501000000000000334,0.225053747393942072
0.502000000000000335,0.208797817224777360
0.503000000000000336,0.192760293345451833
0.504000000000000337,0.176939837855498050
0.505000000000000338,0.161335096506879994
0.506000000000000338,0.145944699389049665
0.507000000000000339,0.130767261603643770
0.508000000000000340,0.115801383928768015
0.509000000000000341,0.101045653472688152
0.510000000000000342,0.086498644316969922
0.511000000000000343,0.072158918148895829
0.512000000000000344,0.058025024883210596
0.513000000000000345,0.044095503273101855
0.514000000000000346,0.030368881510379798
0.515000000000000346,0.016843677814924796
0.516000000000000347,0.003518401013309003
0.517000000000000348,-0.009608448893350862
0.518000000000000349,-0.022538380172296969
0.519000000000000350,-0.035272908812780022
0.520000000000000351,-0.047813557990393017
0.521000000000000352,-0.060161857542110876
0.522000000000000353,-0.072319343451877849
0.523000000000000353,-0.084287557346821723
0.524000000000000354,-0.096068046003919827
0.525000000000000355,-0.107662360867127840
0.526000000000000356,-0.119072057574832219
0.527000000000000357,-0.130298695497624351
0.528000000000000358,-0.141343837286242863
0.529000000000000359,-0.152209048429657379
0.530000000000000360,-0.162895896823132796
0.531000000000000361,-0.173405952346266684
0.532000000000000361,-0.183740786450826699
0.533000000000000362,-0.193901971758329628
0.534000000000000363,-0.203891081667227858
0.535000000000000364,-0.213709689969643846
0.536000000000000365,-0.223359370477475228
0.537000000000000366,-0.232841696657829778
0.538000000000000367,-0.242158241277602659
0.539000000000000368,-0.251310576057172885
0.540000000000000369,-0.260300271332994382
0.541000000000000369,-0.269128895729076278
0.542000000000000370,-0.277798015837110168
0.543000000000000371,-0.286309195905246228
0.544000000000000372,-0.294663997535301314
0.545000000000000373,-0.302863979388334315
0.546000000000000374,-0.310910696898435757
0.547000000000000375,-0.318805701994614499
0.548000000000000376,-0.326550542830673474
0.549000000000000377,-0.334146763522916945
0.550000000000000377,-0.341595903895619668
0.551000000000000378,-0.348899499234051724
0.552000000000000379,-0.356059080045030674
0.553000000000000380,-0.363076171824801563
0.554000000000000381,-0.369952294834136886
0.555000000000000382,-0.376688963880600136
0.556000000000000383,-0.383287688107715963
0.557000000000000384,-0.389749970791083589
0.558000000000000385,-0.396077309141162570
0.559000000000000385,-0.402271194112728048
0.560000000000000386,-0.408333110220808426
0.561000000000000387,-0.414264535362999564
0.562000000000000388,-0.420066940648037401
0.563000000000000389,-0.425741790230544370
0.564000000000000390,-0.431290541151764573
0.565000000000000391,-0.436714643186234319
0.566000000000000392,-0.442015538694236376
0.567000000000000393,-0.447194662479962091
0.568000000000000393,-0.452253441655205535
0.569000000000000394,-0.457193295508547426
0.570000000000000395,-0.462015635379882550
0.571000000000000396,-0.466721864540159903
0.572000000000000397,-0.471313378076302303
0.573000000000000398,-0.475791562781102684
0.574000000000000399,-0.480157797048073653
0.575000000000000400,-0.484413450771094489
0.576000000000000401,-0.488559885248758374
0.577000000000000401,-0.492598453093375022
0.578000000000000402,-0.496530498144433063
0.579000000000000403,-0.500357355386487068
0.580000000000000404,-0.504080350871389582
0.581000000000000405,-0.507700801644683675
0.582000000000000406,-0.511220015676174144
0.583000000000000407,-0.514639291794479203
0.584000000000000408,-0.517959919625549770
0.585000000000000409,-0.521183179535018359
0.586000000000000409,-0.524310342574298205
0.587000000000000410,-0.527342670430375193
0.588000000000000411,-0.530281415379129095
0.589000000000000412,-0.533127820242217387
0.590000000000000413,-0.535883118347299514
0.591000000000000414,-0.538548533491629122
0.592000000000000415,-0.541125279908888035
0.593000000000000416,-0.543614562239166488
0.594000000000000417,-0.546017575502033448
0.595000000000000417,-0.548335505072642837
0.596000000000000418,-0.550569526660717345
0.597000000000000419,-0.552720806292448352
0.598000000000000420,-0.554790500295123445
0.599000000000000421,-0.556779755284501632
0.600000000000000422,-0.558689708154818998
0.601000000000000423,-0.560521486071334119
0.602000000000000424,-0.562276206465412320
0.603000000000000425,-0.563954977032030458
0.604000000000000425,-0.565558895729621813
0.605000000000000426,-0.567089050782246584
0.606000000000000427,-0.568546520684009793
0.607000000000000428,-0.569932374205593950
0.608000000000000429,-0.571247670402995289
0.609000000000000430,-0.572493458628208773
0.610000000000000431,-0.573670778541991000
0.611000000000000432,-0.574780660128505594
0.612000000000000433,-0.575824123711855096
0.613000000000000433,-0.576802179974447493
0.614000000000000434,-0.577715829977119677
0.615000000000000435,-0.578566065180964317
0.616000000000000436,-0.579353867470810413
0.617000000000000437,-0.580080209180350748
