# TiO2-ana-101_ACYLGUIAACYL-AC
# h[nm],U(h)[kJ/mol]
0.149999999999999994,111.363796329267216834
0.150999999999999995,109.582462288471532474
0.151999999999999996,108.375001690709353852
0.152999999999999997,107.246560812484176495
0.153999999999999998,106.024566957647991217
0.154999999999999999,104.686731467221051162
0.156000000000000000,103.268224318660230665
0.157000000000000001,101.815530157286914914
0.158000000000000002,100.366676910673945144
0.159000000000000002,98.945456821157591776
0.160000000000000003,97.562339220086030878
0.161000000000000004,96.217964954877359673
0.162000000000000005,94.907066406402250891
0.163000000000000006,93.621813910023689687
0.164000000000000007,92.354242159928517708
0.165000000000000008,91.097751936592246125
0.166000000000000009,89.847838655918167206
0.167000000000000010,88.602249765642355328
0.168000000000000010,87.360767725286450514
0.169000000000000011,86.124784271899116561
0.170000000000000012,84.896792255925475956
0.171000000000000013,83.679882882471829930
0.172000000000000014,82.477303163174923384
0.173000000000000015,81.292102340394649218
0.174000000000000016,80.126876961739554872
0.175000000000000017,78.983611338887811826
0.176000000000000018,77.863602187494890927
0.177000000000000018,76.767452143089371930
0.178000000000000019,75.695115514013764368
0.179000000000000020,74.645980166874977613
0.180000000000000021,73.618971126406663075
0.181000000000000022,72.612663767764047407
0.182000000000000023,71.625396994448578880
0.183000000000000024,70.655379263720448080
0.184000000000000025,69.700782576403852886
0.185000000000000026,68.759821496733309232
0.186000000000000026,67.830815871506544568
0.187000000000000027,66.912237174619647817
0.188000000000000028,66.002739335391623854
0.189000000000000029,65.101175553329994727
0.190000000000000030,64.206603001326413960
0.191000000000000031,63.318277518582341656
0.192000000000000032,62.435640437037363881
0.193000000000000033,61.558299610106544719
0.194000000000000034,60.686006554620931297
0.195000000000000034,59.818631405134375711
0.196000000000000035,58.956137138002290499
0.197000000000000036,58.098554269631712543
0.198000000000000037,57.245956983310293253
0.199000000000000038,56.398441402384193566
0.200000000000000039,55.556106511302346007
0.201000000000000040,54.719038034490566247
0.202000000000000041,53.887295418316128348
0.203000000000000042,53.060901924038702759
0.204000000000000042,52.239837728856358012
0.205000000000000043,51.424035846315931053
0.206000000000000044,50.613380614244945832
0.207000000000000045,49.807708455425000693
0.208000000000000046,49.006810590754760426
0.209000000000000047,48.210437373925302040
0.210000000000000048,47.418303918030069610
0.211000000000000049,46.630096695602958334
0.212000000000000050,45.845480812078122312
0.213000000000000050,45.064107676605019037
0.214000000000000051,44.285622821783199754
0.215000000000000052,43.509673653718060393
0.216000000000000053,42.735916944594933398
0.217000000000000054,41.964025910704236821
0.218000000000000055,41.193696748717279377
0.219000000000000056,40.424654531386927658
0.220000000000000057,39.656658390268468395
0.221000000000000058,38.889505937213343145
0.222000000000000058,38.123036898075540080
0.223000000000000059,37.357135951204007540
0.224000000000000060,36.591734779850227710
0.225000000000000061,35.826813361656903112
0.226000000000000062,35.062400530011245792
0.227000000000000063,34.298573851385285138
0.228000000000000064,33.535458870014828392
0.229000000000000065,32.773227776568589320
0.230000000000000066,32.012097561029634107
0.231000000000000066,31.252327712042500707
0.232000000000000067,30.494217525673594338
0.233000000000000068,29.738103086072072756
0.234000000000000069,28.984353979088940179
0.235000000000000070,28.233369797678740554
0.236000000000000071,27.485576495029619082
0.237000000000000072,26.741422637984118893
0.238000000000000073,26.001375609555452684
0.239000000000000073,25.265917805326413514
0.240000000000000074,24.535542864338403035
0.241000000000000075,23.810751970829549862
0.242000000000000076,23.092050258932566464
0.243000000000000077,22.379943348262003155
0.244000000000000078,21.674934034257596238
0.245000000000000079,20.977519153248262995
0.246000000000000080,20.288186638493876046
0.247000000000000081,19.607412779972975159
0.248000000000000081,18.935659697434765292
0.249000000000000082,18.273373033233148988
0.250000000000000111,17.620979868716524663
0.251000000000000112,16.978886865461543465
0.252000000000000113,16.347478630409458589
0.253000000000000114,15.727116301986999503
0.254000000000000115,15.118136352558121160
0.255000000000000115,14.520849601053146927
0.256000000000000116,13.935540428341999686
0.257000000000000117,13.362466186848475758
0.258000000000000118,12.801856795027958924
0.259000000000000119,12.253914506637306303
0.260000000000000120,11.718813844198397334
0.261000000000000121,11.196701685682617367
0.262000000000000122,10.687697493206162136
0.263000000000000123,10.191893672413531391
0.264000000000000123,9.709356051223505091
0.265000000000000124,9.240124466706994610
0.266000000000000125,8.784213449045976674
0.267000000000000126,8.341612991776182540
0.268000000000000127,7.912289397831855808
0.269000000000000128,7.496186191279893940
0.270000000000000129,7.093225085042012878
0.271000000000000130,6.703306995349488595
0.272000000000000131,6.326313094148231286
0.273000000000000131,5.962105891164005911
0.274000000000000132,5.610530337843309567
0.275000000000000133,5.271414945898280635
0.276000000000000134,4.944572913699257555
0.277000000000000135,4.629803254272279567
0.278000000000000136,4.326891919165467115
0.279000000000000137,4.035612912946328734
0.280000000000000138,3.755729393577998287
0.281000000000000139,3.486994754392738649
0.282000000000000139,3.229153683836086142
0.283000000000000140,2.981943199590610938
0.284000000000000141,2.745093654105244418
0.285000000000000142,2.518329708952139256
0.286000000000000143,2.301371275807956529
0.287000000000000144,2.093934422210449675
0.288000000000000145,1.895732240572174820
0.289000000000000146,1.706475679244215060
0.290000000000000147,1.525874334710269453
0.291000000000000147,1.353637204259456661
0.292000000000000148,1.189473398731877740
0.293000000000000149,1.033092815157659272
0.294000000000000150,0.884206769316210339
0.295000000000000151,0.742528588430050873
0.296000000000000152,0.607774164376846726
0.297000000000000153,0.479662467955184024
0.298000000000000154,0.357916024874854188
0.299000000000000155,0.242261354262085060
0.300000000000000155,0.132429370574866923
0.301000000000000156,0.028155749914440607
0.302000000000000157,-0.070818738203582310
0.303000000000000158,-0.164747932489227200
0.304000000000000159,-0.253880013746379973
0.305000000000000160,-0.338457269742553635
0.306000000000000161,-0.418715889820141185
0.307000000000000162,-0.494885787964349788
0.308000000000000163,-0.567190453026548025
0.309000000000000163,-0.635846824793040555
0.310000000000000164,-0.701065194587268015
0.311000000000000165,-0.763049129097497447
0.312000000000000166,-0.821995416132099033
0.313000000000000167,-0.878094031019066135
0.314000000000000168,-0.931528122385702817
0.315000000000000169,-0.982474016077536705
0.316000000000000170,-1.031101236002145205
0.317000000000000171,-1.077572540712862903
0.318000000000000171,-1.122043974579577830
0.319000000000000172,-1.164664932427977639
0.320000000000000173,-1.205578236564530670
0.321000000000000174,-1.244920225141830539
0.322000000000000175,-1.282820850857677053
0.323000000000000176,-1.319403789020361817
0.324000000000000177,-1.354786554052861192
0.325000000000000178,-1.389080623548659688
0.326000000000000179,-1.422391569032636083
0.327000000000000179,-1.454819192620644852
0.328000000000000180,-1.486457668811517419
0.329000000000000181,-1.517395690685237941
0.330000000000000182,-1.547716619819815564
0.331000000000000183,-1.577498639278453796
0.332000000000000184,-1.606814909055993112
0.333000000000000185,-1.635733723410826457
0.334000000000000186,-1.664318669544468055
0.335000000000000187,-1.692628787125974643
0.336000000000000187,-1.720718728192514035
0.337000000000000188,-1.748638916990094661
0.338000000000000189,-1.776435709350527192
0.339000000000000190,-1.804151551231162554
0.340000000000000191,-1.831825136073342630
0.341000000000000192,-1.859491560663968368
0.342000000000000193,-1.887182479211519492
0.343000000000000194,-1.914926255373896158
0.344000000000000195,-1.942748111999897942
0.345000000000000195,-1.970670278370100892
0.346000000000000196,-1.998712134744831559
0.347000000000000197,-2.026890354048501486
0.348000000000000198,-2.055219040539476794
0.349000000000000199,-2.083709865333731592
0.350000000000000200,-2.112372198668508005
0.351000000000000201,-2.141213238809006381
0.352000000000000202,-2.170238137517030985
0.353000000000000203,-2.199450122015488951
0.354000000000000203,-2.228850613396435865
0.355000000000000204,-2.258439341433446934
0.356000000000000205,-2.288214455771183875
0.357000000000000206,-2.318172633476433653
0.358000000000000207,-2.348309182945045315
0.359000000000000208,-2.378618144169150739
0.360000000000000209,-2.409092385377895162
0.361000000000000210,-2.439723696072852555
0.362000000000000210,-2.470502876487237209
0.363000000000000211,-2.501419823504436035
0.364000000000000212,-2.532463613077933218
0.365000000000000213,-2.563622579200157681
0.366000000000000214,-2.594884389472940089
0.367000000000000215,-2.626236117336768316
0.368000000000000216,-2.657664311020195846
0.369000000000000217,-2.689155059274116688
0.370000000000000218,-2.720694053959036296
0.371000000000000218,-2.752266649555896283
0.372000000000000219,-2.783857919673594861
0.373000000000000220,-2.815452710628163491
0.374000000000000221,-2.847035692170170940
0.375000000000000222,-2.878591405438213791
0.376000000000000223,-2.910104308217591029
0.377000000000000224,-2.941558817583534768
0.378000000000000225,-2.972939350009254689
0.379000000000000226,-3.004230359019028906
0.380000000000000226,-3.035416370466740954
0.381000000000000227,-3.066482015519885085
0.382000000000000228,-3.097412061428904018
0.383000000000000229,-3.128191440160987824
0.384000000000000230,-3.158805274976837829
0.385000000000000231,-3.189238905028124904
0.386000000000000232,-3.219477908052202686
0.387000000000000233,-3.249508121239826686
0.388000000000000234,-3.279315660350140327
0.389000000000000234,-3.308886937146211515
0.390000000000000235,-3.338208675222765098
0.391000000000000236,-3.367267924296569070
0.392000000000000237,-3.396052073028246632
0.393000000000000238,-3.424548860442889087
0.394000000000000239,-3.452746386015134838
0.395000000000000240,-3.480633118482873378
0.396000000000000241,-3.508197903451959032
0.397000000000000242,-3.535429969852725840
0.398000000000000242,-3.562318935307382084
0.399000000000000243,-3.588854810465575529
0.400000000000000244,-3.615028002363847470
0.401000000000000245,-3.640829316862867593
0.402000000000000246,-3.666249960214591486
0.403000000000000247,-3.691281539809973644
0.404000000000000248,-3.715916064155892595
0.405000000000000249,-3.740145942128521028
0.406000000000000250,-3.763963981548472226
0.407000000000000250,-3.787363387121641889
0.408000000000000251,-3.810337757787810808
0.409000000000000252,-3.832881083517636789
0.410000000000000253,-3.854987741597011741
0.411000000000000254,-3.876652492436218900
0.412000000000000255,-3.897870474939785446
0.413000000000000256,-3.918637201471563802
0.414000000000000257,-3.938948552447846030
0.415000000000000258,-3.958800770590264140
0.416000000000000258,-3.978190454868443027
0.417000000000000259,-3.997114554161362410
0.418000000000000260,-4.015570360664797889
0.419000000000000261,-4.033555503071145409
0.420000000000000262,-4.051067939546415531
0.421000000000000263,-4.068105950528358328
0.422000000000000264,-4.084668131367989119
0.423000000000000265,-4.100753384836156812
0.424000000000000266,-4.116360913515348052
0.425000000000000266,-4.131490212095925152
0.426000000000000267,-4.146141059595049860
0.427000000000000268,-4.160313511515461471
0.428000000000000269,-4.174007891960272332
0.429000000000000270,-4.187224785719147135
0.430000000000000271,-4.199965030340153227
0.431000000000000272,-4.212229708200905698
0.432000000000000273,-4.224020138591551898
0.433000000000000274,-4.235337869821595547
0.434000000000000274,-4.246184671361580953
0.435000000000000275,-4.256562526030028160
0.436000000000000276,-4.266473622235261054
0.437000000000000277,-4.275920346281119500
0.438000000000000278,-4.284905274744816417
0.439000000000000279,-4.293431166934684740
0.440000000000000280,-4.301500957434877037
0.441000000000000281,-4.309117748743501508
0.442000000000000282,-4.316284804010279252
0.443000000000000282,-4.323005539878991499
0.444000000000000283,-4.329283519439869998
0.445000000000000284,-4.335122445296247129
0.446000000000000285,-4.340526152749568212
0.447000000000000286,-4.345498603106397795
0.448000000000000287,-4.350043877110512547
0.449000000000000288,-4.354166168503001089
0.450000000000000289,-4.357869777712724435
0.451000000000000290,-4.361159105679250914
0.452000000000000290,-4.364038647810093430
0.453000000000000291,-4.366512988073587564
0.454000000000000292,-4.368586793228685039
0.455000000000000293,-4.370264807192460133
0.456000000000000294,-4.371551845546001402
0.457000000000000295,-4.372452790179085724
0.458000000000000296,-4.372972584073684388
0.459000000000000297,-4.373116226226378522
0.460000000000000298,-4.372888766709276176
0.461000000000000298,-4.372295301869077555
0.462000000000000299,-4.371340969663600085
0.463000000000000300,-4.370030945134947054
0.464000000000000301,-4.368370436018443215
0.465000000000000302,-4.366364678486161388
0.466000000000000303,-4.364018933023837477
0.467000000000000304,-4.361338480439895804
0.468000000000000305,-4.358328618004986943
0.469000000000000306,-4.354994655720611618
0.470000000000000306,-4.351341912715122717
0.471000000000000307,-4.347375713765322836
0.472000000000000308,-4.343101385941906756
0.473000000000000309,-4.338524255376845495
0.474000000000000310,-4.333649644150705527
0.475000000000000311,-4.328482867297977599
0.476000000000000312,-4.323029229928292416
0.477000000000000313,-4.317294024461479474
0.478000000000000314,-4.311282527974237055
0.479000000000000314,-4.304999999656383913
0.480000000000000315,-4.298451678374339835
0.481000000000000316,-4.291642780339745222
0.482000000000000317,-4.284578496880883769
0.483000000000000318,-4.277263992314716212
0.484000000000000319,-4.269704401917241654
0.485000000000000320,-4.261904829989912713
0.486000000000000321,-4.253870348019857417
0.487000000000000322,-4.245605992931626105
0.488000000000000322,-4.237116765428167398
0.489000000000000323,-4.228407628418863418
0.490000000000000324,-4.219483505532299894
0.491000000000000325,-4.210349279711553372
0.492000000000000326,-4.201009791889799061
0.493000000000000327,-4.191469839744049075
0.494000000000000328,-4.181734176524771307
0.495000000000000329,-4.171807509959341687
0.496000000000000330,-4.161694501227051646
0.497000000000000330,-4.151399764003731896
0.498000000000000331,-4.140927863573681478
0.499000000000000332,-4.130283316007096417
0.500000000000000333,-4.119470587400782868
0.501000000000000334,-4.108494093180182105
0.502000000000000335,-4.097358197460824414
0.503000000000000336,-4.086067212467176191
0.504000000000000337,-4.074625398007031940
0.505000000000000338,-4.063036960999535374
0.506000000000000338,-4.051306055055023947
0.507000000000000339,-4.039436780104870728
0.508000000000000340,-4.027433182079523277
0.509000000000000341,-4.015299252633112381
0.510000000000000342,-4.003038928912741490
0.511000000000000343,-3.990656093370986035
0.512000000000000344,-3.978154573619812506
0.513000000000000345,-3.965538142324408710
0.514000000000000346,-3.952810517135364243
0.515000000000000346,-3.939975360657603343
0.516000000000000347,-3.927036280454643702
0.517000000000000348,-3.913996829086726414
0.518000000000000349,-3.900860504181334676
0.519000000000000350,-3.887630748534796510
0.520000000000000351,-3.874310950243531781
0.521000000000000352,-3.860904442863732466
0.522000000000000353,-3.847414505598076406
0.523000000000000353,-3.833844363508301711
0.524000000000000354,-3.820197187752434331
0.525000000000000355,-3.806476095845416019
0.526000000000000356,-3.792684151942034454
0.527000000000000357,-3.778824367141050633
0.528000000000000358,-3.764899699809375111
0.529000000000000359,-3.750913055925326312
0.530000000000000360,-3.736867289439837148
0.531000000000000361,-3.722765202654723105
0.532000000000000361,-3.708609546616989938
0.533000000000000362,-3.694403021528250175
0.534000000000000363,-3.680148277168348692
0.535000000000000364,-3.665847913332355379
0.536000000000000365,-3.651504480279997189
0.537000000000000366,-3.637120479196811029
0.538000000000000367,-3.622698362666096905
0.539000000000000368,-3.608240535151066464
0.540000000000000369,-3.593749353486257458
0.541000000000000369,-3.579227127377685669
0.542000000000000370,-3.564676119910858976
0.543000000000000371,-3.550098548066153548
0.544000000000000372,-3.535496583240779866
0.545000000000000373,-3.520872351776801246
0.546000000000000374,-3.506227935494552916
0.547000000000000375,-3.491565372230909681
0.548000000000000376,-3.476886656381856788
0.549000000000000377,-3.462193739448805818
0.550000000000000377,-3.447488530588170619
0.551000000000000378,-3.432772897163660186
0.552000000000000379,-3.418048665300893241
0.553000000000000380,-3.403317620443819358
0.554000000000000381,-3.388581507912485247
0.555000000000000382,-3.373842033461877499
0.556000000000000383,-3.359100863841197881
0.557000000000000384,-3.344359627353449493
0.558000000000000385,-3.329619914414751580
0.559000000000000385,-3.314883278113176512
0.560000000000000386,-3.300151234766714570
0.561000000000000387,-3.285425264480031249
0.562000000000000388,-3.270706811699748862
0.563000000000000389,-3.255997285767966876
0.564000000000000390,-3.241298061473693259
0.565000000000000391,-3.226610479601982995
0.566000000000000392,-3.211935847480489770
0.567000000000000393,-3.197275439523239449
0.568000000000000393,-3.182630497771348654
0.569000000000000394,-3.168002232430493947
0.570000000000000395,-3.153391822404989497
0.571000000000000396,-3.138800415828153501
0.572000000000000397,-3.124229130588942027
0.573000000000000398,-3.109679054854539881
0.574000000000000399,-3.095151247588856513
0.575000000000000400,-3.080646739066696949
0.576000000000000401,-3.066166531383522464
0.577000000000000401,-3.051711598960681115
0.578000000000000402,-3.037282889045904710
0.579000000000000403,-3.022881322209041155
0.580000000000000404,-3.008507792832923133
0.581000000000000405,-2.994163169599171948
0.582000000000000406,-2.979848295969001359
0.583000000000000407,-2.965563990658776294
0.584000000000000408,-2.951311048110405455
0.585000000000000409,-2.937090238956375110
0.586000000000000409,-2.922902310479440935
0.587000000000000410,-2.908747987066903740
0.588000000000000411,-2.894627970659368721
0.589000000000000412,-2.880542941194062845
0.590000000000000413,-2.866493557042525175
0.591000000000000414,-2.852480455442751861
0.592000000000000415,-2.838504252925741156
0.593000000000000416,-2.824565545736359429
0.594000000000000417,-2.810664910248571680
0.595000000000000417,-2.796802903375064542
0.596000000000000418,-2.782980062971071256
0.597000000000000419,-2.769196908232658849
0.598000000000000420,-2.755453940089217735
0.599000000000000421,-2.741751641590352229
0.600000000000000422,-2.728090478287064080
0.601000000000000423,-2.714470898607276084
0.602000000000000424,-2.700893334225730857
0.603000000000000425,-2.687358200428241695
0.604000000000000425,-2.673865896470329684
0.605000000000000426,-2.660416805930275075
0.606000000000000427,-2.647011297056634849
0.607000000000000428,-2.633649723110142560
0.608000000000000429,-2.620332422700220043
0.609000000000000430,-2.607059720115880275
0.610000000000000431,-2.593831925651306936
0.611000000000000432,-2.580649335925959242
0.612000000000000433,-2.567512234199310850
0.613000000000000433,-2.554420890680299649
