# TiO2-ana-101_ACETYLENE-AC
# h[nm],U(h)[kJ/mol]
0.149999999999999994,74.813880725947797146
0.150999999999999995,73.799705683328184591
0.151999999999999996,72.800297820338016663
0.152999999999999997,71.770549099962209993
0.153999999999999998,70.717757575139174264
0.154999999999999999,69.662264916712132390
0.156000000000000000,68.621248172959539602
0.157000000000000001,67.604174013684442457
0.158000000000000002,66.613447171853181317
0.159000000000000002,65.646816450502868179
0.160000000000000003,64.699873519755641382
0.161000000000000004,63.767970296154558696
0.162000000000000005,62.847398776502565454
0.163000000000000006,61.935918974616754440
0.164000000000000007,61.032808300865021067
0.165000000000000008,60.138613572686480779
0.166000000000000009,59.254758440466744673
0.167000000000000010,58.383118736256243153
0.168000000000000010,57.525638733014531567
0.169000000000000011,56.684028219365430346
0.170000000000000012,55.859555409544761062
0.171000000000000013,55.052933730183667649
0.172000000000000014,54.264290231599112246
0.173000000000000015,53.493198243580238227
0.174000000000000016,52.738755462028109378
0.175000000000000017,51.999689646059039205
0.176000000000000018,51.274476517829953082
0.177000000000000018,50.561457538955352220
0.178000000000000019,49.858948463973462140
0.179000000000000020,49.165332604034006181
0.180000000000000021,48.479135376858366158
0.181000000000000022,47.799078880670769820
0.182000000000000023,47.124116891220204195
0.183000000000000024,46.453451869954960785
0.184000000000000025,45.786536342883344730
0.185000000000000026,45.123061431743806793
0.186000000000000026,44.462935463176201267
0.187000000000000027,43.806255515869580108
0.188000000000000028,43.153274551472229348
0.189000000000000029,42.504366464848899909
0.190000000000000030,41.859991026054878205
0.191000000000000031,41.220660303948406522
0.192000000000000032,40.586907785026710371
0.193000000000000033,39.959261048816721029
0.194000000000000034,39.338218544749324224
0.195000000000000034,38.724230741634897868
0.196000000000000035,38.117685692445014922
0.197000000000000036,37.518898873935327742
0.198000000000000037,36.928107020451356846
0.199000000000000038,36.345465570353184148
0.200000000000000039,35.771049277340594585
0.201000000000000040,35.204855502610868712
0.202000000000000041,34.646809692215406074
0.203000000000000042,34.096772552351204411
0.204000000000000042,33.554548459110549175
0.205000000000000043,33.019894674346666363
0.206000000000000044,32.492530982216486279
0.207000000000000045,31.972149408576921559
0.208000000000000046,31.458423735191008319
0.209000000000000047,30.951018570580437483
0.210000000000000048,30.449597787723423181
0.211000000000000049,29.953832184422843454
0.212000000000000050,29.463406264186858152
0.213000000000000050,28.978024073303128461
0.214000000000000051,28.497414063123830630
0.215000000000000052,28.021332975295319301
0.216000000000000053,27.549568771807855683
0.217000000000000054,27.081942651475703343
0.218000000000000055,26.618310210049195064
0.219000000000000056,26.158561812934454593
0.220000000000000057,25.702622257819967899
0.221000000000000058,25.250449809774458743
0.222000000000000058,24.802034693978637137
0.223000000000000059,24.357397131579183736
0.224000000000000060,23.916585002576375985
0.225000000000000061,23.479671216531109224
0.226000000000000062,23.046750867527070028
0.227000000000000063,22.617938244543488224
0.228000000000000064,22.193363762447720688
0.229000000000000065,21.773170872435059664
0.230000000000000066,21.357513004127952172
0.231000000000000066,20.946550584866056255
0.232000000000000067,20.540448175118065421
0.233000000000000068,20.139371752538153260
0.234000000000000069,19.743486171070596669
0.235000000000000070,19.352952815743101667
0.236000000000000071,18.967927468437771665
0.237000000000000072,18.588558395020637448
0.238000000000000073,18.214984659769928754
0.239000000000000073,17.847334669077746128
0.240000000000000074,17.485724942906294643
0.241000000000000075,17.130259109451998256
0.242000000000000076,16.781027115889244783
0.243000000000000077,16.438104645909401569
0.244000000000000078,16.101552733015466856
0.245000000000000079,15.771417557147685784
0.246000000000000080,15.447730411173299814
0.247000000000000081,15.130507823039863524
0.248000000000000081,14.819751818937991317
0.249000000000000082,14.515450312612784955
0.250000000000000111,14.217577605974151211
0.251000000000000112,13.926094986355465721
0.252000000000000113,13.640951406129962820
0.253000000000000114,13.362084230889163194
0.254000000000000115,13.089420042992747639
0.255000000000000115,12.822875487993258048
0.256000000000000116,12.562358152200706840
0.257000000000000117,12.307767460463709952
0.258000000000000118,12.058995584089004183
0.259000000000000119,11.815928349684785559
0.260000000000000120,11.578446140583013246
0.261000000000000121,11.346424783360752997
0.262000000000000122,11.119736412830572903
0.263000000000000123,10.898250309697852245
0.264000000000000123,10.681833705881039975
0.265000000000000124,10.470352553254938854
0.266000000000000125,10.263672252302040278
0.267000000000000126,10.061658337840047039
0.268000000000000127,9.864177119632199009
0.269000000000000128,9.671096276280303883
0.270000000000000129,9.482285401346386422
0.271000000000000130,9.297616501148741719
0.272000000000000131,9.116964444131458123
0.273000000000000131,8.940207362114389156
0.274000000000000132,8.767227004094340970
0.275000000000000133,8.597909043589046618
0.276000000000000134,8.432143340795807518
0.277000000000000135,8.269824161077838909
0.278000000000000136,8.110850351495798805
0.279000000000000137,7.955125477271835166
0.280000000000000138,7.802557920211485865
0.281000000000000139,7.653060941216223156
0.282000000000000139,7.506552709100125398
0.283000000000000140,7.362956297978904274
0.284000000000000141,7.222199655531949425
0.285000000000000142,7.084215544449224744
0.286000000000000143,6.948941459367770968
0.287000000000000144,6.816319521578838803
0.288000000000000145,6.686296353748195642
0.289000000000000146,6.558822936841325557
0.290000000000000147,6.433854451382887696
0.291000000000000147,6.311350105108675557
0.292000000000000148,6.191272948988782332
0.293000000000000149,6.073589683515296045
0.294000000000000150,5.958270457056962677
0.295000000000000151,5.845288657988574776
0.296000000000000152,5.734620702205477372
0.297000000000000153,5.626245817534263338
0.298000000000000154,5.520145826450510107
0.299000000000000155,5.416304928414127140
0.300000000000000155,5.314709483033174031
0.301000000000000156,5.215347795168502110
0.302000000000000157,5.118209902994822258
0.303000000000000158,5.023287369939427371
0.304000000000000159,4.930573081327888296
0.305000000000000160,4.840061046477365458
0.306000000000000161,4.751746206892595303
0.307000000000000162,4.665624251137616696
0.308000000000000163,4.581691436878173818
0.309000000000000163,4.499944420515118892
0.310000000000000164,4.420380094758767697
0.311000000000000165,4.342995434427662005
0.312000000000000166,4.267787350692671566
0.313000000000000167,4.194752553928935868
0.314000000000000168,4.123887425283756514
0.315000000000000169,4.055187897017914267
0.316000000000000170,3.988649341631291811
0.317000000000000171,3.924266469740815833
0.318000000000000171,3.862033236639489164
0.319000000000000172,3.801942757429617181
0.320000000000000173,3.743987230591119264
0.321000000000000174,3.688157869816946821
0.322000000000000175,3.634444843921706081
0.323000000000000176,3.582837224606942872
0.324000000000000177,3.533322941846579024
0.325000000000000178,3.485888746638815316
0.326000000000000179,3.440520180856082355
0.327000000000000179,3.397201553912517991
0.328000000000000180,3.355915925958395718
0.329000000000000181,3.316645097302966860
0.330000000000000182,3.279369603761504326
0.331000000000000183,3.244068717617956565
0.332000000000000184,3.210720453892473181
0.333000000000000185,3.179301581602035576
0.334000000000000186,3.149787639703095721
0.335000000000000187,3.122152957406933105
0.336000000000000187,3.096370678561479739
0.337000000000000188,3.072412789797565491
0.338000000000000189,3.050250152142426785
0.339000000000000190,3.029852535809359093
0.340000000000000191,3.011188657879034558
0.341000000000000192,2.994226222595293141
0.342000000000000193,2.978931964006120925
0.343000000000000194,2.965271690688897177
0.344000000000000195,2.953210332307909081
0.345000000000000195,2.942711987761015724
0.346000000000000196,2.933739974682051166
0.347000000000000197,2.926256880075008837
0.348000000000000198,2.920224611865813724
0.349000000000000199,2.915604451167523425
0.350000000000000200,2.912357105064535823
0.351000000000000201,2.910442759731531659
0.352000000000000202,2.909821133712627184
0.353000000000000203,2.910451531196149855
0.354000000000000203,2.912292895130135228
0.355000000000000204,2.915303860033356287
0.356000000000000205,2.919442804366000566
0.357000000000000206,2.924667902333464298
0.358000000000000207,2.930937175005838391
0.359000000000000208,2.938208540644410505
0.360000000000000209,2.946439864135130815
0.361000000000000210,2.955589005437426753
0.362000000000000210,2.965613866964725620
0.363000000000000211,2.976472439820960769
0.364000000000000212,2.988122848824787958
0.365000000000000213,3.000523396260584175
0.366000000000000214,3.013632604302200146
0.367000000000000215,3.027409256062149723
0.368000000000000216,3.041812435225264011
0.369000000000000217,3.056801564231997226
0.370000000000000218,3.072336440982264882
0.371000000000000218,3.088377274036346876
0.372000000000000219,3.104884716294439517
0.373000000000000220,3.121819897141555167
0.374000000000000221,3.139144453048955175
0.375000000000000222,3.156820556627907060
0.376000000000000223,3.174810944135419977
0.377000000000000224,3.193078941435709250
0.378000000000000225,3.211588488424605092
0.379000000000000226,3.230304161927551654
0.380000000000000226,3.249191197084895233
0.381000000000000227,3.268215507241158058
0.382000000000000228,3.287343702357532926
0.383000000000000229,3.306543105969350194
0.384000000000000230,3.325781770712573859
0.385000000000000231,3.345028492445202062
0.386000000000000232,3.364252822991589564
0.387000000000000233,3.383425081539105150
0.388000000000000234,3.402516364718214170
0.389000000000000234,3.421498555398271524
0.390000000000000235,3.440344330232517844
0.391000000000000236,3.459027165986770846
0.392000000000000237,3.477521344687180882
0.393000000000000238,3.495801957623085876
0.394000000000000239,3.513844908241638532
0.395000000000000240,3.531626913971360526
0.396000000000000241,3.549125507012059533
0.397000000000000242,3.566319034128891730
0.398000000000000242,3.583186655488391548
0.399000000000000243,3.599708342574388098
0.400000000000000244,3.615864875221762365
0.401000000000000245,3.631637837805641311
0.402000000000000246,3.647009614623724527
0.403000000000000247,3.661963384508916786
0.404000000000000248,3.676483114709242273
0.405000000000000249,3.690553554071518416
0.406000000000000250,3.704160225564925746
0.407000000000000250,3.717289418179938743
0.408000000000000251,3.729928178237705616
0.409000000000000252,3.742064300144222866
0.410000000000000253,3.753686316623064734
0.411000000000000254,3.764783488459804150
0.412000000000000255,3.775345793790464199
0.413000000000000256,3.785363916965690301
0.414000000000000257,3.794829237021549950
0.415000000000000258,3.803733815787077255
0.416000000000000258,3.812070385657947647
0.417000000000000259,3.819832337064777761
0.418000000000000260,3.827013705663831811
0.419000000000000261,3.833609159277004075
0.420000000000000262,3.839613984607160635
0.421000000000000263,3.845024073754099270
0.422000000000000264,3.849835910555495566
0.423000000000000265,3.854046556776462573
0.424000000000000266,3.857653638170360999
0.425000000000000266,3.860655330432867682
0.426000000000000267,3.863050345070273117
0.427000000000000268,3.864837915202333107
0.428000000000000269,3.866017781319073698
0.429000000000000270,3.866590177010156282
0.430000000000000271,3.866555814684704107
0.431000000000000272,3.865915871298573059
0.432000000000000273,3.864671974105382102
0.433000000000000274,3.862826186446805199
0.434000000000000274,3.860380993596908006
0.435000000000000275,3.857339288674551003
0.436000000000000276,3.853704358637195071
0.437000000000000277,3.849479870368720302
0.438000000000000278,3.844669856873189850
0.439000000000000279,3.839278703585814245
0.440000000000000280,3.833311134811732135
0.441000000000000281,3.826772200302579030
0.442000000000000282,3.819667261980155271
0.443000000000000282,3.812001980816000835
0.444000000000000283,3.803782303874951420
0.445000000000000284,3.795014451530327904
0.446000000000000285,3.785704904857780662
0.447000000000000286,3.775860393214247157
0.448000000000000287,3.765487882008045517
0.449000000000000288,3.754594560665576175
0.450000000000000289,3.743187830799597382
0.451000000000000290,3.731275294583644264
0.452000000000000290,3.718864743336644185
0.453000000000000291,3.705964146321372166
0.454000000000000292,3.692581639759979772
0.455000000000000293,3.678725516069434320
0.456000000000000294,3.664404213319270021
0.457000000000000295,3.649626304913777375
0.458000000000000296,3.634400489500289044
0.459000000000000297,3.618735581104988164
0.460000000000000298,3.602640499497256066
0.461000000000000298,3.586124260783319251
0.462000000000000299,3.569195968229640581
0.463000000000000300,3.551864803316223451
0.464000000000000301,3.534140017019701041
0.465000000000000302,3.516030921325889125
0.466000000000000303,3.497546880971184269
0.467000000000000304,3.478697305411968976
0.468000000000000305,3.459491641020988162
0.469000000000000306,3.439939363509442849
0.470000000000000306,3.420049970573363574
0.471000000000000307,3.399832974762600379
0.472000000000000308,3.379297896570685911
0.473000000000000309,3.358454257743552773
0.474000000000000310,3.337311574805033931
0.475000000000000311,3.315879352796858193
0.476000000000000312,3.294167079230809314
0.477000000000000313,3.272184218250461463
0.478000000000000314,3.249940204999964610
0.479000000000000314,3.227444440197064779
0.480000000000000315,3.204706284907615554
0.481000000000000316,3.181735055518616573
0.482000000000000317,3.158540018906816460
0.483000000000000318,3.135130387799809792
0.484000000000000319,3.111515316326499470
0.485000000000000320,3.087703895753736827
0.486000000000000321,3.063705150405898081
0.487000000000000322,3.039528033764100634
0.488000000000000322,3.015181424741752103
0.489000000000000323,2.990674124133048117
0.490000000000000324,2.966014851231032257
0.491000000000000325,2.941212240611819073
0.492000000000000326,2.916274839081506087
0.493000000000000327,2.891211102782379694
0.494000000000000328,2.866029394454895129
0.495000000000000329,2.840737980852029665
0.496000000000000330,2.815345030302484286
0.497000000000000330,2.789858610419306828
0.498000000000000331,2.764286685950472666
0.499000000000000332,2.738637116767984381
0.500000000000000333,2.712917655992012289
0.501000000000000334,2.687135948246736739
0.502000000000000335,2.661299528044398066
0.503000000000000336,2.635415818294283508
0.504000000000000337,2.609492128933195154
0.505000000000000338,2.583535655674147780
0.506000000000000338,2.557553478869967201
0.507000000000000339,2.531552562488526892
0.508000000000000340,2.505539753196399211
0.509000000000000341,2.479521779547721572
0.510000000000000342,2.453505251275111210
0.511000000000000343,2.427496658679516806
0.512000000000000344,2.401502372115912554
0.513000000000000345,2.375528641571813981
0.514000000000000346,2.349581596335585942
0.515000000000000346,2.323667244751628225
0.516000000000000347,2.297791474059486472
0.517000000000000348,2.271960050314062229
0.518000000000000349,2.246178618384053305
0.519000000000000350,2.220452702025925706
0.520000000000000351,2.194787704030604303
0.521000000000000352,2.169188906440279396
0.522000000000000353,2.143661470832666893
0.523000000000000353,2.118210438670121043
0.524000000000000354,2.092840731711143487
0.525000000000000355,2.067557152481696470
0.526000000000000356,2.042364384804007393
0.527000000000000357,2.017266994380396916
0.528000000000000358,1.992269429429813332
0.529000000000000359,1.967376021374837025
0.530000000000000360,1.942590985576867268
0.531000000000000361,1.917918422117328658
0.532000000000000361,1.893362316622773323
0.533000000000000362,1.868926541131764152
0.534000000000000363,1.844614855001551090
0.535000000000000364,1.820430905852485237
0.536000000000000365,1.796378230548302257
0.537000000000000366,1.772460256210330654
0.538000000000000367,1.748680301263809245
0.539000000000000368,1.725041576514499964
0.540000000000000369,1.701547186253860700
0.541000000000000369,1.678200129391058892
0.542000000000000370,1.655003300610184969
0.543000000000000371,1.631959491551034702
0.544000000000000372,1.609071392011899082
0.545000000000000373,1.586341591172847343
0.546000000000000374,1.563772578837995697
0.547000000000000375,1.541366746695355561
0.548000000000000376,1.519126389592837523
0.549000000000000377,1.497053706829085895
0.550000000000000377,1.475150803457788484
0.551000000000000378,1.453419691604232344
0.552000000000000379,1.431862291792856734
0.553000000000000380,1.410480434284584472
0.554000000000000381,1.389275860422826137
0.555000000000000382,1.368250223986988257
0.556000000000000383,1.347405092552438344
0.557000000000000384,1.326741948855869824
0.558000000000000385,1.306262192165061453
0.559000000000000385,1.285967139652047120
0.560000000000000386,1.265858027768778538
0.561000000000000387,1.245936013624353134
0.562000000000000388,1.226202176362952700
0.563000000000000389,1.206657518541623064
0.564000000000000390,1.187302967507132934
0.565000000000000391,1.168139376771085702
0.566000000000000392,1.149167527382572329
0.567000000000000393,1.130388129297622779
0.568000000000000393,1.111801822744790780
0.569000000000000394,1.093409179586171343
0.570000000000000395,1.075210704673283724
0.571000000000000396,1.057206837197140370
0.572000000000000397,1.039397952031965833
0.573000000000000398,1.021784361072007874
0.574000000000000399,1.004366314560898754
0.575000000000000400,0.987144002413063104
0.576000000000000401,0.970117555526710640
0.577000000000000401,0.953287047087925443
0.578000000000000402,0.936652493865437585
0.579000000000000403,0.920213857495663978
0.580000000000000404,0.903971045757609559
0.581000000000000405,0.887923913837282752
0.582000000000000406,0.872072265581246953
0.583000000000000407,0.856415854738994620
0.584000000000000408,0.840954386193827452
0.585000000000000409,0.825687517181956765
0.586000000000000409,0.810614858499522528
0.587000000000000410,0.795735975697302589
0.588000000000000411,0.781050390262863159
0.589000000000000412,0.766557580789905546
0.590000000000000413,0.752256984134631823
0.591000000000000414,0.738147996558913499
0.592000000000000415,0.724229974860093884
0.593000000000000416,0.710502237487259047
0.594000000000000417,0.696964065643822850
0.595000000000000417,0.683614704376307891
0.596000000000000418,0.670453363649161083
0.597000000000000419,0.657479219405548543
0.598000000000000420,0.644691414613976055
0.599000000000000421,0.632089060300691896
0.600000000000000422,0.619671236567763684
0.601000000000000423,0.607436993596804475
0.602000000000000424,0.595385352638254539
0.603000000000000425,0.583515306986189586
0.604000000000000425,0.571825822938649586
0.605000000000000426,0.560315840743428994
0.606000000000000427,0.548984275529317389
0.607000000000000428,0.537830018222830608
0.608000000000000429,0.526851936450345448
0.609000000000000430,0.516048875425771603
0.610000000000000431,0.505419658823654583
0.611000000000000432,0.494963089637827314
0.612000000000000433,0.484677951025612175
0.613000000000000433,0.474563007137589477
0.614000000000000434,0.464617003933035566
0.615000000000000435,0.454838669981031785
0.616000000000000436,0.445226717247337589
0.617000000000000437,0.435779841867067919
0.618000000000000438,0.426496724903277946
0.619000000000000439,0.417376033091496457
0.620000000000000440,0.408416419570316158
0.621000000000000441,0.399616524598108869
