# CNT15-COOH-30_AMAN-AC
# h[nm],U(h)[kJ/mol]
0.149999999999999994,216.642549977766122993
0.150999999999999995,212.715738543150735040
0.151999999999999996,210.389402322533726419
0.152999999999999997,208.495915770535987122
0.153999999999999998,206.569029190612440061
0.154999999999999999,204.485592269843948543
0.156000000000000000,202.268030072160172494
0.157000000000000001,199.982558930267060759
0.158000000000000002,197.692324309513651315
0.159000000000000002,195.440412257094578763
0.160000000000000003,193.247813083328111361
0.161000000000000004,191.117801729303522507
0.162000000000000005,189.042133921097871507
0.163000000000000006,187.006808950224382215
0.164000000000000007,184.996497559582593340
0.165000000000000008,182.997458435867173421
0.166000000000000009,180.999117196000867125
0.167000000000000010,178.994615977873365864
0.168000000000000010,176.980658895660241114
0.169000000000000011,174.956938903205696079
0.170000000000000012,172.925370170853824447
0.171000000000000013,170.889286240379448145
0.172000000000000014,168.852707565553885161
0.173000000000000015,166.819736389807218302
0.174000000000000016,164.794102836746048979
0.175000000000000017,162.778862512560579034
0.176000000000000018,160.776231050852260296
0.177000000000000018,158.787532917288984891
0.178000000000000019,156.813238610528600248
0.179000000000000020,154.853064588194200724
0.180000000000000021,152.906112560092481090
0.181000000000000022,150.971028270480076117
0.182000000000000023,149.046163844876730309
0.183000000000000024,147.129731730652849819
0.184000000000000025,145.219941912809616724
0.185000000000000026,143.315117266159774090
0.186000000000000026,141.413784536477947995
0.187000000000000027,139.514740515639005025
0.188000000000000028,137.617094521365800119
0.189000000000000029,135.720289368124269913
0.190000000000000030,133.824103691467939825
0.191000000000000031,131.928638836764179132
0.192000000000000032,130.034293615280233780
0.193000000000000033,128.141730130539002630
0.194000000000000034,126.251833642081550124
0.195000000000000034,124.365669109852518659
0.196000000000000035,122.484436689100604667
0.197000000000000036,120.609428053443096474
0.198000000000000037,118.741985035614249000
0.199000000000000038,116.883461708029329884
0.200000000000000039,115.035190689857159896
0.201000000000000040,113.198454170604890123
0.202000000000000041,111.374459885603684484
0.203000000000000042,109.564322066887413598
0.204000000000000042,107.769047222451902712
0.205000000000000043,105.989524465085125371
0.206000000000000044,104.226520015265009533
0.207000000000000045,102.480675436947379353
0.208000000000000046,100.752509126102651749
0.209000000000000047,99.042420555322678410
0.210000000000000048,97.350696779600042419
0.211000000000000049,95.677520724676696773
0.212000000000000050,94.022980806697177059
0.213000000000000050,92.387081467244883015
0.214000000000000051,90.769754248529565643
0.215000000000000052,89.170869077293787086
0.216000000000000053,87.590245471053961523
0.217000000000000054,86.027663425089144766
0.218000000000000055,84.482873781952577019
0.219000000000000056,82.955607926321334844
0.220000000000000057,81.445586686062952708
0.221000000000000058,79.952528355070313637
0.222000000000000058,78.476155784423809791
0.223000000000000059,77.016202515701621678
0.224000000000000060,75.572417953769033261
0.225000000000000061,74.144571596255303803
0.226000000000000062,72.732456353341802924
0.227000000000000063,71.335891004668852133
0.228000000000000064,69.954721850381119452
0.229000000000000065,68.588823620856132379
0.230000000000000066,67.238099714787736616
0.231000000000000066,65.902481838321463670
0.232000000000000067,64.581929119143481444
0.233000000000000068,63.276426769084288537
0.234000000000000069,61.985984367171326426
0.235000000000000070,60.710633832384338859
0.236000000000000071,59.450427151859187802
0.237000000000000072,58.205433926137899903
0.238000000000000073,56.975738788457078954
0.239000000000000073,55.761438750154567856
0.240000000000000074,54.562640519185663379
0.241000000000000075,53.379457833597271588
0.242000000000000076,52.212008846698175546
0.243000000000000077,51.060413595672962117
0.244000000000000078,49.924791580575359262
0.245000000000000079,48.805259476056519929
0.246000000000000080,47.701928993874808782
0.247000000000000081,46.614904910218974976
0.248000000000000081,45.544283268180073776
0.249000000000000082,44.490149762335704509
0.250000000000000111,43.452578309367211773
0.251000000000000112,42.431629805915306974
0.252000000000000113,41.427351072482146321
0.253000000000000114,40.439773980102955875
0.254000000000000115,39.468914754716244886
0.255000000000000115,38.514773452650068464
0.256000000000000116,37.577333599389326935
0.257000000000000117,36.656561982779649611
0.258000000000000118,35.752408591038388863
0.259000000000000119,34.864806685359283733
0.260000000000000120,33.993672996498901284
0.261000000000000121,33.138908034498903987
0.262000000000000122,32.300396500609700468
0.263000000000000123,31.478007790521793652
0.264000000000000123,30.671596578161956614
0.265000000000000124,29.881003469559203722
0.266000000000000125,29.106055716612512896
0.267000000000000126,28.346567980987277480
0.268000000000000127,27.602343138815161439
0.269000000000000128,26.873173117364189011
0.270000000000000129,26.158839755368624935
0.271000000000000130,25.459115679253613962
0.272000000000000131,24.773765188050937525
0.273000000000000131,24.102545140367912069
0.274000000000000132,23.445205837339873511
0.275000000000000133,22.801491896058124098
0.276000000000000134,22.171143108516940146
0.277000000000000135,21.553895281661819894
0.278000000000000136,20.949481054639960576
0.279000000000000137,20.357630689853682071
0.280000000000000138,19.778072834895336740
0.281000000000000139,19.210535252892960045
0.282000000000000139,18.654745519224327666
0.283000000000000140,18.110431682956082966
0.284000000000000141,17.577322891739047606
0.285000000000000142,17.055149979236208679
0.286000000000000143,16.543646014479598705
0.287000000000000144,16.042546812844999948
0.288000000000000145,15.551591408599033883
0.289000000000000146,15.070522489215838036
0.290000000000000147,14.599086791875350855
0.291000000000000147,14.137035462749835801
0.292000000000000148,13.684124379854333498
0.293000000000000149,13.240114440387291239
0.294000000000000150,12.804771813615193565
0.295000000000000151,12.377868160465895997
0.296000000000000152,11.959180821086668800
0.297000000000000153,11.548492971699028331
0.298000000000000154,11.145593752141955690
0.299000000000000155,10.750278365541321435
0.300000000000000155,10.362348151575819344
0.301000000000000156,9.981610634831065809
0.302000000000000157,9.607879549742731840
0.303000000000000158,9.240974843630727520
0.304000000000000159,8.880722659317260792
0.305000000000000160,8.526955298805500405
0.306000000000000161,8.179511169472156951
0.307000000000000162,7.838234714197882980
0.308000000000000163,7.502976326824677855
0.309000000000000163,7.173592254290396042
0.310000000000000164,6.849944486747067351
0.311000000000000165,6.531900636923755776
0.312000000000000166,6.219333809945543301
0.313000000000000167,5.912122464769423047
0.314000000000000168,5.610150268345390323
0.315000000000000169,5.313305943557272926
0.316000000000000170,5.021483111943625843
0.317000000000000171,4.734580132144562192
0.318000000000000171,4.452499934965719497
0.319000000000000172,4.175149855896164830
0.320000000000000173,3.902441465863822678
0.321000000000000174,3.634290400958968270
0.322000000000000175,3.370616191804544748
0.323000000000000176,3.111342093201771242
0.324000000000000177,2.856394914630085324
0.325000000000000178,2.605704852133176708
0.326000000000000179,2.359205322076345812
0.327000000000000179,2.116832797216570583
0.328000000000000180,1.878526645483723501
0.329000000000000181,1.644228971830722141
0.330000000000000182,1.413884463471558384
0.331000000000000183,1.187440238788760150
0.332000000000000184,0.964845700157076713
0.333000000000000185,0.746052390896507545
0.334000000000000186,0.531013856536461937
0.335000000000000187,0.319685510543271767
0.336000000000000187,0.112024504635123284
0.337000000000000188,-0.092010396216807955
0.338000000000000189,-0.292458934027523321
0.339000000000000190,-0.489359473226103625
0.340000000000000191,-0.682749111241829687
0.341000000000000192,-0.872663784237650453
0.342000000000000193,-1.059138367997794150
0.343000000000000194,-1.242206773992861946
0.344000000000000195,-1.421902040660170119
0.345000000000000195,-1.598256419951758600
0.346000000000000196,-1.771301459213574958
0.347000000000000197,-1.941068078471455349
0.348000000000000198,-2.107586643208749333
0.349000000000000199,-2.270887032729620891
0.350000000000000200,-2.430998704209708539
0.351000000000000201,-2.587950752542549360
0.352000000000000202,-2.741771966096017366
0.353000000000000203,-2.892490878498067186
0.354000000000000203,-3.040135816575249894
0.355000000000000204,-3.184734944570543291
0.356000000000000205,-3.326316304770068566
0.357000000000000206,-3.464907854670315146
0.358000000000000207,-3.600537500818271841
0.359000000000000208,-3.733233129458450428
0.360000000000000209,-3.863022634120790944
0.361000000000000210,-3.989933940282903713
0.362000000000000210,-4.113995027240193281
0.363000000000000211,-4.235233947315769854
0.364000000000000212,-4.353678842541060412
0.365000000000000213,-4.469357958936155839
0.366000000000000214,-4.582299658517011487
0.367000000000000215,-4.692532429154272933
0.368000000000000216,-4.800084892406286663
0.369000000000000217,-4.904985809445641110
0.370000000000000218,-5.007264085196417192
0.371000000000000218,-5.106948770795570525
0.372000000000000219,-5.204069064489337038
0.373000000000000220,-5.298654311071993916
0.374000000000000221,-5.390733999970988677
0.375000000000000222,-5.480337762078876906
0.376000000000000223,-5.567495365429693699
0.377000000000000224,-5.652236709812919813
0.378000000000000225,-5.734591820415487540
0.379000000000000226,-5.814590840578216735
0.380000000000000226,-5.892264023750023227
0.381000000000000227,-5.967641724719095819
0.382000000000000228,-6.040754390197440316
0.383000000000000229,-6.111632548831193112
0.384000000000000230,-6.180306800705928083
0.385000000000000231,-6.246807806412930653
0.386000000000000232,-6.311166275738723463
0.387000000000000233,-6.373412956037416421
0.388000000000000234,-6.433578620341688925
0.389000000000000234,-6.491694055265670116
0.390000000000000235,-6.547790048749516423
0.391000000000000236,-6.601897377692816704
0.392000000000000237,-6.654046795520893731
0.393000000000000238,-6.704269019725535017
0.394000000000000239,-6.752594719418603120
0.395000000000000240,-6.799054502934825273
0.396000000000000241,-6.843678905517225353
0.397000000000000242,-6.886498377116227587
0.398000000000000242,-6.927543270331417702
0.399000000000000243,-6.966843828522260473
0.400000000000000244,-7.004430174112286522
0.401000000000000245,-7.040332297109053172
0.402000000000000246,-7.074580043859944212
0.403000000000000247,-7.107203106062542020
0.404000000000000248,-7.138231010045833713
0.405000000000000249,-7.167693106337322817
0.406000000000000250,-7.195618559529073366
0.407000000000000250,-7.222036338454392634
0.408000000000000251,-7.246975206685259074
0.409000000000000252,-7.270463713359188951
0.410000000000000253,-7.292530184342955302
0.411000000000000254,-7.313202713739217486
0.412000000000000255,-7.332509155740948970
0.413000000000000256,-7.350477116837602409
0.414000000000000257,-7.367133948375466090
0.415000000000000258,-7.382506739474264279
0.416000000000000258,-7.396622310300474901
0.417000000000000259,-7.409507205697583920
0.418000000000000260,-7.421187689172155544
0.419000000000000261,-7.431689737234267845
0.420000000000000262,-7.441039034089769189
0.421000000000000263,-7.449260966681630514
0.422000000000000264,-7.456380620076453525
0.423000000000000265,-7.462422773192281866
0.424000000000000266,-7.467411894862965305
0.425000000000000266,-7.471372140233846437
0.426000000000000267,-7.474327347483381345
0.427000000000000268,-7.476301034864714090
0.428000000000000269,-7.477316398060867009
0.429000000000000270,-7.477396307847127055
0.430000000000000271,-7.476563308053584933
0.431000000000000272,-7.474839613820913442
0.432000000000000273,-7.472247110141931437
0.433000000000000274,-7.468807350681609947
0.434000000000000274,-7.464541556867757777
0.435000000000000275,-7.459470617244670976
0.436000000000000276,-7.453615087081947976
0.437000000000000277,-7.446995188230355112
0.438000000000000278,-7.439630809216882135
0.439000000000000279,-7.431541505570916861
0.440000000000000280,-7.422746500373373024
0.441000000000000281,-7.413264685020782174
0.442000000000000282,-7.403114620196392437
0.443000000000000282,-7.392314537039969657
0.444000000000000283,-7.380882338508655494
0.445000000000000284,-7.368835600920716544
0.446000000000000285,-7.356191575674392524
0.447000000000000286,-7.342967191134226468
0.448000000000000287,-7.329179054676911775
0.449000000000000288,-7.314843454889375707
0.450000000000000289,-7.299976363911412136
0.451000000000000290,-7.284593439915589386
0.452000000000000290,-7.268710029717309062
0.453000000000000291,-7.252341171507706186
0.454000000000000292,-7.235501597702631571
0.455000000000000293,-7.218205737900794006
0.456000000000000294,-7.200467721944387556
0.457000000000000295,-7.182301383075801127
0.458000000000000296,-7.163720261183828875
0.459000000000000297,-7.144737606133411134
0.460000000000000298,-7.125366381172635322
0.461000000000000298,-7.105619266411269841
0.462000000000000299,-7.085508662365026744
0.463000000000000300,-7.065046693559888347
0.464000000000000301,-7.044245212191311722
0.465000000000000302,-7.023115801832878091
0.466000000000000303,-7.001669781189304054
0.467000000000000304,-6.979918207889089565
0.468000000000000305,-6.957871882311779999
0.469000000000000306,-6.935541351445405844
0.470000000000000306,-6.912936912769727549
0.471000000000000307,-6.890068618160744229
0.472000000000000308,-6.866946277812621346
0.473000000000000309,-6.843579464172947269
0.474000000000000310,-6.819977515887464037
0.475000000000000311,-6.796149541750672540
0.476000000000000312,-6.772104424658840216
0.477000000000000313,-6.747850825561928723
0.478000000000000314,-6.723397187411239706
0.479000000000000314,-6.698751739099852109
0.480000000000000315,-6.673922499392634045
0.481000000000000316,-6.648917280843305022
0.482000000000000317,-6.623743693695627321
0.483000000000000318,-6.598409149766356840
0.484000000000000319,-6.572920866307436327
0.485000000000000320,-6.547285869845171469
0.486000000000000321,-6.521510999994215574
0.487000000000000322,-6.495602913244336030
0.488000000000000322,-6.469568086717853994
0.489000000000000323,-6.443412821896248310
0.490000000000000324,-6.417143248313882609
0.491000000000000325,-6.390765327217430070
0.492000000000000326,-6.364284855189374035
0.493000000000000327,-6.337707467734320588
0.494000000000000328,-6.311038642826600764
0.495000000000000329,-6.284283704418156091
0.496000000000000330,-6.257447825905357419
0.497000000000000330,-6.230536033554002096
0.498000000000000331,-6.203553209881095931
0.499000000000000332,-6.176504096993069126
0.500000000000000333,-6.149393299879223562
0.501000000000000334,-6.122225289659800396
0.502000000000000335,-6.095004406788135931
0.503000000000000336,-6.067734864206163259
0.504000000000000337,-6.040420750452872412
0.505000000000000338,-6.013066032725200571
0.506000000000000338,-5.985674559891021040
0.507000000000000339,-5.958250065453897903
0.508000000000000340,-5.930796170469273321
0.509000000000000341,-5.903316386412080341
0.510000000000000342,-5.875814117995309616
0.511000000000000343,-5.848292665939783141
0.512000000000000344,-5.820755229694727362
0.513000000000000345,-5.793204910109409411
0.514000000000000346,-5.765644712055758347
0.515000000000000346,-5.738077547002020218
0.516000000000000347,-5.710506235537579300
0.517000000000000348,-5.682933509849203091
0.518000000000000349,-5.655362016148687943
0.519000000000000350,-5.627794317052377870
0.520000000000000351,-5.600232893912555632
0.521000000000000352,-5.572680149101262970
0.522000000000000353,-5.545138408246609529
0.523000000000000353,-5.517609922422067825
0.524000000000000354,-5.490096870289120190
0.525000000000000355,-5.462601360193550804
0.526000000000000356,-5.435125432215867747
0.527000000000000357,-5.407671060176330258
0.528000000000000358,-5.380240153594892938
0.529000000000000359,-5.352834559606742815
0.530000000000000360,-5.325456064833677061
0.531000000000000361,-5.298106397212079877
0.532000000000000361,-5.270787227777806727
0.533000000000000362,-5.243500172408642079
0.534000000000000363,-5.216246793524791592
0.535000000000000364,-5.189028601748070457
0.536000000000000365,-5.161847057520188464
0.537000000000000366,-5.134703572680920480
0.538000000000000367,-5.107599512006489206
0.539000000000000368,-5.080536194709051934
0.540000000000000369,-5.053514895897571968
0.541000000000000369,-5.026536848000970892
0.542000000000000370,-4.999603242153906280
0.543000000000000371,-4.972715229545988436
0.544000000000000372,-4.945873922734920214
0.545000000000000373,-4.919080396924277565
0.546000000000000374,-4.892335691206429971
0.547000000000000375,-4.865640809771294428
0.548000000000000376,-4.838996723081582907
0.549000000000000377,-4.812404369015038874
0.550000000000000377,-4.785864653974401861
0.551000000000000378,-4.759378453965597444
0.552000000000000379,-4.732946615644921806
0.553000000000000380,-4.706569957335675625
0.554000000000000381,-4.680249270014909868
0.555000000000000382,-4.653985318271026905
0.556000000000000383,-4.627778841232521145
0.557000000000000384,-4.601630553468870843
0.558000000000000385,-4.575541145863771142
0.559000000000000385,-4.549511286461610737
0.560000000000000386,-4.523541621287606951
0.561000000000000387,-4.497632775142237804
0.562000000000000388,-4.471785352370496014
0.563000000000000389,-4.445999937606645247
0.564000000000000390,-4.420277096494901414
0.565000000000000391,-4.394617376386689145
0.566000000000000392,-4.369021307014985922
0.567000000000000393,-4.343489401146362283
0.568000000000000393,-4.318022155211106217
0.569000000000000394,-4.292620049912122759
0.570000000000000395,-4.267283550813095516
0.571000000000000396,-4.242013108906282248
0.572000000000000397,-4.216809161160728792
0.573000000000000398,-4.191672131051094929
0.574000000000000399,-4.166602429067848945
0.575000000000000400,-4.141600453209131061
0.576000000000000401,-4.116666589454839986
0.577000000000000401,-4.091801212223506568
0.578000000000000402,-4.067004684812192572
0.579000000000000403,-4.042277359820058535
0.580000000000000404,-4.017619579556053644
0.581000000000000405,-3.993031676430985666
0.582000000000000406,-3.968513973334648171
0.583000000000000407,-3.944066783998196435
0.584000000000000408,-3.919690413342395097
0.585000000000000409,-3.895385157811997345
0.586000000000000409,-3.871151305696705514
0.587000000000000410,-3.846989137439182027
0.588000000000000411,-3.822898925930318992
0.589000000000000412,-3.798880936792389029
0.590000000000000413,-3.774935428650193270
0.591000000000000414,-3.751062653390746071
0.592000000000000415,-3.727262856411836189
0.593000000000000416,-3.703536276859693999
0.594000000000000417,-3.679883147856200853
0.595000000000000417,-3.656303696716089568
0.596000000000000418,-3.632798145154084501
0.597000000000000419,-3.609366709482829005
0.598000000000000420,-3.586009600801389752
0.599000000000000421,-3.562727025175069340
0.600000000000000422,-3.539519183806517422
0.601000000000000423,-3.516386273198609302
0.602000000000000424,-3.493328485309332709
0.603000000000000425,-3.470346007698922985
0.604000000000000425,-3.447439023669549130
0.605000000000000426,-3.424607712397799819
0.606000000000000427,-3.401852249060330458
0.607000000000000428,-3.379172804952612186
0.608000000000000429,-3.356569547601549797
0.609000000000000430,-3.334042640871596408
0.610000000000000431,-3.311592245065146933
0.611000000000000432,-3.289218517017057142
0.612000000000000433,-3.266921610183668889
