# CNT15-COOH-30_GLNSCA-JS
# h[nm],U(h)[kJ/mol]
0.200000000000000011,101.171845650537335359
0.201000000000000012,98.721665444737382700
0.202000000000000013,96.987205399223597624
0.203000000000000014,95.559618106755422673
0.204000000000000015,94.216687525935483905
0.205000000000000016,92.851791651680102291
0.206000000000000016,91.426367290112878550
0.207000000000000017,89.938906912242174485
0.208000000000000018,88.405415285534601821
0.209000000000000019,86.847667964781621208
0.210000000000000020,85.286661649180032896
0.211000000000000021,83.739417608798802917
0.212000000000000022,82.217862540470633803
0.213000000000000023,80.728918755311767086
0.214000000000000024,79.275227403287757966
0.215000000000000024,77.856134720965343377
0.216000000000000025,76.468714847251163746
0.217000000000000026,75.108700711394646987
0.218000000000000027,73.771259647694307660
0.219000000000000028,72.451592226888024584
0.220000000000000029,71.145358313646056558
0.221000000000000030,69.848948678963864722
0.222000000000000031,68.559627319006835933
0.223000000000000032,67.275571607612434377
0.224000000000000032,65.995836406561153353
0.225000000000000033,64.720265569684286788
0.226000000000000034,63.449370778891761802
0.227000000000000035,62.184193915312548029
0.228000000000000036,60.926165555104162763
0.229000000000000037,59.676968894862930881
0.230000000000000038,58.438415560649687563
0.231000000000000039,57.212337373496168880
0.232000000000000040,56.000496225037807108
0.233000000000000040,54.804512725413403018
0.234000000000000041,53.625813173368285902
0.235000000000000042,52.465593611253517281
0.236000000000000043,51.324799210473294409
0.237000000000000044,50.204116933920552412
0.238000000000000045,49.103979293895861247
0.239000000000000046,48.024577025553227827
0.240000000000000047,46.965878591726244906
0.241000000000000048,45.927654595661401515
0.242000000000000048,44.909505379803682956
0.243000000000000049,43.910890312377453881
0.244000000000000050,42.931157494444150302
0.245000000000000051,41.969572847432623064
0.246000000000000052,41.025347756979066105
0.247000000000000053,40.097664647940852944
0.248000000000000054,39.185700044374087270
0.249000000000000055,38.288644825393589599
0.250000000000000056,37.405721522699728609
0.251000000000000056,36.536198618605325805
0.252000000000000057,35.679401895727309579
0.253000000000000058,34.834722962663825285
0.254000000000000059,34.001625135768250630
0.255000000000000060,33.179646897513777049
0.256000000000000061,32.368403178904600281
0.257000000000000062,31.567584728889659829
0.258000000000000063,30.776955839633842515
0.259000000000000064,29.996350694538460147
0.260000000000000064,29.225668597660426684
0.261000000000000065,28.464868330082254033
0.262000000000000066,27.713961862084197207
0.263000000000000067,26.973007630759440190
0.264000000000000068,26.242103571920104343
0.265000000000000069,25.521380073550012924
0.266000000000000070,24.810992996316251435
0.267000000000000071,24.111116885272640076
0.268000000000000071,23.421938476288524100
0.269000000000000072,22.743650581225224983
0.270000000000000073,22.076446417688451618
0.271000000000000074,21.420514432463324539
0.272000000000000075,20.776033652581116229
0.273000000000000076,20.143169584417769613
0.274000000000000077,19.522070669281738731
0.275000000000000078,18.912865293581937465
0.276000000000000079,18.315659342815234112
0.277000000000000079,17.730534281197765978
0.278000000000000080,17.157545732694714502
0.279000000000000081,16.596722534372666757
0.280000000000000082,16.048066229302623498
0.281000000000000083,15.511550963566790529
0.282000000000000084,14.987123750159369706
0.283000000000000085,14.474705061611913948
0.284000000000000086,13.974189712912155059
0.285000000000000087,13.485447996624831291
0.286000000000000087,13.008327032967565984
0.287000000000000088,12.542652298860462068
0.288000000000000089,12.088229301574028085
0.289000000000000090,11.644845364473704663
0.290000000000000091,11.212271494437242580
0.291000000000000092,10.790264302742574642
0.292000000000000093,10.378567953540008162
0.293000000000000094,9.976916116387142708
0.294000000000000095,9.585033901699603121
0.295000000000000095,9.202639760321673634
0.296000000000000096,8.829447330722597798
0.297000000000000097,8.465167219550504996
0.298000000000000098,8.109508703411455244
0.299000000000000099,7.762181341768538800
0.300000000000000100,7.422896492766684950
0.301000000000000101,7.091368725572654519
0.302000000000000102,6.767317124474233836
0.303000000000000103,6.450466481501374361
0.304000000000000103,6.140548375719141916
0.305000000000000104,5.837302138593932987
0.306000000000000105,5.540475705956813712
0.307000000000000106,5.249826358082900768
0.308000000000000107,4.965121350278552725
0.309000000000000108,4.686138437124939493
0.310000000000000109,4.412666294171844861
0.311000000000000110,4.144504841418788388
0.312000000000000111,3.881465473364273500
0.313000000000000111,3.623371200760080235
0.314000000000000112,3.370056709478908008
0.315000000000000113,3.121368342099912319
0.316000000000000114,2.877164007943569857
0.317000000000000115,2.637313027352097272
0.318000000000000116,2.401695916020365029
0.319000000000000117,2.170204115141709078
0.320000000000000118,1.942739673048806903
0.321000000000000119,1.719214883907394409
0.322000000000000119,1.499551888865946925
0.323000000000000120,1.283682244882158763
0.324000000000000121,1.071546466240914874
0.325000000000000122,0.863093543554626974
0.326000000000000123,0.658280444797377906
0.327000000000000124,0.457071602673751909
0.328000000000000125,0.259438392364535253
0.329000000000000126,0.065358603428038814
0.330000000000000127,-0.125184090630756251
0.331000000000000127,-0.312200661877146235
0.332000000000000128,-0.495697253568155027
0.333000000000000129,-0.675675699157733622
0.334000000000000130,-0.852134032220030257
0.335000000000000131,-1.025066985074371217
0.336000000000000132,-1.194466474135787104
0.337000000000000133,-1.360322070247816040
0.338000000000000134,-1.522621452476853321
0.339000000000000135,-1.681350844059512850
0.340000000000000135,-1.836495429397263290
0.341000000000000136,-1.988039751182986148
0.342000000000000137,-2.135968086924608933
0.343000000000000138,-2.280264804299308334
0.344000000000000139,-2.420914694929781508
0.345000000000000140,-2.557903286319954450
0.346000000000000141,-2.691217131823107511
0.347000000000000142,-2.820844078639683339
0.348000000000000143,-2.946773513956149504
0.349000000000000143,-3.068996589439661360
0.350000000000000144,-3.187506424397251958
0.351000000000000145,-3.302298287992117221
0.352000000000000146,-3.413369760984862555
0.353000000000000147,-3.520720877533499049
0.354000000000000148,-3.624354247644181015
0.355000000000000149,-3.724275160914490179
0.356000000000000150,-3.820491672253800264
0.357000000000000151,-3.913014670300808628
0.358000000000000151,-4.001857929287358395
0.359000000000000152,-4.087038145120622801
0.360000000000000153,-4.168574956473137583
0.361000000000000154,-4.246490951681728632
0.362000000000000155,-4.320811662264079089
0.363000000000000156,-4.391565543863935162
0.364000000000000157,-4.458783945434644735
0.365000000000000158,-4.522501067465940494
0.366000000000000159,-4.582753910049869539
0.367000000000000159,-4.639582211570939307
0.368000000000000160,-4.693028378790927491
0.369000000000000161,-4.743137409082573086
0.370000000000000162,-4.789956805547697982
0.371000000000000163,-4.833536485734781785
0.372000000000000164,-4.873928684649150966
0.373000000000000165,-4.911187852725549696
0.374000000000000166,-4.945370549408591110
0.375000000000000167,-4.976535332960919433
0.376000000000000167,-5.004742647093443075
0.377000000000000168,-5.030054704985035485
0.378000000000000169,-5.052535371232412587
0.379000000000000170,-5.072250042243803492
0.380000000000000171,-5.089265525562927550
0.381000000000000172,-5.103649918582549461
0.382000000000000173,-5.115472487080137576
0.383000000000000174,-5.124803543981517606
0.384000000000000175,-5.131714328731965757
0.385000000000000175,-5.136276887628533849
0.386000000000000176,-5.138563955442165820
0.387000000000000177,-5.138648838633117499
0.388000000000000178,-5.136605300439607724
0.389000000000000179,-5.132507448095741331
0.390000000000000180,-5.126429622412495668
0.391000000000000181,-5.118446289933412885
0.392000000000000182,-5.108631937855607319
0.393000000000000183,-5.097060971886379299
0.394000000000000183,-5.083807617186242744
0.395000000000000184,-5.068945822530546153
0.396000000000000185,-5.052549167803976893
0.397000000000000186,-5.034690774925284273
0.398000000000000187,-5.015443222283556324
0.399000000000000188,-4.994878462751847437
0.400000000000000189,-4.973067745329633027
0.401000000000000190,-4.950081540451907181
0.402000000000000191,-4.925989468989853570
0.403000000000000191,-4.900860234955850991
0.404000000000000192,-4.874761561914501939
0.405000000000000193,-4.847760133090556423
0.406000000000000194,-4.819921535155033965
0.407000000000000195,-4.791310205661543975
0.408000000000000196,-4.761989384096517952
0.409000000000000197,-4.732021066499223494
0.410000000000000198,-4.701465963600471198
0.411000000000000199,-4.670383462422135423
0.412000000000000199,-4.638831591274152899
0.413000000000000200,-4.606866988079859837
0.414000000000000201,-4.574544871956196523
0.415000000000000202,-4.541919017970625916
0.416000000000000203,-4.509041734993245676
0.417000000000000204,-4.475963846558942194
0.418000000000000205,-4.442734674651850568
0.419000000000000206,-4.409402026321831869
0.420000000000000207,-4.376012183040602466
0.421000000000000207,-4.342609892703826802
0.422000000000000208,-4.309238364183684666
0.423000000000000209,-4.275939264336054535
0.424000000000000210,-4.242752717365405601
0.425000000000000211,-4.209717306450292185
0.426000000000000212,-4.176870077532422343
0.427000000000000213,-4.144246545172166840
0.428000000000000214,-4.111880700374148212
0.429000000000000214,-4.079805020286906725
0.430000000000000215,-4.048050479681680081
0.431000000000000216,-4.016646564116344464
0.432000000000000217,-3.985621284691669874
0.433000000000000218,-3.955001194308508161
0.434000000000000219,-3.924811405336037673
0.435000000000000220,-3.895075608602768913
0.436000000000000221,-3.865816093623777761
0.437000000000000222,-3.837053769979458906
0.438000000000000222,-3.808808189763111862
0.439000000000000223,-3.781097571016585057
0.440000000000000224,-3.753938822075322257
0.441000000000000225,-3.727347566746281871
0.442000000000000226,-3.701338170244501846
0.443000000000000227,-3.675923765816016875
0.444000000000000228,-3.651116281977535571
0.445000000000000229,-3.626926470305099848
0.446000000000000230,-3.603363933706556388
0.447000000000000230,-3.580437155114934544
0.448000000000000231,-3.558153526541996570
0.449000000000000232,-3.536519378433646388
0.450000000000000233,-3.515540009271231447
0.451000000000000234,-3.495219715364876301
0.452000000000000235,-3.475561820787480549
0.453000000000000236,-3.456568707400013984
0.454000000000000237,-3.438241844921265944
0.455000000000000238,-3.420581820997047551
0.456000000000000238,-3.403588371226316411
0.457000000000000239,-3.387260409103623804
0.458000000000000240,-3.371596055839446215
0.459000000000000241,-3.356592670021952163
0.460000000000000242,-3.342246877085886414
0.461000000000000243,-3.328554598555999888
0.462000000000000244,-3.315511081034656193
0.463000000000000245,-3.303110924904689050
0.464000000000000246,-3.291348112720962060
0.465000000000000246,-3.280216037265290652
0.466000000000000247,-3.269707529241506538
0.467000000000000248,-3.259814884588890127
0.468000000000000249,-3.250529891393928672
0.469000000000000250,-3.241843856381867450
0.470000000000000251,-3.233747630971051557
0.471000000000000252,-3.226231636874455688
0.472000000000000253,-3.219285891234468178
0.473000000000000254,-3.212900031277872159
0.474000000000000254,-3.207063338479842596
0.475000000000000255,-3.201764762226565697
0.476000000000000256,-3.196992942967618934
0.477000000000000257,-3.192736234850216626
0.478000000000000258,-3.188982727828653996
0.479000000000000259,-3.185720269243269342
0.480000000000000260,-3.182936484864342663
0.481000000000000261,-3.180618799397223917
0.482000000000000262,-3.178754456446014842
0.483000000000000262,-3.177330537933971577
0.484000000000000263,-3.176333982979527182
0.485000000000000264,-3.175751606227886548
0.486000000000000265,-3.175570115638641333
0.487000000000000266,-3.175776129730673247
0.488000000000000267,-3.176356194286358292
0.489000000000000268,-3.177296798517624588
0.490000000000000269,-3.178584390697019479
0.491000000000000270,-3.180205393257621971
0.492000000000000270,-3.182146217365997565
0.493000000000000271,-3.184393276973047193
0.494000000000000272,-3.186933002347955401
0.495000000000000273,-3.189751853100954104
0.496000000000000274,-3.192836330700949521
0.497000000000000275,-3.196172990494464905
0.498000000000000276,-3.199748453232777567
0.499000000000000277,-3.203549416114230386
0.500000000000000222,-3.207562663349245557
0.501000000000000334,-3.211775076255649175
0.502000000000000224,-3.216173642892214080
0.503000000000000336,-3.220745467238590010
0.504000000000000226,-3.225477777929887768
0.505000000000000338,-3.230357936554459908
0.506000000000000227,-3.235373445523479941
0.507000000000000339,-3.240511955521157894
0.508000000000000229,-3.245761272544380738
0.509000000000000341,-3.251109364540887725
0.510000000000000231,-3.256544367654954808
0.511000000000000343,-3.262054592089770999
0.512000000000000233,-3.267628527595609622
0.513000000000000345,-3.273254848593090571
0.514000000000000234,-3.278922418940711569
0.515000000000000346,-3.284620296355844626
0.516000000000000236,-3.290337736498469390
0.517000000000000348,-3.296064196726837814
0.518000000000000238,-3.301789339534214829
0.519000000000000350,-3.307503035675858349
0.520000000000000240,-3.313195366995241642
0.521000000000000352,-3.318856628958693822
0.522000000000000242,-3.324477332907189719
0.523000000000000353,-3.330048208034393831
0.524000000000000243,-3.335560203099521281
0.525000000000000355,-3.341004487883929563
0.526000000000000245,-3.346372454399850316
0.527000000000000357,-3.351655717859908457
0.528000000000000247,-3.356846117415693165
0.529000000000000359,-3.361935716673747798
0.530000000000000249,-3.366916803997074048
0.531000000000000361,-3.371781892600210995
0.532000000000000250,-3.376523720445752552
0.533000000000000362,-3.381135249950156574
0.534000000000000252,-3.385609667506339182
0.535000000000000364,-3.389940382830752164
0.536000000000000254,-3.394121028142124352
0.537000000000000366,-3.398145457179190920
0.538000000000000256,-3.402007744064468486
0.539000000000000368,-3.405702182021008273
0.540000000000000258,-3.409223281948905449
0.541000000000000369,-3.412565770868241088
0.542000000000000259,-3.415724590234902713
0.543000000000000371,-3.418694894135688944
0.544000000000000261,-3.421472047368843139
0.545000000000000373,-3.424051623416132006
0.546000000000000263,-3.426429402312300088
0.547000000000000375,-3.428601368417700801
0.548000000000000265,-3.430563708099740872
0.549000000000000377,-3.432312807328520954
0.550000000000000266,-3.433845249192066795
0.551000000000000378,-3.435157811336277511
0.552000000000000268,-3.436247463334630936
0.553000000000000380,-3.437111363992547464
0.554000000000000270,-3.437746858591141041
0.555000000000000382,-3.438151476074934543
0.556000000000000272,-3.438322926188103423
0.557000000000000384,-3.438259096563402117
0.558000000000000274,-3.437958049768204294
0.559000000000000385,-3.437418020311451272
0.560000000000000275,-3.436637411615686144
0.561000000000000387,-3.435614792957794261
0.562000000000000277,-3.434348896382187544
0.563000000000000389,-3.432838613590015964
0.564000000000000279,-3.431082992807755971
0.565000000000000391,-3.429081235638517633
0.566000000000000281,-3.426832693899246607
0.567000000000000393,-3.424336866446886951
0.568000000000000282,-3.421593395996441522
0.569000000000000394,-3.418602065933777912
0.570000000000000284,-3.415362797125880867
0.571000000000000396,-3.411875644731219293
0.572000000000000286,-3.408140795012706725
0.573000000000000398,-3.404158562155610301
0.574000000000000288,-3.399929385092823164
0.575000000000000400,-3.395453824339637272
0.576000000000000290,-3.390732558840103827
0.577000000000000401,-3.385766382827075205
0.578000000000000291,-3.380556202697767354
0.579000000000000403,-3.375103033906731831
0.580000000000000293,-3.369407997877952532
0.581000000000000405,-3.363472318937721361
0.582000000000000295,-3.357297321269908430
0.583000000000000407,-3.350884425895061636
0.584000000000000297,-3.344235147674770481
0.585000000000000409,-3.337351092342669467
0.586000000000000298,-3.330233953563278781
0.587000000000000410,-3.322885510019927047
0.588000000000000300,-3.315307622532829068
0.589000000000000412,-3.307502231208398147
0.590000000000000302,-3.299471352620753528
0.591000000000000414,-3.291217077026387550
0.592000000000000304,-3.282741565612786960
0.593000000000000416,-3.274047047781810882
0.594000000000000306,-3.265135818468638096
0.595000000000000417,-3.256010235496857863
0.596000000000000307,-3.246672716970392170
0.597000000000000419,-3.237125738702798738
0.598000000000000309,-3.227371831684509917
0.599000000000000421,-3.217413579588380479
0.600000000000000311,-3.207253616314112321
0.601000000000000423,-3.196894623571786997
0.602000000000000313,-3.186339328504936841
0.603000000000000425,-3.175590501353378947
0.604000000000000314,-3.164650953156132651
0.605000000000000426,-3.153523533494503983
0.606000000000000316,-3.142211128275663068
0.607000000000000428,-3.130716657556684712
0.608000000000000318,-3.119043073409304423
0.609000000000000430,-3.107193357825283275
0.610000000000000320,-3.095170520662593017
0.611000000000000432,-3.082977597632235334
0.612000000000000322,-3.070617648325820959
0.613000000000000433,-3.058093754283733201
0.614000000000000323,-3.045409017103862581
0.615000000000000435,-3.032566556590750473
0.616000000000000325,-3.019569508945016079
0.617000000000000437,-3.006421024992911750
0.618000000000000327,-2.993124268455832571
0.619000000000000439,-2.979682414259495538
0.620000000000000329,-2.966098646882682655
0.621000000000000441,-2.952376158745187329
0.622000000000000330,-2.938518148634766902
0.623000000000000442,-2.924527820172778902
0.624000000000000332,-2.910408380318215915
0.625000000000000444,-2.896163037909819771
0.626000000000000334,-2.881795002245959303
0.627000000000000446,-2.867307481701865779
0.628000000000000336,-2.852703682383961326
0.629000000000000448,-2.837986806820823382
0.630000000000000338,-2.823160052690458333
0.631000000000000449,-2.808226611583449106
0.632000000000000339,-2.793189667801619702
0.633000000000000451,-2.778052397191751233
0.634000000000000341,-2.762817966013976445
0.635000000000000453,-2.747489529844393985
0.636000000000000343,-2.732070232511477847
0.637000000000000455,-2.716563205065817055
0.638000000000000345,-2.700971564782801870
0.639000000000000457,-2.685298414197671235
0.640000000000000346,-2.669546840172656310
0.641000000000000458,-2.653719912995520236
0.642000000000000348,-2.637820685509272511
0.643000000000000460,-2.621852192272354110
0.644000000000000350,-2.605817448749026433
0.645000000000000462,-2.589719450529301525
0.646000000000000352,-2.573561172578105793
0.647000000000000464,-2.557345568513028855
0.648000000000000353,-2.541075569910370646
0.649000000000000465,-2.524754085638765133
0.650000000000000355,-2.508384001220161252
0.651000000000000467,-2.491968178217420338
0.652000000000000357,-2.475509453648299107
0.653000000000000469,-2.459010639425079692
0.654000000000000359,-2.442474521819623767
0.655000000000000471,-2.425903860953133595
0.656000000000000361,-2.409301390310349511
0.657000000000000473,-2.392669816277512851
0.658000000000000362,-2.376011817703808759
0.659000000000000474,-2.359330045485660499
0.660000000000000364,-2.342627122173520426
0.661000000000000476,-2.325905641600587881
0.662000000000000366,-2.309168168533104470
0.663000000000000478,-2.292417238341649011
