# CNT15-COOH-30_LYSSCA-JS
# h[nm],U(h)[kJ/mol]
0.149999999999999994,150.351418826475168089
0.150999999999999995,148.871652432428760449
0.151999999999999996,146.818043156825808637
0.152999999999999997,144.653958862904403304
0.153999999999999998,142.550649124360290898
0.154999999999999999,140.541306834459106767
0.156000000000000000,138.604739979995628119
0.157000000000000001,136.707338822509569809
0.158000000000000002,134.821347822825373441
0.159000000000000002,132.930473938511539700
0.160000000000000003,131.029372757065374344
0.161000000000000004,129.120719783713042261
0.162000000000000005,127.211828998370862109
0.163000000000000006,125.311740967278254288
0.164000000000000007,123.429111418747382345
0.165000000000000008,121.570918166934731630
0.166000000000000009,119.741858555337032044
0.167000000000000010,117.944259977562936115
0.168000000000000010,116.178327861521665909
0.169000000000000011,114.442581603533312773
0.170000000000000012,112.734363464629041118
0.171000000000000013,111.050339731006403099
0.172000000000000014,109.386943268419145170
0.173000000000000015,107.740730376775900368
0.174000000000000016,106.108642467415364763
0.175000000000000017,104.488175187968892033
0.176000000000000018,102.877465170642494741
0.177000000000000018,101.275308602678990155
0.178000000000000019,99.681127261302080456
0.179000000000000020,98.094897330276452863
0.180000000000000021,96.517054874674741427
0.181000000000000022,94.948389795512127876
0.182000000000000023,93.389937782592411963
0.183000000000000024,91.842877485430037154
0.184000000000000025,90.308437991796694178
0.185000000000000026,88.787819835774740795
0.186000000000000026,87.282131196107215487
0.187000000000000027,85.792339699535361319
0.188000000000000028,84.319239297607097683
0.189000000000000029,82.863431009694295426
0.190000000000000030,81.425315882726891914
0.191000000000000031,80.005098269851387727
0.192000000000000032,78.602797436924191743
0.193000000000000033,77.218265531307650917
0.194000000000000034,75.851210059706659194
0.195000000000000034,74.501219193174193833
0.196000000000000035,73.167788425016055953
0.197000000000000036,71.850347332712431125
0.198000000000000037,70.548285423822619578
0.199000000000000038,69.260976267458360667
0.200000000000000039,67.987799319721062830
0.201000000000000040,66.728159038503449096
0.202000000000000041,65.481501047370088031
0.203000000000000042,64.247325248623951666
0.204000000000000042,63.025195902161996742
0.205000000000000043,61.814748780291054686
0.206000000000000044,60.615695580909665807
0.207000000000000045,59.427825834387832060
0.208000000000000046,58.251006575341911287
0.209000000000000047,57.085180071638490062
0.210000000000000048,55.930359911687354213
0.211000000000000049,54.786625749610195157
0.212000000000000050,53.654116998258565729
0.213000000000000050,52.533025744176221394
0.214000000000000051,51.423589138116483355
0.215000000000000052,50.326081491091443354
0.216000000000000053,49.240806280383331739
0.217000000000000054,48.168088243528785597
0.218000000000000055,47.108265711845348278
0.219000000000000056,46.061683309285115229
0.220000000000000057,45.028685117794282178
0.221000000000000058,44.009608387327176615
0.222000000000000058,43.004777847470734287
0.223000000000000059,42.014500658464172034
0.224000000000000060,41.039062022329915180
0.225000000000000061,40.078721459892946655
0.226000000000000062,39.133709746620453984
0.227000000000000063,38.204226489387679067
0.228000000000000064,37.290438317362315956
0.229000000000000065,36.392477653065412824
0.230000000000000066,35.510442024169933006
0.231000000000000066,34.644393872578966409
0.232000000000000067,33.794360814631161816
0.233000000000000068,32.960336304748921066
0.234000000000000069,32.142280654324295597
0.235000000000000070,31.340122357981158530
0.236000000000000071,30.553759680420181866
0.237000000000000072,29.783062458716830889
0.238000000000000073,29.027874077084948823
0.239000000000000073,28.288013573631623387
0.240000000000000074,27.563277841413928115
0.241000000000000075,26.853443889085639285
0.242000000000000076,26.158271129510730191
0.243000000000000077,25.477503667860823100
0.244000000000000078,24.810872563848313632
0.245000000000000079,24.158098045829746070
0.246000000000000080,23.518891657508891768
0.247000000000000081,22.892958320841611197
0.248000000000000081,22.279998301475192335
0.249000000000000082,21.679709065622368769
0.250000000000000111,21.091787019662618263
0.251000000000000112,20.515929125972991898
0.252000000000000113,19.951834390511400841
0.253000000000000114,19.399205219509486398
0.254000000000000115,18.857748644276426830
0.255000000000000115,18.327177414579331582
0.256000000000000116,17.807210962351035732
0.257000000000000117,17.297576238592959896
0.258000000000000118,16.798008427297613565
0.259000000000000119,16.308251541019416209
0.260000000000000120,15.828058903386505563
0.261000000000000121,15.357193524380315708
0.262000000000000122,14.895428374621811685
0.263000000000000123,14.442546565208436604
0.264000000000000123,13.998341439849534495
0.265000000000000124,13.562616586164889299
0.266000000000000125,13.135185773047590274
0.267000000000000126,12.715872820959969403
0.268000000000000127,12.304511411937522070
0.269000000000000128,11.900944845930359506
0.270000000000000129,11.505025749921049538
0.271000000000000130,11.116615746029662404
0.272000000000000131,10.735585084558987745
0.273000000000000131,10.361812247649504926
0.274000000000000132,9.995183528912363613
0.275000000000000133,9.635592594092717178
0.276000000000000134,9.282940027490912627
0.277000000000000135,8.937132868539347186
0.278000000000000136,8.598084142600349367
0.279000000000000137,8.265712389720489384
0.280000000000000138,7.939941194750825382
0.281000000000000139,7.620698721922376073
0.282000000000000139,7.307917256655692029
0.283000000000000140,7.001532757082038927
0.284000000000000141,6.701484417464652843
0.285000000000000142,6.407714245431604283
0.286000000000000143,6.120166654668584449
0.287000000000000144,5.838788074470916634
0.288000000000000145,5.563526577318909538
0.289000000000000146,5.294331525421510420
0.290000000000000147,5.031153236967182529
0.291000000000000147,4.773942672631450002
0.292000000000000148,4.522651142714101624
0.293000000000000149,4.277230035118388507
0.294000000000000150,4.037630564236662778
0.295000000000000151,3.803803540673508898
0.296000000000000152,3.575699161616602506
0.297000000000000153,3.353266821557706834
0.298000000000000154,3.136454942969943538
0.299000000000000155,2.925210826463151115
0.300000000000000155,2.719480519865210333
0.301000000000000156,2.519208705614032873
0.302000000000000157,2.324338605790386758
0.303000000000000158,2.134811904077511979
0.304000000000000159,1.950568683896178657
0.305000000000000160,1.771547381935506094
0.306000000000000161,1.597684756277804485
0.307000000000000162,1.428915868300569825
0.308000000000000163,1.265174077529847896
0.309000000000000163,1.106391048615200212
0.310000000000000164,0.952496769597927950
0.311000000000000165,0.803419580649932796
0.312000000000000166,0.659086212470184507
0.313000000000000167,0.519421833539131406
0.314000000000000168,0.384350105447696655
0.315000000000000169,0.253793245536604040
0.316000000000000170,0.127672096103112503
0.317000000000000171,0.005906199455891326
0.318000000000000171,-0.111586121876239647
0.319000000000000172,-0.224887680449535943
0.320000000000000173,-0.334082335364565164
0.321000000000000174,-0.439254900491015898
0.322000000000000175,-0.540491050040739052
0.323000000000000176,-0.637877222041915548
0.324000000000000177,-0.731500520237691410
0.325000000000000178,-0.821448614902623220
0.326000000000000179,-0.907809643040960568
0.327000000000000179,-0.990672108400983520
0.328000000000000180,-1.070124781710770190
0.329000000000000181,-1.146256601512373408
0.330000000000000182,-1.219156575942975662
0.331000000000000183,-1.288913685784887520
0.332000000000000184,-1.355616789079167273
0.333000000000000185,-1.419354527572205260
0.334000000000000186,-1.480215235239676463
0.335000000000000187,-1.538286849108118970
0.336000000000000187,-1.593656822571638099
0.337000000000000188,-1.646412041378599866
0.338000000000000189,-1.696638742442647896
0.339000000000000190,-1.744422435611786115
0.340000000000000191,-1.789847828510130245
0.341000000000000192,-1.832998754548963660
0.342000000000000193,-1.873958104186275619
0.343000000000000194,-1.912807759497971105
0.344000000000000195,-1.949628532108256707
0.345000000000000195,-1.984500104512993968
0.346000000000000196,-2.017500974815745085
0.347000000000000197,-2.048708404884233669
0.348000000000000198,-2.078198371923048349
0.349000000000000199,-2.106045523447723777
0.350000000000000200,-2.132323135635458833
0.351000000000000201,-2.157103075018471650
0.352000000000000202,-2.180455763477675557
0.353000000000000203,-2.202450146486779392
0.354000000000000203,-2.223153664549946118
0.355000000000000204,-2.242632227769807418
0.356000000000000205,-2.260950193477228698
0.357000000000000206,-2.278170346849210937
0.358000000000000207,-2.294353884436669766
0.359000000000000208,-2.309560400520358936
0.360000000000000209,-2.323847876209757857
0.361000000000000210,-2.337272671196783058
0.362000000000000210,-2.349889518074131267
0.363000000000000211,-2.361751519125925292
0.364000000000000212,-2.372910145497017176
0.365000000000000213,-2.383415238646060086
0.366000000000000214,-2.393315013986893280
0.367000000000000215,-2.402656066622154807
0.368000000000000216,-2.411483379073262157
0.369000000000000217,-2.419840330910733250
0.370000000000000218,-2.427768710189636359
0.371000000000000218,-2.435308726595332374
0.372000000000000219,-2.442499026205902979
0.373000000000000220,-2.449376707778621043
0.374000000000000221,-2.455977340469163384
0.375000000000000222,-2.462334982893686686
0.376000000000000223,-2.468482203445822698
0.377000000000000224,-2.474450101781959344
0.378000000000000225,-2.480268331390450331
0.379000000000000226,-2.485965123162164225
0.380000000000000226,-2.491567309882053660
0.381000000000000227,-2.497100351563316334
0.382000000000000228,-2.502588361548279572
0.383000000000000229,-2.508054133302159538
0.384000000000000230,-2.513519167828245138
0.385000000000000231,-2.519003701635567527
0.386000000000000232,-2.524526735192217153
0.387000000000000233,-2.530106061800170281
0.388000000000000234,-2.535758296829635494
0.389000000000000234,-2.541498907253586736
0.390000000000000235,-2.547342241425336162
0.391000000000000236,-2.553301559044574454
0.392000000000000237,-2.559389061259537357
0.393000000000000238,-2.565615920855468968
0.394000000000000239,-2.571992312481683918
0.395000000000000240,-2.578527442872067255
0.396000000000000241,-2.585229581015877187
0.397000000000000242,-2.592106088238105510
0.398000000000000242,-2.599163448150792810
0.399000000000000243,-2.606407296438750354
0.400000000000000244,-2.613842450445333920
0.401000000000000245,-2.621472938525998941
0.402000000000000246,-2.629302029139092944
0.403000000000000247,-2.637332259645667865
0.404000000000000248,-2.645565464791647337
0.405000000000000249,-2.654002804847730435
0.406000000000000250,-2.662644793384028041
0.407000000000000250,-2.671491324658309630
0.408000000000000251,-2.680541700598273458
0.409000000000000252,-2.689794657359920738
0.410000000000000253,-2.699248391445672191
0.411000000000000254,-2.708900585367333136
0.412000000000000255,-2.718748432840436102
0.413000000000000256,-2.728788663498002087
0.414000000000000257,-2.739017567112834506
0.415000000000000258,-2.749431017319091897
0.416000000000000258,-2.760024494824696362
0.417000000000000259,-2.770793110107713453
0.418000000000000260,-2.781731625590586177
0.419000000000000261,-2.792834477287482464
0.420000000000000262,-2.804095795920772183
0.421000000000000263,-2.815509427503854134
0.422000000000000264,-2.827068953388199191
0.423000000000000265,-2.838767709773612147
0.424000000000000266,-2.850598806681435171
0.425000000000000266,-2.862555146391036587
0.426000000000000267,-2.874629441340998071
0.427000000000000268,-2.886814231496793504
0.428000000000000269,-2.899101901187571162
0.429000000000000270,-2.911484695415249568
0.430000000000000271,-2.923954735639644031
0.431000000000000272,-2.936504035043985716
0.432000000000000273,-2.949124513285553917
0.433000000000000274,-2.961808010736771912
0.434000000000000274,-2.974546302222413896
0.435000000000000275,-2.987331110259051847
0.436000000000000276,-3.000154117803200293
0.437000000000000277,-3.013006980514981059
0.438000000000000278,-3.025881338544420984
0.439000000000000279,-3.038768827847826870
0.440000000000000280,-3.051661091041837359
0.441000000000000281,-3.064549787803087177
0.442000000000000282,-3.077426604821630995
0.443000000000000282,-3.090283265316292827
0.444000000000000283,-3.103111538120537638
0.445000000000000284,-3.115903246347353939
0.446000000000000285,-3.128650275641860823
0.447000000000000286,-3.141344582030566990
0.448000000000000287,-3.153978199376003211
0.449000000000000288,-3.166543246445872484
0.450000000000000289,-3.179031933605589444
0.451000000000000290,-3.191436569143333735
0.452000000000000290,-3.203749565236704289
0.453000000000000291,-3.215963443569966440
0.454000000000000292,-3.228070840611055647
0.455000000000000293,-3.240064512557321308
0.456000000000000294,-3.251937339959061202
0.457000000000000295,-3.263682332029842037
0.458000000000000296,-3.275292630652466563
0.459000000000000297,-3.286761514089537428
0.460000000000000298,-3.298082400407364556
0.461000000000000298,-3.309248850621934857
0.462000000000000299,-3.320254571575604441
0.463000000000000300,-3.331093418553017216
0.464000000000000301,-3.341759397644744389
0.465000000000000302,-3.352246667866912500
0.466000000000000303,-3.362549543045104450
0.467000000000000304,-3.372662493470633738
0.468000000000000305,-3.382580147337133525
0.469000000000000306,-3.392297291965387096
0.470000000000000306,-3.401808874824138407
0.471000000000000307,-3.411110004354401148
0.472000000000000308,-3.420195950604866031
0.473000000000000309,-3.429062145685649377
0.474000000000000310,-3.437704184047599476
0.475000000000000311,-3.446117822594255919
0.476000000000000312,-3.454298980633311977
0.477000000000000313,-3.462243739674415899
0.478000000000000314,-3.469948343079858777
0.479000000000000314,-3.477409195574723721
0.480000000000000315,-3.484622862622714479
0.481000000000000316,-3.491586069673982884
0.482000000000000317,-3.498295701290841553
0.483000000000000318,-3.504748800157401867
0.484000000000000319,-3.510942565978774521
0.485000000000000320,-3.516874354275494774
0.486000000000000321,-3.522541675078608936
0.487000000000000322,-3.527942191530740956
0.488000000000000322,-3.533073718398257679
0.489000000000000323,-3.537934220499664661
0.490000000000000324,-3.542521811055019842
0.491000000000000325,-3.546834749961152333
0.492000000000000326,-3.550871441997281774
0.493000000000000327,-3.554630434965536434
0.494000000000000328,-3.558110417770663503
0.495000000000000329,-3.561310218443190401
0.496000000000000330,-3.564228802110017025
0.497000000000000330,-3.566865268916548981
0.498000000000000331,-3.569218851903936951
0.499000000000000332,-3.571288914845377693
0.500000000000000333,-3.573074950044886400
0.501000000000000334,-3.574576576101963443
0.502000000000000335,-3.575793535645618526
0.503000000000000336,-3.576725693040832432
0.504000000000000337,-3.577373032070617853
0.505000000000000338,-3.577735653596624932
0.506000000000000338,-3.577813773201200753
0.507000000000000339,-3.577607718813641036
0.508000000000000340,-3.577117928323252816
0.509000000000000341,-3.576344947181913536
0.510000000000000342,-3.575289425998390946
0.511000000000000343,-3.573952118126963562
0.512000000000000344,-3.572333877252437340
0.513000000000000345,-3.570435654973829198
0.514000000000000346,-3.568258498388794386
0.515000000000000346,-3.565803547680652663
0.516000000000000347,-3.563072033710048547
0.517000000000000348,-3.560065275613001567
0.518000000000000349,-3.556784678407019840
0.519000000000000350,-3.553231730607010697
0.520000000000000351,-3.549408001852468519
0.521000000000000352,-3.545315140547510957
0.522000000000000353,-3.540954871515086033
0.523000000000000353,-3.536328993666748577
0.524000000000000354,-3.531439377689293391
0.525000000000000355,-3.526287963749380250
0.526000000000000356,-3.520876759217324459
0.527000000000000357,-3.515207836411152975
0.528000000000000358,-3.509283330361859576
0.529000000000000359,-3.503105436600910227
0.530000000000000360,-3.496676408970743388
0.531000000000000361,-3.489998557459267570
0.532000000000000361,-3.483074246059011614
0.533000000000000362,-3.475905890651674213
0.534000000000000363,-3.468495956918788981
0.535000000000000364,-3.460846958279103713
0.536000000000000365,-3.452961453853204965
0.537000000000000366,-3.444842046456032314
0.538000000000000367,-3.436491380617585634
0.539000000000000368,-3.427912140632508819
0.540000000000000369,-3.419107048638686308
0.541000000000000369,-3.410078862725447912
0.542000000000000370,-3.400830375071512979
0.543000000000000371,-3.391364410113097527
0.544000000000000372,-3.381683822742349577
0.545000000000000373,-3.371791496536381771
0.546000000000000374,-3.361690342017020328
0.547000000000000375,-3.351383294941472801
0.548000000000000376,-3.340873314624031032
0.549000000000000377,-3.330163382288865215
0.550000000000000377,-3.319256499454007692
0.551000000000000378,-3.308155686346514024
0.552000000000000379,-3.296863980348900380
0.553000000000000380,-3.285384434476738669
0.554000000000000381,-3.273720115887412074
0.555000000000000382,-3.261874104420061204
0.556000000000000383,-3.249849491166430848
0.557000000000000384,-3.237649377072776335
0.558000000000000385,-3.225276871572455129
0.559000000000000385,-3.212735091249280917
0.560000000000000386,-3.200027158531341342
0.561000000000000387,-3.187156200415163010
0.562000000000000388,-3.174125347220016380
0.563000000000000389,-3.160937731372211346
0.564000000000000390,-3.147596486219066403
0.565000000000000391,-3.134104744872417747
0.566000000000000392,-3.120465639081365428
0.567000000000000393,-3.106682298134058495
0.568000000000000393,-3.092757847788169645
0.569000000000000394,-3.078695409229851077
0.570000000000000395,-3.064498098060918885
0.571000000000000396,-3.050169023313814343
0.572000000000000397,-3.035711286494271022
0.573000000000000398,-3.021127980651146849
0.574000000000000399,-3.006422189473292317
0.575000000000000400,-2.991596986412983661
0.576000000000000401,-2.976655433835678100
0.577000000000000401,-2.961600582195773157
0.578000000000000402,-2.946435469237922433
0.579000000000000403,-2.931163119223646252
0.580000000000000404,-2.915786542182924101
0.581000000000000405,-2.900308733190270161
0.582000000000000406,-2.884732671665109827
0.583000000000000407,-2.869061320695943440
0.584000000000000408,-2.853297626388061836
0.585000000000000409,-2.837444517234357200
0.586000000000000409,-2.821504903508896156
0.587000000000000410,-2.805481676682930470
0.588000000000000411,-2.789377708862874616
0.589000000000000412,-2.773195852250012194
0.590000000000000413,-2.756938938621424473
0.591000000000000414,-2.740609778831876397
0.592000000000000415,-2.724211162336273695
0.593000000000000416,-2.707745856732235445
0.594000000000000417,-2.691216607322513887
0.595000000000000417,-2.674626136696919509
0.596000000000000418,-2.657977144333168784
0.597000000000000419,-2.641272306216629229
0.598000000000000420,-2.624514274478254805
0.599000000000000421,-2.607705677050611293
0.600000000000000422,-2.590849117341466279
0.601000000000000423,-2.573947173924673315
0.602000000000000424,-2.557002400247958995
0.603000000000000425,-2.540017324357275896
0.604000000000000425,-2.522994448637339016
0.605000000000000426,-2.505936249568033070
0.606000000000000427,-2.488845177496375793
0.607000000000000428,-2.471723656423518101
0.608000000000000429,-2.454574083806769558
0.609000000000000430,-2.437398830375911096
0.610000000000000431,-2.420200239963843369
0.611000000000000432,-2.402980629350951691
0.612000000000000433,-2.385742288123003707
0.613000000000000433,-2.368487478542262714
