# CNT15-COOH-30_DGL-JS
# h[nm],U(h)[kJ/mol]
0.149999999999999994,212.313824339980868672
0.150999999999999995,209.415537660976099232
0.151999999999999996,207.270265952742335003
0.152999999999999997,205.163831388948267431
0.153999999999999998,202.879089500155970427
0.154999999999999999,200.416313970476892337
0.156000000000000000,197.848081602949861235
0.157000000000000001,195.251306560925115718
0.158000000000000002,192.681325309897289344
0.159000000000000002,190.167170880286278134
0.160000000000000003,187.716119501777797041
0.161000000000000004,185.321083848133923766
0.162000000000000005,182.967697848863792842
0.163000000000000006,180.639806441461558961
0.164000000000000007,178.323076515224840932
0.165000000000000008,176.006929870773376479
0.166000000000000009,173.685186049012344256
0.167000000000000010,171.355829647876873878
0.168000000000000010,169.020266144838672062
0.169000000000000011,166.682350333546651200
0.170000000000000012,164.347388453299146249
0.171000000000000013,162.021241779586972598
0.172000000000000014,159.709600846799787632
0.173000000000000015,157.417456229348942998
0.174000000000000016,155.148762356823965547
0.175000000000000017,152.906272716086334640
0.176000000000000018,150.691515355989906766
0.177000000000000018,148.504874423064023858
0.178000000000000019,146.345744460920855090
0.179000000000000020,144.212727769007216239
0.180000000000000021,142.103850009140785460
0.181000000000000022,140.016774595178702612
0.182000000000000023,137.949001615246686470
0.183000000000000024,135.898041755762733374
0.184000000000000025,133.861559728919445433
0.185000000000000026,131.837484977256110596
0.186000000000000026,129.824089948451387500
0.187000000000000027,127.820038059398598307
0.188000000000000028,125.824404688287444287
0.189000000000000029,123.836675246398868921
0.190000000000000030,121.856724688423241787
0.191000000000000031,119.884782816294134022
0.192000000000000032,117.921389501702265079
0.193000000000000033,115.967343569489656829
0.194000000000000034,114.023648608280680605
0.195000000000000034,112.091458454071883466
0.196000000000000035,110.172024564005070602
0.197000000000000036,108.266646988310910160
0.198000000000000037,106.376630177221088047
0.199000000000000038,104.503244438426776242
0.200000000000000039,102.647693495850745649
0.201000000000000040,100.811088294293512035
0.202000000000000041,98.994426945953776453
0.203000000000000042,97.198580520708418362
0.204000000000000042,95.424284237678961063
0.205000000000000043,93.672133515447484342
0.206000000000000044,91.942584276328830128
0.207000000000000045,90.235956870338782210
0.208000000000000046,88.552442981086812779
0.209000000000000047,86.892114893335843817
0.210000000000000048,85.254936535465304814
0.211000000000000049,83.640775755175440054
0.212000000000000050,82.049417339681212979
0.213000000000000050,80.480576349159420602
0.214000000000000051,78.933911391667919588
0.215000000000000052,77.409037527011292923
0.216000000000000053,75.905538544405132484
0.217000000000000054,74.422978413026456224
0.218000000000000055,72.960911754723440481
0.219000000000000056,71.518893233701874124
0.220000000000000057,70.096485798551142921
0.221000000000000058,68.693267747404675561
0.222000000000000058,67.308838617361772094
0.223000000000000059,65.942823924709500716
0.224000000000000060,64.594878803225554975
0.225000000000000061,63.264690604249459227
0.226000000000000062,61.951980534655191946
0.227000000000000063,60.656504417744052660
0.228000000000000064,59.378052667816426435
0.229000000000000065,58.116449572178780159
0.230000000000000066,56.871551975003754364
0.231000000000000066,55.643247456151712527
0.232000000000000067,54.431452095147335513
0.233000000000000068,53.236107906295657699
0.234000000000000069,52.057180025723006622
0.235000000000000070,50.894653725194260119
0.236000000000000071,49.748531321126215232
0.237000000000000072,48.618829040481458037
0.238000000000000073,47.505573898369149788
0.239000000000000073,46.408800635337605911
0.240000000000000074,45.328548755637143586
0.241000000000000075,44.264859701265791614
0.242000000000000076,43.217774190452175276
0.243000000000000077,42.187329743442333552
0.244000000000000078,41.173558413081629226
0.245000000000000079,40.176484732745294082
0.246000000000000080,39.196123889688962549
0.247000000000000081,38.232480127866026010
0.248000000000000081,37.285545380692120432
0.249000000000000082,36.355298131114828664
0.250000000000000111,35.441702493654403838
0.251000000000000112,34.544707510797707073
0.252000000000000113,33.664246654228264788
0.253000000000000114,32.800237519837757816
0.254000000000000115,31.952581704254235717
0.255000000000000115,31.121164849718422118
0.256000000000000116,30.305856843508014009
0.257000000000000117,29.506512157724671397
0.258000000000000118,28.722970315092190674
0.259000000000000119,27.955056466438570340
0.260000000000000120,27.202582065724783433
0.261000000000000121,26.465345628816642432
0.262000000000000122,25.743133562647074086
0.263000000000000123,25.035721051967460227
0.264000000000000123,24.342872991515694281
0.265000000000000124,23.664344952121350474
0.266000000000000125,22.999884170005010731
0.267000000000000126,22.349230549299374360
0.268000000000000127,21.712117668607305632
0.269000000000000128,21.088273783209814383
0.270000000000000129,20.477422815331287609
0.271000000000000130,19.879285325654244332
0.272000000000000131,19.293579460044139040
0.273000000000000131,18.720021866188766069
0.274000000000000132,18.158328575573925434
0.275000000000000133,17.608215846901003943
0.276000000000000134,17.069400967701579219
0.277000000000000135,16.541603011516837540
0.278000000000000136,16.024543548581263508
0.279000000000000137,15.517947308483917013
0.280000000000000138,15.021542793773098978
0.281000000000000139,14.535062843921480180
0.282000000000000139,14.058245149481825464
0.283000000000000140,13.590832716635484090
0.284000000000000141,13.132574282671077626
0.285000000000000142,12.683224683228381480
0.286000000000000143,12.242545172404954101
0.287000000000000144,11.810303697052233929
0.288000000000000145,11.386275126783822031
0.289000000000000146,10.970241441386827219
0.290000000000000147,10.561991877464155465
0.291000000000000147,10.161323036249257257
0.292000000000000148,9.768038954621509617
0.293000000000000149,9.381951141416926987
0.294000000000000150,9.002878581172749861
0.295000000000000151,8.630647707471030827
0.296000000000000152,8.265092348055036453
0.297000000000000153,7.906053643886169269
0.298000000000000154,7.553379944288957759
0.299000000000000155,7.206926680299621246
0.300000000000000155,6.866556218290935654
0.301000000000000156,6.532137695894421725
0.302000000000000157,6.203546842180268861
0.303000000000000158,5.880665783989544870
0.304000000000000159,5.563382840240333138
0.305000000000000160,5.251592305953036721
0.306000000000000161,4.945194227659508002
0.307000000000000162,4.644094171777550351
0.308000000000000163,4.348202987447477241
0.309000000000000163,4.057436565241323123
0.310000000000000164,3.771715593068386774
0.311000000000000165,3.490965310514638986
0.312000000000000166,3.215115262767304305
0.313000000000000167,2.944099055191211622
0.314000000000000168,2.677854109540338534
0.315000000000000169,2.416321422706242839
0.316000000000000170,2.159445328825832178
0.317000000000000171,1.907173265494218839
0.318000000000000171,1.659455544754006251
0.319000000000000172,1.416245129460733221
0.320000000000000173,1.177497415556044036
0.321000000000000174,0.943170020714578450
0.322000000000000175,0.713222579768084675
0.323000000000000176,0.487616547251515986
0.324000000000000177,0.266315007359543277
0.325000000000000178,0.049282491549760013
0.326000000000000179,-0.163515196021301545
0.327000000000000179,-0.372111145088856177
0.328000000000000180,-0.576537497800403087
0.329000000000000181,-0.776825599109323139
0.330000000000000182,-0.973006139021643235
0.331000000000000183,-1.165109286710767300
0.332000000000000184,-1.353164816545933125
0.333000000000000185,-1.537202226109123604
0.334000000000000186,-1.717250846301260570
0.335000000000000187,-1.893339943661855873
0.336000000000000187,-2.065498815047940528
0.337000000000000188,-2.233756874836203998
0.338000000000000189,-2.398143734829841556
0.339000000000000190,-2.558689277065743450
0.340000000000000191,-2.715423719730254870
0.341000000000000192,-2.868377676402984910
0.342000000000000193,-3.017582208856914860
0.343000000000000194,-3.163068873650834778
0.344000000000000195,-3.304869762755526352
0.345000000000000195,-3.443017538460652283
0.346000000000000196,-3.577545462811450250
0.347000000000000197,-3.708487421827238339
0.348000000000000198,-3.835877944754128688
0.349000000000000199,-3.959752218604423835
0.350000000000000200,-4.080146098234137320
0.351000000000000201,-4.197096112208069663
0.352000000000000202,-4.310639464699100643
0.353000000000000203,-4.420814033665226184
0.354000000000000203,-4.527658365543610230
0.355000000000000204,-4.631211666696203544
0.356000000000000205,-4.731513791836716720
0.357000000000000206,-4.828605229663163634
0.358000000000000207,-4.922527085913761979
0.359000000000000208,-5.013321064058441578
0.360000000000000209,-5.101029443831381904
0.361000000000000210,-5.185695057803009433
0.362000000000000210,-5.267361266183483437
0.363000000000000211,-5.346071930042162634
0.364000000000000212,-5.421871383120661747
0.365000000000000213,-5.494804402409718236
0.366000000000000214,-5.564916177652836637
0.367000000000000215,-5.632252279932346006
0.368000000000000216,-5.696858629486461822
0.369000000000000217,-5.758781462898196146
0.370000000000000218,-5.818067299790484981
0.371000000000000218,-5.874762909154087609
0.372000000000000219,-5.928915275428424003
0.373000000000000220,-5.980571564448367461
0.374000000000000221,-6.029779089363294986
0.375000000000000222,-6.076585276627976206
0.376000000000000223,-6.121037632159013420
0.377000000000000224,-6.163183707743466577
0.378000000000000225,-6.203071067780865810
0.379000000000000226,-6.240747256433484047
0.380000000000000226,-6.276259765254439849
0.381000000000000227,-6.309656001357057065
0.382000000000000228,-6.340983256184275163
0.383000000000000229,-6.370288674931171791
0.384000000000000230,-6.397619226668973980
0.385000000000000231,-6.423021675214306114
0.386000000000000232,-6.446542550782479175
0.387000000000000233,-6.468228122459748874
0.388000000000000234,-6.488124371524820688
0.389000000000000234,-6.506276965646408783
0.390000000000000235,-6.522731233979435217
0.391000000000000236,-6.537532143179197064
0.392000000000000237,-6.550724274349207121
0.393000000000000238,-6.562351800935404711
0.394000000000000239,-6.572458467576121954
0.395000000000000240,-6.581087569914643609
0.396000000000000241,-6.588281935378229370
0.397000000000000242,-6.594083904925048145
0.398000000000000242,-6.598535315758216946
0.399000000000000243,-6.601677485003608403
0.400000000000000244,-6.603551194346375830
0.401000000000000245,-6.604196675619073531
0.402000000000000246,-6.603653597332292513
0.403000000000000247,-6.601961052137459873
0.404000000000000248,-6.599157545209640041
0.405000000000000249,-6.595280983536888186
0.406000000000000250,-6.590368666101419137
0.407000000000000250,-6.584457274936760030
0.408000000000000251,-6.577582867043913595
0.409000000000000252,-6.569780867148679704
0.410000000000000253,-6.561086061281470094
0.411000000000000254,-6.551532591160113661
0.412000000000000255,-6.541153949355539510
0.413000000000000256,-6.529982975219823516
0.414000000000000257,-6.518051851555147103
0.415000000000000258,-6.505392102002481636
0.416000000000000258,-6.492034589127730904
0.417000000000000259,-6.478009513183475399
0.418000000000000260,-6.463346411523728463
0.419000000000000261,-6.448074158649355070
0.420000000000000262,-6.432220966861426525
0.421000000000000263,-6.415814387500075711
0.422000000000000264,-6.398881312746032890
0.423000000000000265,-6.381447977962442231
0.424000000000000266,-6.363539964554608908
0.425000000000000266,-6.345182203325175685
0.426000000000000267,-6.326398978302906428
0.427000000000000268,-6.307213931023020415
0.428000000000000269,-6.287650065237558650
0.429000000000000270,-6.267729752034498780
0.430000000000000271,-6.247474735344452412
0.431000000000000272,-6.226906137814480324
0.432000000000000273,-6.206044467028479339
0.433000000000000274,-6.184909622054388656
0.434000000000000274,-6.163520900298475880
0.435000000000000275,-6.141897004647709934
0.436000000000000276,-6.120056050881403031
0.437000000000000277,-6.098015575333814553
0.438000000000000278,-6.075792542789923090
0.439000000000000279,-6.053403354596960106
0.440000000000000280,-6.030863856974689519
0.441000000000000281,-6.008189349508016974
0.442000000000000282,-5.985394593805978047
0.443000000000000282,-5.962493822311399683
0.444000000000000283,-5.939500747246368562
0.445000000000000284,-5.916428569678808813
0.446000000000000285,-5.893289988695992854
0.447000000000000286,-5.870097210671612054
0.448000000000000287,-5.846861958612874055
0.449000000000000288,-5.823595481575289945
0.450000000000000289,-5.800308564132641287
0.451000000000000290,-5.777011535890514971
0.452000000000000290,-5.753714281032110023
0.453000000000000291,-5.730426247885299418
0.454000000000000292,-5.707156458500747043
0.455000000000000293,-5.683913518230914619
0.456000000000000294,-5.660705625300535893
0.457000000000000295,-5.637540580359450715
0.458000000000000296,-5.614425796008961633
0.459000000000000297,-5.591368306293615476
0.460000000000000298,-5.568374776150357697
0.461000000000000298,-5.545451510807693829
0.462000000000000299,-5.522604465127667339
0.463000000000000300,-5.499839252883900187
0.464000000000000301,-5.477161155969460182
0.465000000000000302,-5.454575133528400954
0.466000000000000303,-5.432085831005373677
0.467000000000000304,-5.409697589108018789
0.468000000000000305,-5.387414452677083965
0.469000000000000306,-5.365240179459620506
0.470000000000000306,-5.343178248780992234
0.471000000000000307,-5.321231870111416740
0.472000000000000308,-5.299403991523531587
0.473000000000000309,-5.277697308037334167
0.474000000000000310,-5.256114269849344822
0.475000000000000311,-5.234657090443024074
0.476000000000000312,-5.213327754577852247
0.477000000000000313,-5.192128026154501086
0.478000000000000314,-5.171059455953957773
0.479000000000000314,-5.150123389248696171
0.480000000000000315,-5.129320973284006158
0.481000000000000316,-5.108653164628103482
0.482000000000000317,-5.088120736389549315
0.483000000000000318,-5.067724285300935883
0.484000000000000319,-5.047464238667859426
0.485000000000000320,-5.027340861182413967
0.486000000000000321,-5.007354261600612588
0.487000000000000322,-4.987504399283357870
0.488000000000000322,-4.967791090600520043
0.489000000000000323,-4.948214015198284521
0.490000000000000324,-4.928772722129532546
0.491000000000000325,-4.909466635847566707
0.492000000000000326,-4.890295062063367837
0.493000000000000327,-4.871257193466929536
0.494000000000000328,-4.852352115313065539
0.495000000000000329,-4.833578810872419140
0.496000000000000330,-4.814936166748355006
0.497000000000000330,-4.796422978060724596
0.498000000000000331,-4.778037953497150880
0.499000000000000332,-4.759779720233237477
0.500000000000000333,-4.741646828722534401
0.501000000000000334,-4.723637757357499467
0.502000000000000335,-4.705750917002831990
0.503000000000000336,-4.687984655402365419
0.504000000000000337,-4.670337261461012801
0.505000000000000338,-4.652806969403139092
0.506000000000000338,-4.635391962808917299
0.507000000000000339,-4.618090378530217421
0.508000000000000340,-4.600900310487543443
0.509000000000000341,-4.583819813349851557
0.510000000000000342,-4.566846906098692926
0.511000000000000343,-4.549979575478603877
0.512000000000000344,-4.533215779335329820
0.513000000000000345,-4.516553449843757839
0.514000000000000346,-4.499990496627373382
0.515000000000000346,-4.483524809770945474
0.516000000000000347,-4.467154262728369574
0.517000000000000348,-4.450876715127589200
0.518000000000000349,-4.434690015474261671
0.519000000000000350,-4.418592003756294240
0.520000000000000351,-4.402580513950921315
0.521000000000000352,-4.386653376436418839
0.522000000000000353,-4.370808420310178910
0.523000000000000353,-4.355043475615144821
0.524000000000000354,-4.339356375476535632
0.525000000000000355,-4.323744958150657069
0.526000000000000356,-4.308207068987753630
0.527000000000000357,-4.292740562310855879
0.528000000000000358,-4.277343303212346903
0.529000000000000359,-4.262013169270321811
0.530000000000000360,-4.246748052186393174
0.531000000000000361,-4.231545859346993232
0.532000000000000361,-4.216404515309872814
0.533000000000000362,-4.201321963217708344
0.534000000000000363,-4.186296166140554220
0.535000000000000364,-4.171325108349025257
0.536000000000000365,-4.156406796519894087
0.537000000000000366,-4.141539260875976680
0.538000000000000367,-4.126720556261860295
0.539000000000000368,-4.111948763157477593
0.540000000000000369,-4.097221988630911582
0.541000000000000369,-4.082538367232410259
0.542000000000000370,-4.067896061830990284
0.543000000000000371,-4.053293264395509077
0.544000000000000372,-4.038728196721666386
0.545000000000000373,-4.024199111106590898
0.546000000000000374,-4.009704290972543994
0.547000000000000375,-3.995242051441306952
0.548000000000000376,-3.980810739860788594
0.549000000000000377,-3.966408736285294001
0.550000000000000377,-3.952034453910984180
0.551000000000000378,-3.937686339467890040
0.552000000000000379,-3.923362873570030107
0.553000000000000380,-3.909062571024879418
0.554000000000000381,-3.894783981103624448
0.555000000000000382,-3.880525687773638932
0.556000000000000383,-3.866286309894256590
0.557000000000000384,-3.852064501377445715
0.558000000000000385,-3.837858951314342626
0.559000000000000385,-3.823668384069131232
0.560000000000000386,-3.809491559341343869
0.561000000000000387,-3.795327272197813073
0.562000000000000388,-3.781174353075410721
0.563000000000000389,-3.767031667755808222
0.564000000000000390,-3.752898117313234305
0.565000000000000391,-3.738772638036413465
0.566000000000000392,-3.724654201325719782
0.567000000000000393,-3.710541813566606173
0.568000000000000393,-3.696434515980278945
0.569000000000000394,-3.682331384452628420
0.570000000000000395,-3.668231529342454333
0.571000000000000396,-3.654134095269754745
0.572000000000000397,-3.640038260885236632
0.573000000000000398,-3.625943238621697873
0.574000000000000399,-3.611848274428367311
0.575000000000000400,-3.597752647488889011
0.576000000000000401,-3.583655669923866416
0.577000000000000401,-3.569556686478810636
0.578000000000000402,-3.555455074198146548
0.579000000000000403,-3.541350242086124922
0.580000000000000404,-3.527241630755453716
0.581000000000000405,-3.513128712064175208
0.582000000000000406,-3.499010988741706463
0.583000000000000407,-3.484887994004537859
0.584000000000000408,-3.470759291162395677
0.585000000000000409,-3.456624473215421212
0.586000000000000409,-3.442483162442999234
0.587000000000000410,-3.428335009984917470
0.588000000000000411,-3.414179695415267446
0.589000000000000412,-3.400016926309918919
0.590000000000000413,-3.385846437807801035
0.591000000000000414,-3.371667992166791805
0.592000000000000415,-3.357481378314603582
0.593000000000000416,-3.343286411395116176
0.594000000000000417,-3.329082932310753584
0.595000000000000417,-3.314870807261362184
0.596000000000000418,-3.300649927279827089
0.597000000000000419,-3.286420207765238022
0.598000000000000420,-3.272181588013606479
0.599000000000000421,-3.257934030746892695
0.600000000000000422,-3.243677521640484507
0.601000000000000423,-3.229412068849603745
0.602000000000000424,-3.215137702535032727
0.603000000000000425,-3.200854474388427295
0.604000000000000425,-3.186562457157577910
0.605000000000000426,-3.172261744171959386
0.606000000000000427,-3.157952448868918349
0.607000000000000428,-3.143634704320574791
0.608000000000000429,-3.129308662762126936
0.609000000000000430,-3.114974495121329401
0.610000000000000431,-3.100632390549876938
0.611000000000000432,-3.086282555956601392
0.612000000000000433,-3.071925215542862908
