# CNT15-COOH-30_PROSCA-JS
# h[nm],U(h)[kJ/mol]
0.200000000000000011,89.012404643265199411
0.201000000000000012,87.275440775953427419
0.202000000000000013,85.936319593968192976
0.203000000000000014,84.743458731184404087
0.204000000000000015,83.567968601375667959
0.205000000000000016,82.354780299664966492
0.206000000000000016,81.090515977661510760
0.207000000000000017,79.782993315053914785
0.208000000000000018,78.448680210317633055
0.209000000000000019,77.105469992784051669
0.210000000000000020,75.768922474354553742
0.211000000000000021,74.450681657515900724
0.212000000000000022,73.158189946413784810
0.213000000000000023,71.895111541207100458
0.214000000000000024,70.662084789646741001
0.215000000000000024,69.457567561313169335
0.216000000000000025,68.278638392233872878
0.217000000000000026,67.121682039102523731
0.218000000000000027,65.982930681703422238
0.219000000000000028,64.858858308799312908
0.220000000000000029,63.746440917751691302
0.221000000000000030,62.643302738719512490
0.222000000000000031,61.547771395038822106
0.223000000000000032,60.458864588440327736
0.224000000000000032,59.376228835865219935
0.225000000000000033,58.300047852938369886
0.226000000000000034,57.230934947745275565
0.227000000000000035,56.169820615135975572
0.228000000000000036,55.117843615638079768
0.229000000000000037,54.076251291959337664
0.230000000000000038,53.046312760199420211
0.231000000000000039,52.029246909272465871
0.232000000000000040,51.026165821669181355
0.233000000000000040,50.038033248486215143
0.234000000000000041,49.065637082537058689
0.235000000000000042,48.109574325512745929
0.236000000000000043,47.170246791303874545
0.237000000000000044,46.247865684881979575
0.238000000000000045,45.342463207054933605
0.239000000000000046,44.453909428069131593
0.240000000000000047,43.581932821000876288
0.241000000000000048,42.726143027817094833
0.242000000000000048,41.886054630084302630
0.243000000000000049,41.061110899716013023
0.244000000000000050,40.250706703392658881
0.245000000000000051,39.454209920665626044
0.246000000000000052,38.670980905864873023
0.247000000000000053,37.900389675159097180
0.248000000000000054,37.141830631282076070
0.249000000000000055,36.394734749417722242
0.250000000000000056,35.658579239185179688
0.251000000000000056,34.932894770791527606
0.252000000000000057,34.217270409782315710
0.253000000000000058,33.511356446186439939
0.254000000000000059,32.814865332075861204
0.255000000000000060,32.127570958503454790
0.256000000000000061,31.449306510235182088
0.257000000000000062,30.779961136349715645
0.258000000000000063,30.119475668189267026
0.259000000000000064,29.467837604712549648
0.260000000000000064,28.825075570264765190
0.261000000000000065,28.191253432219905761
0.262000000000000066,27.566464246791003490
0.263000000000000067,26.950824181323365991
0.264000000000000068,26.344466541222629985
0.265000000000000069,25.747536009840814586
0.266000000000000070,25.160183190557170008
0.267000000000000071,24.582559522250402750
0.268000000000000071,24.014812622592597080
0.269000000000000072,23.457082098248587698
0.270000000000000073,22.909495847229884191
0.271000000000000074,22.372166866365922999
0.272000000000000075,21.845190566113984687
0.273000000000000076,21.328642585697508594
0.274000000000000077,20.822577093776903467
0.275000000000000078,20.327025553438026861
0.276000000000000079,19.841995925135485379
0.277000000000000079,19.367472277246804424
0.278000000000000080,18.903414770972769787
0.279000000000000081,18.449759984345046604
0.280000000000000082,18.006421538968446328
0.281000000000000083,17.573290992721950943
0.282000000000000084,17.150238961870108767
0.283000000000000085,16.737116436796142693
0.284000000000000086,16.333756256770115556
0.285000000000000087,15.939974710727540241
0.286000000000000087,15.555573232878149526
0.287000000000000088,15.180340164023885308
0.288000000000000089,14.814052551677610481
0.289000000000000090,14.456477964384799151
0.290000000000000091,14.107376298014042248
0.291000000000000092,13.766501554154462639
0.292000000000000093,13.433603573107891549
0.293000000000000094,13.108429706258670322
0.294000000000000095,12.790726414822094270
0.295000000000000095,12.480240784092901052
0.296000000000000096,12.176721944324373936
0.297000000000000097,11.879922391253492364
0.298000000000000098,11.589599201041579590
0.299000000000000099,11.305515136016692779
0.300000000000000100,11.027439639082530221
0.301000000000000101,10.755149715996784821
0.302000000000000102,10.488430705923244446
0.303000000000000103,10.227076941727116122
0.304000000000000103,9.970892302419311903
0.305000000000000104,9.719690660965168760
0.306000000000000105,9.473296231364603415
0.307000000000000106,9.231543819489891334
0.308000000000000107,8.994278982641032982
0.309000000000000108,8.761358103155368227
0.310000000000000109,8.532648381693872963
0.311000000000000110,8.308027756031199473
0.312000000000000111,8.087384751304350416
0.313000000000000111,7.870618267737064855
0.314000000000000112,7.657637311857183882
0.315000000000000113,7.448360677171810273
0.316000000000000114,7.242716580165118323
0.317000000000000115,7.040642257343290744
0.318000000000000116,6.842083528875508414
0.319000000000000117,6.646994334175063912
0.320000000000000118,6.455336244535571311
0.321000000000000119,6.267077957688206524
0.322000000000000119,6.082194778881929054
0.323000000000000120,5.900668092813400101
0.324000000000000121,5.722484830449540816
0.325000000000000122,5.547636934498354933
0.326000000000000123,5.376120826994055690
0.327000000000000124,5.207936882173882509
0.328000000000000125,5.043088907538493260
0.329000000000000126,4.881583635707684721
0.330000000000000127,4.723430229409255610
0.331000000000000127,4.568639801673599621
0.332000000000000128,4.417224953050556735
0.333000000000000129,4.269199327419249457
0.334000000000000130,4.124577187727336280
0.335000000000000131,3.983373012773030464
0.336000000000000132,3.845601115933128256
0.337000000000000133,3.711275286541871221
0.338000000000000134,3.580408454440178190
0.339000000000000135,3.453012378042417119
0.340000000000000135,3.329097356107404870
0.341000000000000136,3.208671963253346693
0.342000000000000137,3.091742809120943125
0.343000000000000138,2.978314320966050310
0.344000000000000139,2.868388549351500227
0.345000000000000140,2.761964996507842329
0.346000000000000141,2.659040466843253903
0.347000000000000142,2.559608939004115236
0.348000000000000143,2.463661458818564132
0.349000000000000143,2.371186052396029531
0.350000000000000144,2.282167658604778993
0.351000000000000145,2.196588080107553687
0.352000000000000146,2.114425952100622119
0.353000000000000147,2.035656727874810112
0.354000000000000148,1.960252680296581840
0.355000000000000149,1.888182918293494605
0.356000000000000150,1.819413417420235435
0.357000000000000151,1.753907063578683090
0.358000000000000151,1.691623708967731954
0.359000000000000152,1.632520239345117030
0.360000000000000153,1.576550651694115235
0.361000000000000154,1.523666141402404861
0.362000000000000155,1.473815198077537136
0.363000000000000156,1.426943709143972727
0.364000000000000157,1.382995070389327008
0.365000000000000158,1.341910302652235432
0.366000000000000159,1.303628173871300699
0.367000000000000159,1.268085325742493996
0.368000000000000160,1.235216404262255763
0.369000000000000161,1.204954193463912748
0.370000000000000162,1.177229751686435621
0.371000000000000163,1.151972549746471453
0.372000000000000164,1.129110610416877991
0.373000000000000165,1.108570648647355883
0.374000000000000166,1.090278211995228341
0.375000000000000167,1.074157820766938443
0.376000000000000167,1.060133107402495778
0.377000000000000168,1.048126954667061739
0.378000000000000169,1.038061632244865251
0.379000000000000170,1.029858931361089081
0.380000000000000171,1.023440297087293782
0.381000000000000172,1.018726958014953166
0.382000000000000173,1.015640053009908561
0.383000000000000174,1.014100754787808922
0.384000000000000175,1.014030390077170773
0.385000000000000175,1.015350556161988660
0.386000000000000176,1.017983233620264549
0.387000000000000177,1.021850895098464607
0.388000000000000178,1.026876609983905286
0.389000000000000179,1.032984144858909437
0.390000000000000180,1.040098059640430561
0.391000000000000181,1.048143799328401737
0.392000000000000182,1.057047781304138567
0.393000000000000183,1.066737478137384620
0.394000000000000183,1.077141495876714483
0.395000000000000184,1.088189647813166738
0.396000000000000185,1.099813023721274430
0.397000000000000186,1.111944054594781850
0.398000000000000187,1.124516572906621548
0.399000000000000188,1.137465868434232252
0.400000000000000189,1.150728739701694980
0.401000000000000190,1.164243541099823309
0.402000000000000191,1.177950225754173408
0.403000000000000191,1.191790384219034715
0.404000000000000192,1.205707279082569361
0.405000000000000193,1.219645875574979943
0.406000000000000194,1.233552868277237646
0.407000000000000195,1.247376704033203998
0.408000000000000196,1.261067601172396468
0.409000000000000197,1.274577565154630054
0.410000000000000198,1.287860400751003942
0.411000000000000199,1.300871720878675974
0.412000000000000199,1.313568952208871377
0.413000000000000200,1.325911337669660073
0.414000000000000201,1.337859935966083658
0.415000000000000202,1.349377618241382137
0.416000000000000203,1.360429062003344791
0.417000000000000204,1.370980742440098155
0.418000000000000205,1.381000921249339708
0.419000000000000206,1.390459633104508708
0.420000000000000207,1.399328669880608444
0.421000000000000207,1.407581562761069716
0.422000000000000208,1.415193562346044320
0.423000000000000209,1.422141616880480797
0.424000000000000210,1.428404348718886885
0.425000000000000211,1.433962029141501393
0.426000000000000212,1.438796551634408116
0.427000000000000213,1.442891403743974177
0.428000000000000214,1.446231637613260235
0.429000000000000214,1.448803839305758512
0.430000000000000215,1.450596097018900688
0.431000000000000216,1.451597968287087204
0.432000000000000217,1.451800446271162226
0.433000000000000218,1.451195925228296879
0.434000000000000219,1.449778165253241324
0.435000000000000220,1.447542256378965053
0.436000000000000221,1.444484582121610794
0.437000000000000222,1.440602782551656968
0.438000000000000222,1.435895716970078118
0.439000000000000223,1.430363426265207849
0.440000000000000224,1.424007095023030356
0.441000000000000225,1.416829013460463305
0.442000000000000226,1.408832539248169757
0.443000000000000227,1.400022059286568643
0.444000000000000228,1.390402951495487205
0.445000000000000229,1.379981546675230319
0.446000000000000230,1.368765090493746950
0.447000000000000230,1.356761705651816863
0.448000000000000231,1.343980354275360778
0.449000000000000232,1.330430800581241524
0.450000000000000233,1.316123573860221718
0.451000000000000234,1.301069931818112924
0.452000000000000235,1.285281824313611265
0.453000000000000236,1.268771857528829816
0.454000000000000237,1.251553258605965446
0.455000000000000238,1.233639840781414199
0.456000000000000238,1.215045969046106844
0.457000000000000239,1.195786526358748381
0.458000000000000240,1.175876880436459881
0.459000000000000241,1.155332851145196571
0.460000000000000242,1.134170678510316721
0.461000000000000243,1.112406991365762376
0.462000000000000244,1.090058776658327844
0.463000000000000245,1.067143349421899590
0.464000000000000246,1.043678323434483968
0.465000000000000246,1.019681582569531564
0.466000000000000247,0.995171252851191235
0.467000000000000248,0.970165675221734247
0.468000000000000249,0.944683379027902115
0.469000000000000250,0.918743056231465238
0.470000000000000251,0.892363536348071085
0.471000000000000252,0.865563762117086855
0.472000000000000253,0.838362765903880591
0.473000000000000254,0.810779646835085521
0.474000000000000254,0.782833548665965773
0.475000000000000255,0.754543638378260217
0.476000000000000256,0.725929085505709337
0.477000000000000257,0.697009042183700855
0.478000000000000258,0.667802623918448690
0.479000000000000259,0.638328891070490290
0.480000000000000260,0.608606831046351715
0.481000000000000261,0.578655341191629757
0.482000000000000262,0.548493212378047601
0.483000000000000262,0.518139113276373409
0.484000000000000263,0.487611575306631351
0.485000000000000264,0.456928978256356366
0.486000000000000265,0.426109536557258473
0.487000000000000266,0.395171286210223793
0.488000000000000267,0.364132072348064439
0.489000000000000268,0.333009537425158597
0.490000000000000269,0.301821110022753747
0.491000000000000270,0.270583994258361826
0.492000000000000270,0.239315159787484383
0.493000000000000271,0.208031332385563594
0.494000000000000272,0.176748985097975514
0.495000000000000273,0.145484329945523488
0.496000000000000274,0.114253310172962669
0.497000000000000275,0.083071593027753729
0.498000000000000276,0.051954563056210490
0.499000000000000277,0.020917315904241885
0.500000000000000222,-0.010025347390396044
0.501000000000000334,-0.040858925627234990
0.502000000000000224,-0.071569222206646008
0.503000000000000336,-0.102142349440875940
0.504000000000000226,-0.132564732425410226
0.505000000000000338,-0.162823112483794830
0.506000000000000227,-0.192904550198581382
0.507000000000000339,-0.222796428041458217
0.508000000000000229,-0.252486452615037105
0.509000000000000341,-0.281962656519195609
0.510000000000000231,-0.311213399854265993
0.511000000000000343,-0.340227371373678811
0.512000000000000233,-0.368993589298135083
0.513000000000000345,-0.397501401803649179
0.514000000000000234,-0.425740487195257422
0.515000000000000346,-0.453700853778359836
0.516000000000000236,-0.481372839439210387
0.517000000000000348,-0.508747110946211278
0.518000000000000238,-0.535814662983118972
0.519000000000000350,-0.562566816925479385
0.520000000000000240,-0.588995219370990197
0.521000000000000352,-0.615091840434787596
0.522000000000000242,-0.640848971819882207
0.523000000000000353,-0.666259224673402040
0.524000000000000243,-0.691315527238406391
0.525000000000000355,-0.716011122311534853
0.526000000000000245,-0.740339564515861026
0.527000000000000357,-0.764294717398725121
0.528000000000000247,-0.787870750363558470
0.529000000000000359,-0.811062135444963639
0.530000000000000249,-0.833863643935732313
0.531000000000000361,-0.856270342874537405
0.532000000000000250,-0.878277591402569890
0.533000000000000362,-0.899881036997500772
0.534000000000000252,-0.921076611592447803
0.535000000000000364,-0.941860527588061380
0.536000000000000254,-0.962229273764911186
0.537000000000000366,-0.982179611103769057
0.538000000000000256,-1.001708568520732090
0.539000000000000368,-1.020813438524203587
0.540000000000000258,-1.039491772800313907
0.541000000000000369,-1.057741377733406152
0.542000000000000259,-1.075560309867711783
0.543000000000000371,-1.092946871316450963
0.544000000000000261,-1.109899605124123223
0.545000000000000373,-1.126417290587769848
0.546000000000000263,-1.142498938542598541
0.547000000000000375,-1.158143786617386928
0.548000000000000265,-1.173351294464673344
0.549000000000000377,-1.188121138970742674
0.550000000000000266,-1.202453209450105032
0.551000000000000378,-1.216347602829064289
0.552000000000000268,-1.229804618822732287
0.553000000000000380,-1.242824755109774859
0.554000000000000270,-1.255408702508860497
0.555000000000000382,-1.267557340160751611
0.556000000000000272,-1.279271730719760081
0.557000000000000384,-1.290553115558077613
0.558000000000000274,-1.301402909986485223
0.559000000000000385,-1.311822698494589989
0.560000000000000275,-1.321814230013785840
0.561000000000000387,-1.331379413205865392
0.562000000000000277,-1.340520311780068141
0.563000000000000389,-1.349239139841353907
0.564000000000000279,-1.357538257272316029
0.565000000000000391,-1.365420165151274734
0.566000000000000281,-1.372887501208742034
0.567000000000000393,-1.379943035324503464
0.568000000000000282,-1.386589665067301969
0.569000000000000394,-1.392830411279092129
0.570000000000000284,-1.398668413705622671
0.571000000000000396,-1.404106926675136480
0.572000000000000286,-1.409149314826688482
0.573000000000000398,-1.413799048889620824
0.574000000000000288,-1.418059701515562931
0.575000000000000400,-1.421934943164274268
0.576000000000000290,-1.425428538044462901
0.577000000000000401,-1.428544340110755595
0.578000000000000291,-1.431286289117744248
0.579000000000000403,-1.433658406732129631
0.580000000000000293,-1.435664792703705395
0.581000000000000405,-1.437309621096011680
0.582000000000000295,-1.438597136577311586
0.583000000000000407,-1.439531650772509108
0.584000000000000297,-1.440117538676495723
0.585000000000000409,-1.440359235129481164
0.586000000000000298,-1.440261231354605931
0.587000000000000410,-1.439828071558238554
0.588000000000000300,-1.439064349593178305
0.589000000000000412,-1.437974705685004739
0.590000000000000302,-1.436563823221698399
0.591000000000000414,-1.434836425606667687
0.592000000000000304,-1.432797273175186792
0.593000000000000416,-1.430451160174226022
0.594000000000000306,-1.427802911805689412
0.595000000000000417,-1.424857381332870654
0.596000000000000307,-1.421619447250032975
0.597000000000000419,-1.418094010514903136
0.598000000000000309,-1.414285991843870383
0.599000000000000421,-1.410200329069563052
0.600000000000000311,-1.405841974560590790
0.601000000000000423,-1.401215892703016497
0.602000000000000313,-1.396327057443241593
0.603000000000000425,-1.391180449891878945
0.604000000000000314,-1.385781055988196453
0.605000000000000426,-1.380133864224618589
0.606000000000000316,-1.374243863430859136
0.607000000000000428,-1.368116040617113338
0.608000000000000318,-1.361755378875832090
0.609000000000000430,-1.355166855341420229
0.610000000000000320,-1.348355439207400419
0.611000000000000432,-1.341326089800307209
0.612000000000000322,-1.334083754709814773
0.613000000000000433,-1.326633367974357824
0.614000000000000323,-1.318979848321665482
0.615000000000000435,-1.311128097463498232
0.616000000000000325,-1.303082998443910956
0.617000000000000437,-1.294849414040364133
0.618000000000000327,-1.286432185216976887
0.619000000000000439,-1.277836129629162043
0.620000000000000329,-1.269066040178988608
0.621000000000000441,-1.260126683620481192
0.622000000000000330,-1.251022799214134507
0.623000000000000442,-1.241759097429901537
0.624000000000000332,-1.232340258697882884
0.625000000000000444,-1.222770932205972105
0.626000000000000334,-1.213055734743708758
0.627000000000000446,-1.203199249591512698
0.628000000000000336,-1.193206025454609742
0.629000000000000448,-1.183080575440823345
0.630000000000000338,-1.172827376081469808
0.631000000000000449,-1.162450866394592497
0.632000000000000339,-1.151955446989757714
0.633000000000000451,-1.141345479213626390
0.634000000000000341,-1.130625284335552205
0.635000000000000453,-1.119799142772412992
0.636000000000000343,-1.108871293351923581
0.637000000000000455,-1.097845932613633391
0.638000000000000345,-1.086727214146911091
0.639000000000000457,-1.075519247965043723
0.640000000000000346,-1.064226099914843626
0.641000000000000458,-1.052851791120839708
0.642000000000000348,-1.041400297463484836
0.643000000000000460,-1.029875549090463638
0.644000000000000350,-1.018281429960513851
0.645000000000000462,-1.006621777418893915
0.646000000000000352,-0.994900381803911493
0.647000000000000464,-0.983120986083634740
0.648000000000000353,-0.971287285522253852
0.649000000000000465,-0.959402927375178960
0.650000000000000355,-0.947471510612391876
0.651000000000000467,-0.935496585669151615
0.652000000000000357,-0.923481654223566872
0.653000000000000469,-0.911430169000148838
0.654000000000000359,-0.899345533598886915
0.655000000000000471,-0.887231102348996714
0.656000000000000361,-0.875090180186837818
0.657000000000000473,-0.862926022557211625
0.658000000000000362,-0.850741835337552210
0.659000000000000474,-0.838540774784241494
0.660000000000000364,-0.826325947500536673
0.661000000000000476,-0.814100410425400489
0.662000000000000366,-0.801867170842727517
0.663000000000000478,-0.789629186410277573
0.664000000000000368,-0.777389365207809213
0.665000000000000480,-0.765150565803774385
0.666000000000000369,-0.752915597340043208
0.667000000000000481,-0.740687219634078686
