# CNT15-COOH-30_PROPANE-AC
# h[nm],U(h)[kJ/mol]
0.149999999999999994,157.781812004574135244
0.150999999999999995,155.828385247628204979
0.151999999999999996,154.186460252639847113
0.152999999999999997,152.534484831858094367
0.153999999999999998,150.796255936122037156
0.154999999999999999,148.991479172439397871
0.156000000000000000,147.163203172865394208
0.157000000000000001,145.347432713148208450
0.158000000000000002,143.564356857493208963
0.159000000000000002,141.819452281604100108
0.160000000000000003,140.108107444230910232
0.161000000000000004,138.420604371231718233
0.162000000000000005,136.746110646813860967
0.163000000000000006,135.075307813653182620
0.164000000000000007,133.401755643946216878
0.165000000000000008,131.722280035821228239
0.166000000000000009,130.036708238580530406
0.167000000000000010,128.347237951174491855
0.168000000000000010,126.657661950662571826
0.169000000000000011,124.972601668996574631
0.170000000000000012,123.296843271368473438
0.171000000000000013,121.634822702016052176
0.172000000000000014,119.990272276928152451
0.173000000000000015,118.366019192217478917
0.174000000000000016,116.763913500691870695
0.175000000000000017,115.184857310163280886
0.176000000000000018,113.628906034938978564
0.177000000000000018,112.095414720723653090
0.178000000000000019,110.583206398017722449
0.179000000000000020,109.090744105623031146
0.180000000000000021,107.616292983567063857
0.181000000000000022,106.158063233370540956
0.182000000000000023,104.714328542453174009
0.183000000000000024,103.283517664565735572
0.184000000000000025,101.864279228626429585
0.185000000000000026,100.455521562554196180
0.186000000000000026,99.056430448581437531
0.187000000000000027,97.666468369288637064
0.188000000000000028,96.285359059102717083
0.189000000000000029,94.913061138691276142
0.190000000000000030,93.549734363869305298
0.191000000000000031,92.195701638186349669
0.192000000000000032,90.851409478076931237
0.193000000000000033,89.517389127538592675
0.194000000000000034,88.194220030497334051
0.195000000000000034,86.882496908079147602
0.196000000000000035,85.582801271315190661
0.197000000000000036,84.295677836951455220
0.198000000000000037,83.021616009282269033
0.199000000000000038,81.761036344549040678
0.200000000000000039,80.514281723829668636
0.201000000000000040,79.281612820935336572
0.202000000000000041,78.063207357898676264
0.203000000000000042,76.859162585853283645
0.204000000000000042,75.669500407005216402
0.205000000000000043,74.494174557706642759
0.206000000000000044,73.333079297492105297
0.207000000000000045,72.186059089029441793
0.208000000000000046,71.052918804591499224
0.209000000000000047,69.933434051874499460
0.210000000000000048,68.827361272426884398
0.211000000000000049,67.734447326897111452
0.212000000000000050,66.654438340620515646
0.213000000000000050,65.587087639135177142
0.214000000000000051,64.532162654878760577
0.215000000000000052,63.489450732810425393
0.216000000000000053,62.458763803579678608
0.217000000000000054,61.439941927956944312
0.218000000000000055,60.432855745589463936
0.219000000000000056,59.437407884956826365
0.220000000000000057,58.453533409999934634
0.221000000000000058,57.481199392703999251
0.222000000000000058,56.520403710391896368
0.223000000000000059,55.571173172132759532
0.224000000000000060,54.633561080997154136
0.225000000000000061,53.707644338391482108
0.226000000000000062,52.793520193862761403
0.227000000000000063,51.891302739030592761
0.228000000000000064,51.001119238090559804
0.229000000000000065,50.123106380019677886
0.230000000000000066,49.257406529537824724
0.231000000000000066,48.404164045329288513
0.232000000000000067,47.563521725265552220
0.233000000000000068,46.735617429603330208
0.234000000000000069,45.920580924543472179
0.235000000000000070,45.118530980268765518
0.236000000000000071,44.329572749745928206
0.237000000000000072,43.553795447264931795
0.238000000000000073,42.791270338957936303
0.239000000000000073,42.042049051432265117
0.240000000000000074,41.306162199183894757
0.241000000000000075,40.583618326640532814
0.242000000000000076,39.874403156505891843
0.243000000000000077,39.178479132521282224
0.244000000000000078,38.495785241803098131
0.245000000000000079,37.826237099518934315
0.246000000000000080,37.169727276797196680
0.247000000000000081,36.526125851379440235
0.248000000000000081,35.895281159583916519
0.249000000000000082,35.277020727604579520
0.250000000000000111,34.671152359981221025
0.251000000000000112,34.077465363198989223
0.252000000000000113,33.495731882768630783
0.253000000000000114,32.925708332763029773
0.254000000000000115,32.367136897601660905
0.255000000000000115,31.819747086850135531
0.256000000000000116,31.283257324902212559
0.257000000000000117,30.757376558608211070
0.258000000000000118,30.241805867180271861
0.259000000000000119,29.736240060015127540
0.260000000000000120,29.240369249409830843
0.261000000000000121,28.753880386485196397
0.262000000000000122,28.276458749958834460
0.263000000000000123,27.807789378712072903
0.264000000000000123,27.347558440358596954
0.265000000000000124,26.895454529239906094
0.266000000000000125,26.451169888433717858
0.267000000000000126,26.014401551461524775
0.268000000000000127,25.584852400414160201
0.269000000000000128,25.162232138178520557
0.270000000000000129,24.746258173339846564
0.271000000000000130,24.336656417152610743
0.272000000000000131,23.933161992719231392
0.273000000000000131,23.535519857188820225
0.274000000000000132,23.143485338391059258
0.275000000000000133,22.756824587853881070
0.276000000000000134,22.375314952620328768
0.277000000000000135,21.998745268684579912
0.278000000000000136,21.626916079209010491
0.279000000000000137,21.259639780970978507
0.280000000000000138,20.896740702720350669
0.281000000000000139,20.538055119311074748
0.282000000000000139,20.183431205606460423
0.283000000000000140,19.832728934251768749
0.284000000000000141,19.485819921462059767
0.285000000000000142,19.142587224993128814
0.286000000000000143,18.802925098450508301
0.287000000000000144,18.466738706050911389
0.288000000000000145,18.133943801883919633
0.289000000000000146,17.804466377633868746
0.290000000000000147,17.478242282613521752
0.291000000000000147,17.155216819837598052
0.292000000000000148,16.835344321725511207
0.293000000000000149,16.518587708873635478
0.294000000000000150,16.204918035177914959
0.295000000000000151,15.894314022421886179
0.296000000000000152,15.586761587273320728
0.297000000000000153,15.282253363457954265
0.298000000000000154,14.980788221701057950
0.299000000000000155,14.682370789850361703
0.300000000000000155,14.387010975415932990
0.301000000000000156,14.094723492587888813
0.302000000000000157,13.805527395619151321
0.303000000000000158,13.519445620292145804
0.304000000000000159,13.236504535022694640
0.305000000000000160,12.956733502995081864
0.306000000000000161,12.680164456567364795
0.307000000000000162,12.406831485037827179
0.308000000000000163,12.136770436721141309
0.309000000000000163,11.870018536147284749
0.310000000000000164,11.606614017067240496
0.311000000000000165,11.346595771827722388
0.312000000000000166,11.090003017562027665
0.313000000000000167,10.836874979536208485
0.314000000000000168,10.587250591888832219
0.315000000000000169,10.341168215908236760
0.316000000000000170,10.098665375904239738
0.317000000000000171,9.859778512650377635
0.318000000000000171,9.624542754298925473
0.319000000000000172,9.392991704602817293
0.320000000000000173,9.165157248217436603
0.321000000000000174,8.941069372799196557
0.322000000000000175,8.720756007567853629
0.323000000000000176,8.504242877955023872
0.324000000000000177,8.291553375921827396
0.325000000000000178,8.082708445494295901
0.326000000000000179,7.877726483034964922
0.327000000000000179,7.676623251744317145
0.328000000000000180,7.479411809863890426
0.329000000000000181,7.286102452035910559
0.330000000000000182,7.096702663260556321
0.331000000000000183,6.911217084881556616
0.332000000000000184,6.729647492023850930
0.333000000000000185,6.551992781902844065
0.334000000000000186,6.378248972423149254
0.335000000000000187,6.208409210485871021
0.336000000000000187,6.042463789426493648
0.337000000000000188,5.880400175011105901
0.338000000000000189,5.722203039425417082
0.339000000000000190,5.567854302700093072
0.340000000000000191,5.417333181026363853
0.341000000000000192,5.270616241427299897
0.342000000000000193,5.127677462263128483
0.343000000000000194,4.988488299062668219
0.344000000000000195,4.853017755188135496
0.345000000000000195,4.721232456855268822
0.346000000000000196,4.593096732047717623
0.347000000000000197,4.468572692880549369
0.348000000000000198,4.347620320985152276
0.349000000000000199,4.230197555504966012
0.350000000000000200,4.116260383308949500
0.351000000000000201,4.005762931047472719
0.352000000000000202,3.898657558692887992
0.353000000000000203,3.794894954224742101
0.354000000000000203,3.694424229137062810
0.355000000000000204,3.597193014462792604
0.356000000000000205,3.503147557027387116
0.357000000000000206,3.412232815660554142
0.358000000000000207,3.324392557112149316
0.359000000000000208,3.239569451434041181
0.360000000000000209,3.157705166606004532
0.361000000000000210,3.078740462199370143
0.362000000000000210,3.002615281886972021
0.363000000000000211,2.929268844622989310
0.364000000000000212,2.858639734330234994
0.365000000000000213,2.790665987946464810
0.366000000000000214,2.725285181694382608
0.367000000000000215,2.662434515452990702
0.368000000000000216,2.602050895119992990
0.369000000000000217,2.544071012867129333
0.370000000000000218,2.488431425201187430
0.371000000000000218,2.435068628754684106
0.372000000000000219,2.383919133740112439
0.373000000000000220,2.334919535011695579
0.374000000000000221,2.288006580687832248
0.375000000000000222,2.243117238296377103
0.376000000000000223,2.200188758412873646
0.377000000000000224,2.159158735770277282
0.378000000000000225,2.119965167825748953
0.379000000000000226,2.082546510777278037
0.380000000000000226,2.046841733029278743
0.381000000000000227,2.012790366112720886
0.382000000000000228,1.980332553070739410
0.383000000000000229,1.949409094326225445
0.384000000000000230,1.919961491052813329
0.385000000000000231,1.891931986075054084
0.386000000000000232,1.865263602328101955
0.387000000000000233,1.839900178910733874
0.388000000000000234,1.815786404769408779
0.389000000000000234,1.792867850053991630
0.390000000000000235,1.771090995188871586
0.391000000000000236,1.750403257705718474
0.392000000000000237,1.730753016886549478
0.393000000000000238,1.712089636267706272
0.394000000000000239,1.694363484057411995
0.395000000000000240,1.677525951520853820
0.396000000000000241,1.661529469388366653
0.397000000000000242,1.646327522343316030
0.398000000000000242,1.631874661647147562
0.399000000000000243,1.618126515960022882
0.400000000000000244,1.605039800415842155
0.401000000000000245,1.592572324010861795
0.402000000000000246,1.580682995365598087
0.403000000000000247,1.569331826919411643
0.404000000000000248,1.558479937617467836
0.405000000000000249,1.548089554149386426
0.406000000000000250,1.538124010798716190
0.407000000000000250,1.528547747961847225
0.408000000000000251,1.519326309394594343
0.409000000000000252,1.510426338243978650
0.410000000000000253,1.501815571922087589
0.411000000000000254,1.493462835878107020
0.412000000000000255,1.485338036323848643
0.413000000000000256,1.477412151966986942
0.414000000000000257,1.469657224805587692
0.415000000000000258,1.462046350036073639
0.416000000000000258,1.454553665126127049
0.417000000000000259,1.447154338102552229
0.418000000000000260,1.439824555103274673
0.419000000000000261,1.432541507241221312
0.420000000000000262,1.425283376826858239
0.421000000000000263,1.418029322994727170
0.422000000000000264,1.410759466778229276
0.423000000000000265,1.403454875675611557
0.424000000000000266,1.396097547748696766
0.425000000000000266,1.388670395294949511
0.426000000000000267,1.381157228131771664
0.427000000000000268,1.373542736531027320
0.428000000000000269,1.365812473840264385
0.429000000000000270,1.357952838825875252
0.430000000000000271,1.349951057772342811
0.431000000000000272,1.341795166370120418
0.432000000000000273,1.333473991423846483
0.433000000000000274,1.324977132411001790
0.434000000000000274,1.316294942920141597
0.435000000000000275,1.307418511996526478
0.436000000000000276,1.298339645421770161
0.437000000000000277,1.289050846953035734
0.438000000000000278,1.279545299546097858
0.439000000000000279,1.269816846585459125
0.440000000000000280,1.259859973143657941
0.441000000000000281,1.249669787290802470
0.442000000000000282,1.239242001474200050
0.443000000000000282,1.228572913987175941
0.444000000000000283,1.217659390544801656
0.445000000000000284,1.206498845983623891
0.446000000000000285,1.195089226101325952
0.447000000000000286,1.183428989651254870
0.448000000000000287,1.171517090506123848
0.449000000000000288,1.159352960003949828
0.450000000000000289,1.146936489488765920
0.451000000000000290,1.134268013057564861
0.452000000000000290,1.121348290524238234
0.453000000000000291,1.108178490610547851
0.454000000000000292,1.094760174373250239
0.455000000000000293,1.081095278875930266
0.456000000000000294,1.067186101113307473
0.457000000000000295,1.053035282195087463
0.458000000000000296,1.038645791795879791
0.459000000000000297,1.024020912876935530
0.460000000000000298,1.009164226684958310
0.461000000000000298,0.994079598032613143
0.462000000000000299,0.978771160864794099
0.463000000000000300,0.963243304114250187
0.464000000000000301,0.947500657849494887
0.465000000000000302,0.931548079717622657
0.466000000000000303,0.915390641684085460
0.467000000000000304,0.899033617070976176
0.468000000000000305,0.882482467895111755
0.469000000000000306,0.865742832506618876
0.470000000000000306,0.848820513528427356
0.471000000000000307,0.831721466096736251
0.472000000000000308,0.814451786402076272
0.473000000000000309,0.797017700530313733
0.474000000000000310,0.779425553602660970
0.475000000000000311,0.761681799213353217
0.476000000000000312,0.743792989163511442
0.477000000000000313,0.725765763489280125
0.478000000000000314,0.707606840782283308
0.479000000000000314,0.689323008799965331
0.480000000000000315,0.670921115363412701
0.481000000000000316,0.652408059539820950
0.482000000000000317,0.633790783106778721
0.483000000000000318,0.615076262295182641
0.484000000000000319,0.596271499807570438
0.485000000000000320,0.577383517108441380
0.486000000000000321,0.558419346982975129
0.487000000000000322,0.539386026360458515
0.488000000000000322,0.520290589398676340
0.489000000000000323,0.501140060825212563
0.490000000000000324,0.481941449531752331
0.491000000000000325,0.462701742417220063
0.492000000000000326,0.443427898475584281
0.493000000000000327,0.424126843124035424
0.494000000000000328,0.404805462767243440
0.495000000000000329,0.385470599593288665
0.496000000000000330,0.366129046596888830
0.497000000000000330,0.346787542825334305
0.498000000000000331,0.327452768842832032
0.499000000000000332,0.308131342408525577
0.500000000000000333,0.288829814363765758
0.501000000000000334,0.269554664724101833
0.502000000000000335,0.250312298971298641
0.503000000000000336,0.231109044540975889
0.504000000000000337,0.211951147501175219
0.505000000000000338,0.192844769417396089
0.506000000000000338,0.173795984399508496
0.507000000000000339,0.154810776326029437
0.508000000000000340,0.135895036241321016
0.509000000000000341,0.117054559921114090
0.510000000000000342,0.098295045602078024
0.511000000000000343,0.079622091870853090
0.512000000000000344,0.061041195708324683
0.513000000000000345,0.042557750684720029
0.514000000000000346,0.024177045301210121
0.515000000000000346,0.005904261473867012
0.516000000000000347,-0.012255526844302750
0.517000000000000348,-0.030297354907400209
0.518000000000000349,-0.048216368290798922
0.519000000000000350,-0.066007823879535771
0.520000000000000351,-0.083667090734865307
0.521000000000000352,-0.101189650842997622
0.522000000000000353,-0.118571099749774797
0.523000000000000353,-0.135807147085230673
0.524000000000000354,-0.152893616981689018
0.525000000000000355,-0.169826448389188034
0.526000000000000356,-0.186601695291746361
0.527000000000000357,-0.203215526828184029
0.528000000000000358,-0.219664227320878119
0.529000000000000359,-0.235944196215987972
0.530000000000000360,-0.252051947938439269
0.531000000000000361,-0.267984111665062086
0.532000000000000361,-0.283737431019084885
0.533000000000000362,-0.299308763689159485
0.534000000000000363,-0.314695080976037656
0.535000000000000364,-0.329893467269980534
0.536000000000000365,-0.344901119461813344
0.537000000000000366,-0.359715346290622073
0.538000000000000367,-0.374333567630844855
0.539000000000000368,-0.388753313721669824
0.540000000000000369,-0.402972224341327512
0.541000000000000369,-0.416988047929044814
0.542000000000000370,-0.430798640657140297
0.543000000000000371,-0.444401965455907100
0.544000000000000372,-0.457796090993643101
0.545000000000000373,-0.470979190614299992
0.546000000000000374,-0.483949541235043856
0.547000000000000375,-0.496705522206020267
0.548000000000000376,-0.509245614134559599
0.549000000000000377,-0.521568397675924555
0.550000000000000377,-0.533672552292772107
0.551000000000000378,-0.545556854985270068
0.552000000000000379,-0.557220178993950599
0.553000000000000380,-0.568661492477133490
0.554000000000000381,-0.579879857164822821
0.555000000000000382,-0.590874426990917967
0.556000000000000383,-0.601644446705400182
0.557000000000000384,-0.612189250468319512
0.558000000000000385,-0.622508260427088400
0.559000000000000385,-0.632600985278810923
0.560000000000000386,-0.642467018819101177
0.561000000000000387,-0.652106038478913019
0.562000000000000388,-0.661517803850810937
0.563000000000000389,-0.670702155206128081
0.564000000000000390,-0.679659012004267593
0.565000000000000391,-0.688388371395533993
0.566000000000000392,-0.696890306718684238
0.567000000000000393,-0.705164965994473758
0.568000000000000393,-0.713212570416271618
0.569000000000000394,-0.721033412838956722
0.570000000000000395,-0.728627856267132556
0.571000000000000396,-0.735996332343665238
0.572000000000000397,-0.743139339839638424
0.573000000000000398,-0.750057443146566527
0.574000000000000399,-0.756751270771882423
0.575000000000000400,-0.763221513838521437
0.576000000000000401,-0.769468924589450265
0.577000000000000401,-0.775494314898020343
0.578000000000000402,-0.781298554784812693
0.579000000000000403,-0.786882570941763726
0.580000000000000404,-0.792247345264339375
0.581000000000000405,-0.797393913392286935
0.582000000000000406,-0.802323363259770717
0.583000000000000407,-0.807036833655360164
0.584000000000000408,-0.811535512792551650
0.585000000000000409,-0.815820636891324114
0.586000000000000409,-0.819893488771250012
0.587000000000000410,-0.823755396456715139
0.588000000000000411,-0.827407731794599477
0.589000000000000412,-0.830851909085022711
0.590000000000000413,-0.834089383725399314
0.591000000000000414,-0.837121650868323131
0.592000000000000415,-0.839950244093605525
0.593000000000000416,-0.842576734094778956
0.594000000000000417,-0.845002727380433027
0.595000000000000417,-0.847229864990709736
0.596000000000000418,-0.849259821229104261
0.597000000000000419,-0.851094302410029258
0.598000000000000420,-0.852735045622180166
0.599000000000000421,-0.854183817508078702
0.600000000000000422,-0.855442413059900764
0.601000000000000423,-0.856512654431788922
0.602000000000000424,-0.857396389768861455
0.603000000000000425,-0.858095492053015496
0.604000000000000425,-0.858611857965648539
0.605000000000000426,-0.858947406767464505
0.606000000000000427,-0.859104079195461501
0.607000000000000428,-0.859083836377064869
0.608000000000000429,-0.858888658761735813
0.609000000000000430,-0.858520545069784369
0.610000000000000431,-0.857981511258745777
0.611000000000000432,-0.857273589507126843
0.612000000000000433,-0.856398827215645531
0.613000000000000433,-0.855359286025983989
0.614000000000000434,-0.854157040856997840
0.615000000000000435,-0.852794178958394711
0.616000000000000436,-0.851272798981849044
