# CNT15-COOH-30_HSPSCA-AC
# h[nm],U(h)[kJ/mol]
0.200000000000000011,130.934143934926112252
0.201000000000000012,128.553195122974017295
0.202000000000000013,126.514358688606989745
0.203000000000000014,124.596283961859711553
0.204000000000000015,122.689289207128396697
0.205000000000000016,120.749562504910841199
0.206000000000000016,118.769455457746104798
0.207000000000000017,116.758851038398489663
0.208000000000000018,114.734012907399005599
0.209000000000000019,112.711372794779279616
0.210000000000000020,110.704479103044604926
0.211000000000000021,108.722885321963602223
0.212000000000000022,106.772155453402461944
0.213000000000000023,104.854446473422711961
0.214000000000000024,102.969325810129291199
0.215000000000000024,101.114618045661273982
0.216000000000000025,99.287166822441378145
0.217000000000000026,97.483458041720552956
0.218000000000000027,95.700088305108607756
0.219000000000000028,93.934085046693994059
0.220000000000000029,92.183096913582772913
0.221000000000000030,90.445478240743796050
0.222000000000000031,88.720292450236442505
0.223000000000000032,87.007257635412742047
0.224000000000000032,85.306654658666815294
0.225000000000000033,83.619214585118015748
0.226000000000000034,81.945998696068883760
0.227000000000000035,80.288280976188360682
0.228000000000000036,78.647440010178868874
0.229000000000000037,77.024864728867598274
0.230000000000000038,75.421876422190777589
0.231000000000000039,73.839667861839771490
0.232000000000000040,72.279259203341467810
0.233000000000000040,70.741469510415015520
0.234000000000000041,69.226902205564584847
0.235000000000000042,67.735942444147539732
0.236000000000000043,66.268764283495485756
0.237000000000000044,64.825345529097290864
0.238000000000000045,63.405488248013703867
0.239000000000000046,62.008843113775540701
0.240000000000000047,60.634935961298268126
0.241000000000000048,59.283195164628828877
0.242000000000000048,57.952978689200747908
0.243000000000000049,56.643599902376578825
0.244000000000000050,55.354351443469987260
0.245000000000000051,54.084526651955528109
0.246000000000000052,52.833438227220788974
0.247000000000000053,51.600433943671077941
0.248000000000000054,50.384909371260526711
0.249000000000000055,49.186317654492313522
0.250000000000000056,48.004176484163636474
0.251000000000000056,46.838072457585269603
0.252000000000000057,45.687663066878080542
0.253000000000000058,44.552676583520259612
0.254000000000000059,43.432910122855716395
0.255000000000000060,42.328226176959631744
0.256000000000000061,41.238547900120032352
0.257000000000000062,40.163853420102284986
0.258000000000000063,39.104169431977901183
0.259000000000000064,38.059564311089033595
0.260000000000000064,37.030140958949473884
0.261000000000000065,36.016029571630852502
0.262000000000000066,35.017380495334222701
0.263000000000000067,34.034357309143416614
0.264000000000000068,33.067130250963202798
0.265000000000000069,32.115870079818208183
0.266000000000000070,31.180742446351796815
0.267000000000000071,30.261902823747600877
0.268000000000000071,29.359492033546700895
0.269000000000000072,28.473632385019708835
0.270000000000000073,27.604424432892614050
0.271000000000000074,26.751944346286137488
0.272000000000000075,25.916241871639339678
0.273000000000000076,25.097338864057118002
0.274000000000000077,24.295228354826999606
0.275000000000000078,23.509874117667798998
0.276000000000000079,22.741210692460199994
0.277000000000000079,21.989143822625955238
0.278000000000000080,21.253551260830263914
0.279000000000000081,20.534283897136013763
0.280000000000000082,19.831167164013734805
0.281000000000000083,19.144002673573758955
0.282000000000000084,18.472570043925887973
0.283000000000000085,17.816628873572916802
0.284000000000000086,17.175920825110509327
0.285000000000000087,16.550171782148439092
0.286000000000000087,15.939094046203583943
0.287000000000000088,15.342388543275641055
0.288000000000000089,14.759747012839136815
0.289000000000000090,14.190854155015802718
0.290000000000000091,13.635389714687111251
0.291000000000000092,13.093030484226023447
0.292000000000000093,12.563452209342846899
0.293000000000000094,12.046331385224590349
0.294000000000000095,11.541346932682984061
0.295000000000000095,11.048181746397428782
0.296000000000000096,10.566524109538164566
0.297000000000000097,10.096068971072785558
0.298000000000000098,9.636519083896320836
0.299000000000000099,9.187586003578749327
0.300000000000000100,8.748990948999180617
0.301000000000000101,8.320465527435185749
0.302000000000000102,7.901752327807753495
0.303000000000000103,7.492605386750804897
0.304000000000000103,7.092790532992819585
0.305000000000000104,6.702085616210311514
0.306000000000000105,6.320280627053159073
0.307000000000000106,5.947177715457426572
0.308000000000000107,5.582591114663153498
0.309000000000000108,5.226346978553564782
0.310000000000000109,4.878283140036183241
0.311000000000000110,4.538248798208719847
0.312000000000000111,4.206104141997672130
0.313000000000000111,3.881719917840238399
0.314000000000000112,3.564976948803632695
0.315000000000000113,3.255765612312150559
0.316000000000000114,2.953985283386491911
0.317000000000000115,2.659543750000898488
0.318000000000000116,2.372356606836242943
0.319000000000000117,2.092346633359096764
0.320000000000000118,1.819443161792363428
0.321000000000000119,1.553581440167283834
0.322000000000000119,1.294701995265026273
0.323000000000000120,1.042749999871673161
0.324000000000000121,0.797674648386382690
0.325000000000000122,0.559428544443847153
0.326000000000000123,0.327967103839532093
0.327000000000000124,0.103247975683067233
0.328000000000000125,-0.114769515646991588
0.329000000000000126,-0.326124905512439611
0.330000000000000127,-0.530857099079476979
0.331000000000000127,-0.729004854837468796
0.332000000000000128,-0.920607240265844284
0.333000000000000129,-1.105704058619346508
0.334000000000000130,-1.284336246060972853
0.335000000000000131,-1.456546238614805366
0.336000000000000132,-1.622378308634749633
0.337000000000000133,-1.781878870693478945
0.338000000000000134,-1.935096756985914768
0.339000000000000135,-2.082083462514844108
0.340000000000000135,-2.222893360484241576
0.341000000000000136,-2.357583888466464384
0.342000000000000137,-2.486215706036182915
0.343000000000000138,-2.608852824674761539
0.344000000000000139,-2.725562710846747727
0.345000000000000140,-2.836416363233674520
0.346000000000000141,-2.941488365182007403
0.347000000000000142,-3.040856913481389423
0.348000000000000143,-3.134603824637852476
0.349000000000000143,-3.222814519844144687
0.350000000000000144,-3.305577989877802825
0.351000000000000145,-3.382986741176261969
0.352000000000000146,-3.455136724349500810
0.353000000000000147,-3.522127246393411237
0.354000000000000148,-3.584060867863696043
0.355000000000000149,-3.641043286259633582
0.356000000000000150,-3.693183206851329281
0.357000000000000151,-3.740592202163257607
0.358000000000000151,-3.783384561301145421
0.359000000000000152,-3.821677130280017654
0.360000000000000153,-3.855589144478213992
0.361000000000000154,-3.885242054306002224
0.362000000000000155,-3.910759345139173782
0.363000000000000156,-3.932266352527091335
0.364000000000000157,-3.949890073642225108
0.365000000000000158,-3.963758975894804415
0.366000000000000159,-3.974002803590649613
0.367000000000000159,-3.980752383465485877
0.368000000000000160,-3.984139429882445516
0.369000000000000161,-3.984296350433628842
0.370000000000000162,-3.981356052640305343
0.371000000000000163,-3.975451752400749772
0.372000000000000164,-3.966716784789008354
0.373000000000000165,-3.955284417763613725
0.374000000000000166,-3.941287669301173135
0.375000000000000167,-3.924859128426676502
0.376000000000000167,-3.906130780570968852
0.377000000000000168,-3.885233837644654464
0.378000000000000169,-3.862298573178524208
0.379000000000000170,-3.837454162842489414
0.380000000000000171,-3.810828530618217691
0.381000000000000172,-3.782548200865423205
0.382000000000000173,-3.752738156487973153
0.383000000000000174,-3.721521703373826817
0.384000000000000175,-3.689020341251789237
0.385000000000000175,-3.655353641079089222
0.386000000000000176,-3.620639129046141047
0.387000000000000177,-3.584992177258297996
0.388000000000000178,-3.548525901130449078
0.389000000000000179,-3.511351063506430670
0.390000000000000180,-3.473575985494206098
0.391000000000000181,-3.435306463987141345
0.392000000000000182,-3.396645695823186095
0.393000000000000183,-3.357694208516162071
0.394000000000000183,-3.318549797477482688
0.395000000000000184,-3.279307469631867811
0.396000000000000185,-3.240059393316938152
0.397000000000000186,-3.200894854344606522
0.398000000000000187,-3.161900218090959225
0.399000000000000188,-3.123158897471298268
0.400000000000000189,-3.084751326648278891
0.401000000000000190,-3.046754940313197491
0.402000000000000191,-3.009244158373657108
0.403000000000000191,-2.972290375874802937
0.404000000000000192,-2.935961957976572556
0.405000000000000193,-2.900324239804908277
0.406000000000000194,-2.865439530991842343
0.407000000000000195,-2.831367124716455574
0.408000000000000196,-2.798163311057046077
0.409000000000000197,-2.765881394463399090
0.410000000000000198,-2.734571715157671612
0.411000000000000199,-2.704281674272003944
0.412000000000000199,-2.675055762531967307
0.413000000000000200,-2.646935592295426964
0.414000000000000201,-2.619959932758375576
0.415000000000000202,-2.594164748140677990
0.416000000000000203,-2.569583238667476177
0.417000000000000204,-2.546245884164151985
0.418000000000000205,-2.524180490086108453
0.419000000000000206,-2.503412235807676911
0.420000000000000207,-2.483963724997903633
0.421000000000000207,-2.465855037915168246
0.422000000000000208,-2.449103785455841731
0.423000000000000209,-2.433725164797125196
0.424000000000000210,-2.419732016477926351
0.425000000000000211,-2.407134882766351236
0.426000000000000212,-2.395942067167022849
0.427000000000000213,-2.386159694925788610
0.428000000000000214,-2.377791774394514501
0.429000000000000214,-2.370840259123113913
0.430000000000000215,-2.365305110550983247
0.431000000000000216,-2.361184361174879509
0.432000000000000217,-2.358474178075018024
0.433000000000000218,-2.357168926686115107
0.434000000000000219,-2.357261234705014807
0.435000000000000220,-2.358742056031260415
0.436000000000000221,-2.361600734641769783
0.437000000000000222,-2.365825068305577705
0.438000000000000222,-2.371401372049202205
0.439000000000000223,-2.378314541287985140
0.440000000000000224,-2.386548114542963450
0.441000000000000225,-2.396084335667705290
0.442000000000000226,-2.406904215513673062
0.443000000000000227,-2.418987592966884481
0.444000000000000228,-2.432313195293262620
0.445000000000000229,-2.446858697733599541
0.446000000000000230,-2.462600782293488777
0.447000000000000230,-2.479515195677296724
0.448000000000000231,-2.497576806319045772
0.449000000000000232,-2.516759660466721726
0.450000000000000233,-2.537037037280178264
0.451000000000000234,-2.558381502906160954
0.452000000000000235,-2.580764963497379938
0.453000000000000236,-2.604158717145633961
0.454000000000000237,-2.628533504702439849
0.455000000000000238,-2.653859559463119133
0.456000000000000238,-2.680106655693616169
0.457000000000000239,-2.707244155981851197
0.458000000000000240,-2.735241057398101194
0.459000000000000241,-2.764066036451483743
0.460000000000000242,-2.793687492832050978
0.461000000000000243,-2.824073591930248650
0.462000000000000244,-2.855192306127883217
0.463000000000000245,-2.887011454856497572
0.464000000000000246,-2.919498743421655718
0.465000000000000246,-2.952621800592848622
0.466000000000000247,-2.986348214961099590
0.467000000000000248,-3.020645570067791663
0.468000000000000249,-3.055481478309844068
0.469000000000000250,-3.090823613628094879
0.470000000000000251,-3.126639742986901283
0.471000000000000252,-3.162897756654480919
0.472000000000000253,-3.199565697294963318
0.473000000000000254,-3.236611787883739932
0.474000000000000254,-3.274004458459498945
0.475000000000000255,-3.311712371726795112
0.476000000000000256,-3.349704447524312290
0.477000000000000257,-3.387949886174602909
0.478000000000000258,-3.426418190732135827
0.479000000000000259,-3.465079188146970690
0.480000000000000260,-3.503903049362272704
0.481000000000000261,-3.542860308364372379
0.482000000000000262,-3.581921880204619324
0.483000000000000262,-3.621059078012922150
0.484000000000000263,-3.660243629023028689
0.485000000000000264,-3.699447689630331659
0.486000000000000265,-3.738643859503074651
0.487000000000000266,-3.777805194768137476
0.488000000000000267,-3.816905220293004053
0.489000000000000268,-3.855917941085530654
0.490000000000000269,-3.894817852833328597
0.491000000000000270,-3.933579951604812663
0.492000000000000270,-3.972179742733832342
0.493000000000000271,-4.010593248910118369
0.494000000000000272,-4.048797017497465234
0.495000000000000273,-4.086768127101944259
0.496000000000000274,-4.124484193411946720
0.497000000000000275,-4.161923374332138437
0.498000000000000276,-4.199064374433203461
0.499000000000000277,-4.235886448738911625
0.500000000000000222,-4.272369405872264991
0.501000000000000334,-4.308493610581988875
0.502000000000000224,-4.344239985670517612
0.503000000000000336,-4.379590013344595079
0.504000000000000226,-4.414525736009019319
0.505000000000000338,-4.449029756524216950
0.506000000000000227,-4.483085237947655344
0.507000000000000339,-4.516675902779273777
0.508000000000000229,-4.549786031730283398
0.509000000000000341,-4.582400462034994959
0.510000000000000231,-4.614504585324421093
0.511000000000000343,-4.646084345080598865
0.512000000000000233,-4.677126233689754109
0.513000000000000345,-4.707617289112606684
0.514000000000000234,-4.737545091189291568
0.515000000000000346,-4.766897757596357366
0.516000000000000236,-4.795663939472709636
0.517000000000000348,-4.823832816731269624
0.518000000000000238,-4.851394093072409319
0.519000000000000350,-4.878337990715270855
0.520000000000000240,-4.904655244862182073
0.521000000000000352,-4.930337097911715816
0.522000000000000242,-4.955375293434687300
0.523000000000000353,-4.979762069927994084
0.524000000000000243,-5.003490154359806041
0.525000000000000355,-5.026552755520272697
0.526000000000000245,-5.048943557190578524
0.527000000000000357,-5.070656711143612938
0.528000000000000247,-5.091686829988541163
0.529000000000000359,-5.112028979871668710
0.530000000000000249,-5.131678673045271921
0.531000000000000361,-5.150631860315945332
0.532000000000000250,-5.168884923383521901
0.533000000000000362,-5.186434667081435634
0.534000000000000252,-5.203278311528670486
0.535000000000000364,-5.219413484203799136
0.536000000000000254,-5.234838211950377129
0.537000000000000366,-5.249550912923404589
0.538000000000000256,-5.263550388485811915
0.539000000000000368,-5.276835815063705581
0.540000000000000258,-5.289406735968814388
0.541000000000000369,-5.301263053196282549
0.542000000000000259,-5.312405019205515444
0.543000000000000371,-5.322833228691708385
0.544000000000000261,-5.332548610355130947
0.545000000000000373,-5.341552418675216352
0.546000000000000263,-5.349846225695946700
0.547000000000000375,-5.357431912828962695
0.548000000000000265,-5.364311662680497861
0.549000000000000377,-5.370487950907824271
0.550000000000000266,-5.375963538110918094
0.551000000000000378,-5.380741461764485756
0.552000000000000268,-5.384825028195463936
0.553000000000000380,-5.388217804610813566
0.554000000000000270,-5.390923611180102881
0.555000000000000382,-5.392946513177208523
0.556000000000000272,-5.394290813185361522
0.557000000000000384,-5.394961043369153053
0.558000000000000274,-5.394961957817533182
0.559000000000000385,-5.394298524960865926
0.560000000000000275,-5.392975920065643081
0.561000000000000387,-5.390999517809684782
0.562000000000000277,-5.388374884940761333
0.563000000000000389,-5.385107773021406530
0.564000000000000279,-5.381204111262266387
0.565000000000000391,-5.376669999446452408
0.566000000000000281,-5.371511700946964396
0.567000000000000393,-5.365735635839233630
0.568000000000000282,-5.359348374110603608
0.569000000000000394,-5.352356628968417240
0.570000000000000284,-5.344767250248256829
0.571000000000000396,-5.336587217923758786
0.572000000000000286,-5.327823635719215467
0.573000000000000398,-5.318483724826064574
0.574000000000000288,-5.308574817724339923
0.575000000000000400,-5.298104352109874959
0.576000000000000290,-5.287079864928024620
0.577000000000000401,-5.275508986514568122
0.578000000000000291,-5.263399434844261648
0.579000000000000403,-5.250759009887504547
0.580000000000000293,-5.237595588075420139
0.581000000000000405,-5.223917116873505684
0.582000000000000295,-5.209731609464101965
0.583000000000000407,-5.195047139537580350
0.584000000000000297,-5.179871836192231349
0.585000000000000409,-5.164213878942775615
0.586000000000000298,-5.148081492837213169
0.587000000000000410,-5.131482943681708875
0.588000000000000300,-5.114426533373231720
0.589000000000000412,-5.096920595339384796
0.590000000000000302,-5.078973490085054721
0.591000000000000414,-5.060593600845235684
0.592000000000000304,-5.041789329343473902
0.593000000000000416,-5.022569091655110896
0.594000000000000306,-5.002941314174835341
0.595000000000000417,-4.982914429687509639
0.596000000000000307,-4.962496873541629050
0.597000000000000419,-4.941697079924425751
0.598000000000000309,-4.920523478237790904
0.599000000000000421,-4.898984489573939172
0.600000000000000311,-4.877088523289993205
0.601000000000000423,-4.854843973680283753
0.602000000000000313,-4.832259216745424801
0.603000000000000425,-4.809342607057009999
0.604000000000000314,-4.786102474716889432
0.605000000000000426,-4.762547122409731770
0.606000000000000316,-4.738684822547895692
0.607000000000000428,-4.714523814507234789
0.608000000000000318,-4.690072301952810108
0.609000000000000430,-4.665338450253036839
0.610000000000000320,-4.640330383981328133
0.611000000000000432,-4.615056184503633752
0.612000000000000322,-4.589523887650917899
0.613000000000000433,-4.563741481475018347
0.614000000000000323,-4.537716904086787295
0.615000000000000435,-4.511458041575087563
0.616000000000000325,-4.484972726005372223
0.617000000000000437,-4.458268733496515424
0.618000000000000327,-4.431353782374612749
0.619000000000000439,-4.404235531402284742
0.620000000000000329,-4.376921578082361819
0.621000000000000441,-4.349419457034395364
0.622000000000000330,-4.321736638442837730
0.623000000000000442,-4.293880526575422962
0.624000000000000332,-4.265858458370510142
0.625000000000000444,-4.237677702091979803
0.626000000000000334,-4.209345456050462175
0.627000000000000446,-4.180868847389406895
0.628000000000000336,-4.152254930934860866
0.629000000000000448,-4.123510688107510092
0.630000000000000338,-4.094643025895749133
0.631000000000000449,-4.065658775888408627
0.632000000000000339,-4.036564693365965795
0.633000000000000451,-4.007367456448788445
0.634000000000000341,-3.978073665301329331
0.635000000000000453,-3.948689841390835120
0.636000000000000343,-3.919222426799443326
0.637000000000000455,-3.889677783588312732
0.638000000000000345,-3.860062193212714821
0.639000000000000457,-3.830381855986594530
0.640000000000000346,-3.800642890595778312
0.641000000000000458,-3.770851333658184590
0.642000000000000348,-3.741013139330304771
0.643000000000000460,-3.711134178958359620
0.644000000000000350,-3.681220240773358743
0.645000000000000462,-3.651277029628559490
0.646000000000000352,-3.621310166778548556
0.647000000000000464,-3.591325189698468812
0.648000000000000353,-3.561327551942688352
0.649000000000000465,-3.531322623041366349
0.650000000000000355,-3.501315688434331719
0.651000000000000467,-3.471311949440756273
0.652000000000000357,-3.441316523263987737
0.653000000000000469,-3.411334443030134445
0.654000000000000359,-3.381370657859767981
0.655000000000000471,-3.351430032971384865
0.656000000000000361,-3.321517349815972242
0.657000000000000473,-3.291637306241400385
0.658000000000000362,-3.261794516685998069
0.659000000000000474,-3.231993512400102908
0.660000000000000364,-3.202238741694906743
0.661000000000000476,-3.172534570217427685
0.662000000000000366,-3.142885281251029284
0.663000000000000478,-3.113295076040309084
