# CNT15-COOH-30_CS-8142-AC
# h[nm],U(h)[kJ/mol]
0.200000000000000011,108.071877050693075262
0.201000000000000012,105.617161621506596703
0.202000000000000013,103.802151344452454396
0.203000000000000014,102.257392936005885531
0.204000000000000015,100.784028008272656507
0.205000000000000016,99.288239071861681850
0.206000000000000016,97.737570439866601646
0.207000000000000017,96.132584776405266780
0.208000000000000018,94.489109653630848129
0.209000000000000019,92.827662159071877568
0.210000000000000020,91.167625251761904792
0.211000000000000021,89.524472969410808787
0.212000000000000022,87.908868280194354838
0.213000000000000023,86.326837277109405022
0.214000000000000024,84.780494428389403083
0.215000000000000024,83.268984380444919680
0.216000000000000025,81.789437933719455032
0.217000000000000026,80.337829438268244076
0.218000000000000027,78.909682024339531381
0.219000000000000028,77.500604705407653228
0.220000000000000029,76.106668014611770445
0.221000000000000030,74.724637229656551085
0.222000000000000031,73.352087844317651388
0.223000000000000032,71.987429205114338515
0.224000000000000032,70.629860866401912745
0.225000000000000033,69.279283407013423357
0.226000000000000034,67.936181988465506265
0.227000000000000035,66.601497331247074385
0.228000000000000036,65.276495356843497575
0.229000000000000037,63.962643666589158897
0.230000000000000038,62.661500388534456363
0.231000000000000039,61.374618743167630441
0.232000000000000040,60.103468942297567423
0.233000000000000040,58.849377704289373980
0.234000000000000041,57.613484693176232554
0.235000000000000042,56.396714514811932872
0.236000000000000043,55.199762476662172617
0.237000000000000044,54.023092089105965385
0.238000000000000045,52.866942210441791872
0.239000000000000046,51.731341776282974365
0.240000000000000047,50.616130173809914083
0.241000000000000048,49.520981495338247669
0.242000000000000048,48.445431112065506341
0.243000000000000049,47.388903230593896865
0.244000000000000050,46.350738318898876855
0.245000000000000051,45.330219505264814472
0.246000000000000052,44.326597256665827729
0.247000000000000053,43.339111827762408780
0.248000000000000054,42.367013135601055751
0.249000000000000055,41.409577857166468107
0.250000000000000056,40.466123667142724685
0.251000000000000056,39.536020632387177898
0.252000000000000057,38.618699859046401457
0.253000000000000058,37.713659549651211478
0.254000000000000059,36.820468672812211253
0.255000000000000060,35.938768479290821745
0.256000000000000061,35.068272117220125494
0.257000000000000062,34.208762608012257544
0.258000000000000063,33.360089444809219117
0.259000000000000064,32.522164068867013498
0.260000000000000064,31.694954467502093109
0.261000000000000065,30.878479121497729665
0.262000000000000066,30.072800511317893779
0.263000000000000067,29.278018371104206352
0.264000000000000068,28.494262858066356614
0.265000000000000069,27.721687783214417067
0.266000000000000070,26.960464027982425250
0.267000000000000071,26.210773250598073503
0.268000000000000071,25.472801966407001117
0.269000000000000072,24.746736068007127329
0.270000000000000073,24.032755834163832986
0.271000000000000074,23.331031461165629537
0.272000000000000075,22.641719136592676875
0.273000000000000076,21.964957663416026179
0.274000000000000077,21.300865631891959140
0.275000000000000078,20.649539127806853855
0.276000000000000079,20.011049958186085007
0.277000000000000079,19.385444369506743101
0.278000000000000080,18.772742228650610485
0.279000000000000081,18.172936633181564048
0.280000000000000082,17.585993914923694348
0.281000000000000083,17.011853999133560222
0.282000000000000084,16.450431080694091435
0.283000000000000085,15.901614578598932681
0.284000000000000086,15.365270330441806124
0.285000000000000087,14.841241989582822924
0.286000000000000087,14.329352589038581556
0.287000000000000088,13.829406237857885031
0.288000000000000089,13.341189917723482949
0.289000000000000090,12.864475349695231543
0.290000000000000091,12.399020903324254661
0.291000000000000092,11.944573522765214335
0.292000000000000093,11.500870646952519039
0.293000000000000094,11.067642103344535798
0.294000000000000095,10.644611957145516001
0.295000000000000095,10.231500300258920433
0.296000000000000096,9.828024966487737046
0.297000000000000097,9.433903161655344149
0.298000000000000098,9.048852999364223493
0.299000000000000099,8.672594935025298213
0.300000000000000100,8.304853092573512896
0.301000000000000101,7.945356479928499027
0.302000000000000102,7.593840090763089634
0.303000000000000103,7.250045891504262485
0.304000000000000103,6.913723693716283591
0.305000000000000104,6.584631913103701883
0.306000000000000105,6.262538217329949752
0.307000000000000106,5.947220065679699630
0.308000000000000107,5.638465144305920163
0.309000000000000108,5.336071701403519718
0.310000000000000109,5.039848787145915665
0.311000000000000110,4.749616403619180360
0.312000000000000111,4.465205570293857562
0.313000000000000111,4.186458310799430649
0.314000000000000112,3.913227566914128541
0.315000000000000113,3.645377045763132262
0.316000000000000114,3.382781006237087329
0.317000000000000115,3.125323990607707714
0.318000000000000116,2.872900507233922873
0.319000000000000117,2.625414670127433681
0.320000000000000118,2.382779800985922680
0.321000000000000119,2.144917999110897089
0.322000000000000119,1.911759684411131532
0.323000000000000120,1.683243118455722165
0.324000000000000121,1.459313908286961503
0.325000000000000122,1.239924497437988604
0.326000000000000123,1.025033648325436753
0.327000000000000124,0.814605919907034348
0.328000000000000125,0.608611144211210986
0.329000000000000126,0.407023905062889324
0.330000000000000127,0.209823022048488295
0.331000000000000127,0.016991042486521214
0.332000000000000128,-0.171486256100826406
0.333000000000000129,-0.355620350783518557
0.334000000000000130,-0.535420443310128502
0.335000000000000131,-0.710893913754204299
0.336000000000000132,-0.882046756224213580
0.337000000000000133,-1.048883995365425648
0.338000000000000134,-1.211410082594401638
0.339000000000000135,-1.369629271206935783
0.340000000000000135,-1.523545969689475310
0.341000000000000136,-1.673165072739515979
0.342000000000000137,-1.818492269664981009
0.343000000000000138,-1.959534329983927181
0.344000000000000139,-2.096299366186349822
0.345000000000000140,-2.228797073747440294
0.346000000000000141,-2.357038948598678907
0.347000000000000142,-2.481038482368548959
0.348000000000000143,-2.600811335799774859
0.349000000000000143,-2.716375490834338713
0.350000000000000144,-2.827751381932635422
0.351000000000000145,-2.934962007258202554
0.352000000000000146,-3.038033020416388563
0.353000000000000147,-3.136992803483088732
0.354000000000000148,-3.231872522100258216
0.355000000000000149,-3.322706163447509020
0.356000000000000150,-3.409530557925136041
0.357000000000000151,-3.492385385403347975
0.358000000000000151,-3.571313166906028957
0.359000000000000152,-3.646359242605291318
0.360000000000000153,-3.717571737006333699
0.361000000000000154,-3.785001512200010243
0.362000000000000155,-3.848702110055223446
0.363000000000000156,-3.908729684213297251
0.364000000000000157,-3.965142922733519981
0.365000000000000158,-4.018002962223349073
0.366000000000000159,-4.067373294267447648
0.367000000000000159,-4.113319664949300680
0.368000000000000160,-4.155909968235599550
0.369000000000000161,-4.195214133968893755
0.370000000000000162,-4.231304011187729586
0.371000000000000163,-4.264253247465854102
0.372000000000000164,-4.294137164933518491
0.373000000000000165,-4.321032633614747098
0.374000000000000166,-4.345017942684600065
0.375000000000000167,-4.366172670219919283
0.376000000000000167,-4.384577551987229427
0.377000000000000168,-4.400314349780489742
0.378000000000000169,-4.413465719791345165
0.379000000000000170,-4.424115081464298882
0.380000000000000171,-4.432346487259628987
0.381000000000000172,-4.438244493717303563
0.382000000000000173,-4.441894034186658402
0.383000000000000174,-4.443380293558369054
0.384000000000000175,-4.442788585307734905
0.385000000000000175,-4.440204231131682278
0.386000000000000176,-4.435712443436180763
0.387000000000000177,-4.429398210905308275
0.388000000000000178,-4.421346187359675106
0.389000000000000179,-4.411640584088106110
0.390000000000000180,-4.400365065814666465
0.391000000000000181,-4.387602650441520424
0.392000000000000182,-4.373435612687871732
0.393000000000000183,-4.357945391725799311
0.394000000000000183,-4.341212502895412051
0.395000000000000184,-4.323316453564318707
0.396000000000000185,-4.304335663179792881
0.397000000000000186,-4.284347387546602270
0.398000000000000187,-4.263427647348832394
0.399000000000000188,-4.241651160920241637
0.400000000000000189,-4.219091281254951475
0.401000000000000190,-4.195819937238393749
0.402000000000000191,-4.171907579067299920
0.403000000000000191,-4.147423127817210897
0.404000000000000192,-4.122433929106766648
0.405000000000000193,-4.097005710799040301
0.406000000000000194,-4.071202544672652301
0.407000000000000195,-4.045086811987834707
0.408000000000000196,-4.018719172866382472
0.409000000000000197,-3.992158539398447115
0.410000000000000198,-3.965462052384049141
0.411000000000000199,-3.938685061612343219
0.412000000000000199,-3.911881109578049909
0.413000000000000200,-3.885101918530526000
0.414000000000000201,-3.858397380748466166
0.415000000000000202,-3.831815551930314090
0.416000000000000203,-3.805402647588879805
0.417000000000000204,-3.779203042336779284
0.418000000000000205,-3.753259271948390818
0.419000000000000206,-3.727612038083165658
0.420000000000000207,-3.702300215554643614
0.421000000000000207,-3.677360862029808608
0.422000000000000208,-3.652829230043101116
0.423000000000000209,-3.628738781210610220
0.424000000000000210,-3.605121202530231272
0.425000000000000211,-3.582006424654935017
0.426000000000000212,-3.559422642027564088
0.427000000000000213,-3.537396334766882866
0.428000000000000214,-3.515952292196580231
0.429000000000000214,-3.495113637910511439
0.430000000000000215,-3.474901856269653422
0.431000000000000216,-3.455336820228368744
0.432000000000000217,-3.436436820389798807
0.433000000000000218,-3.418218595192594300
0.434000000000000219,-3.400697362133771939
0.435000000000000220,-3.383886849934953922
0.436000000000000221,-3.367799331561856402
0.437000000000000222,-3.352445658009695961
0.438000000000000222,-3.337835292769783191
0.439000000000000223,-3.323976346895515466
0.440000000000000224,-3.310875614588561611
0.441000000000000225,-3.298538609229039853
0.442000000000000226,-3.286969599776285555
0.443000000000000227,-3.276171647469424464
0.444000000000000228,-3.266146642760234364
0.445000000000000229,-3.256895342413051786
0.446000000000000230,-3.248417406709693811
0.447000000000000230,-3.240711436699945214
0.448000000000000231,-3.233775011440948255
0.449000000000000232,-3.227604725171471678
0.450000000000000233,-3.222196224369857198
0.451000000000000234,-3.217544244646877161
0.452000000000000235,-3.213642647427493948
0.453000000000000236,-3.210484456377848517
0.454000000000000237,-3.208061893536558351
0.455000000000000238,-3.206366415111504775
0.456000000000000238,-3.205388746905923902
0.457000000000000239,-3.205118919339807526
0.458000000000000240,-3.205546302034876227
0.459000000000000241,-3.206659637933572782
0.460000000000000242,-3.208447076924751507
0.461000000000000243,-3.210896208950599462
0.462000000000000244,-3.213994096571631154
0.463000000000000245,-3.217727306968095835
0.464000000000000246,-3.222081943358589662
0.465000000000000246,-3.227043675817886204
0.466000000000000247,-3.232597771478168625
0.467000000000000248,-3.238729124099324785
0.468000000000000249,-3.245422282995629182
0.469000000000000250,-3.252661481307731695
0.470000000000000251,-3.260430663610280000
0.471000000000000252,-3.268713512846970648
0.472000000000000253,-3.277493476586341270
0.473000000000000254,-3.286753792592562284
0.474000000000000254,-3.296477513707168239
0.475000000000000255,-3.306647532038518911
0.476000000000000256,-3.317246602457141869
0.477000000000000257,-3.328257365396017686
0.478000000000000258,-3.339662368956055616
0.479000000000000259,-3.351444090317811320
0.480000000000000260,-3.363584956461571185
0.481000000000000261,-3.376067364198688914
0.482000000000000262,-3.388873699517914950
0.483000000000000262,-3.401986356251283983
0.484000000000000263,-3.415387754064690196
0.485000000000000264,-3.429060355779192548
0.486000000000000265,-3.442986684029534672
0.487000000000000266,-3.457149337266984812
0.488000000000000267,-3.471531005114274926
0.489000000000000268,-3.486114483080795079
0.490000000000000269,-3.500882686646698883
0.491000000000000270,-3.515818664725105513
0.492000000000000270,-3.530905612511809899
0.493000000000000271,-3.546126883732477530
0.494000000000000272,-3.561466002297451805
0.495000000000000273,-3.576906673374757872
0.496000000000000274,-3.592432793892004206
0.497000000000000275,-3.608028462478240606
0.498000000000000276,-3.623677988857053833
0.499000000000000277,-3.639365902702197619
0.500000000000000222,-3.655076961967461902
0.501000000000000334,-3.670796160702411548
0.502000000000000224,-3.686508736365837535
0.503000000000000336,-3.702200176648870578
0.504000000000000226,-3.717856225819685445
0.505000000000000338,-3.733462890601894291
0.506000000000000227,-3.749006445598598081
0.507000000000000339,-3.764473438274313910
0.508000000000000229,-3.779850693506662029
0.509000000000000341,-3.795125317720034808
0.510000000000000231,-3.810284702613148333
0.511000000000000343,-3.825316528492495483
0.512000000000000233,-3.840208767223522557
0.513000000000000345,-3.854949684811455057
0.514000000000000234,-3.869527843623415286
0.515000000000000346,-3.883932104263497997
0.516000000000000236,-3.898151627112285134
0.517000000000000348,-3.912175873542280247
0.518000000000000238,-3.925994606820439436
0.519000000000000350,-3.939597892709011173
0.520000000000000240,-3.952976099775569629
0.521000000000000352,-3.966119899423253603
0.522000000000000242,-3.979020265651652899
0.523000000000000353,-3.991668474559129542
0.524000000000000243,-4.004056103596624006
0.525000000000000355,-4.016175030583426064
0.526000000000000245,-4.028017432494623407
0.527000000000000357,-4.039575784030271066
0.528000000000000247,-4.050842855975727019
0.529000000000000359,-4.061811713362732057
0.530000000000000249,-4.072475713440398160
0.531000000000000361,-4.082828503465200320
0.532000000000000250,-4.092864018318804753
0.533000000000000362,-4.102576477962474932
0.534000000000000252,-4.111960384736358165
0.535000000000000364,-4.121010520512180975
0.536000000000000254,-4.129721943707164833
0.537000000000000366,-4.138089986167210022
0.538000000000000256,-4.146110249926967306
0.539000000000000368,-4.153778603854293650
0.540000000000000258,-4.161091180186345717
0.541000000000000369,-4.168044370964457457
0.542000000000000259,-4.174634824374622966
0.543000000000000371,-4.180859441000360555
0.544000000000000261,-4.186715369994407077
0.545000000000000373,-4.192200005175599209
0.546000000000000263,-4.197310981057043477
0.547000000000000375,-4.202046168811522264
0.548000000000000265,-4.206403672179940934
0.549000000000000377,-4.210381823328296136
0.550000000000000266,-4.213979178658659563
0.551000000000000378,-4.217194514579328590
0.552000000000000268,-4.220026823239201086
0.553000000000000380,-4.222475308231277147
0.554000000000000270,-4.224539380269933808
0.555000000000000382,-4.226218652846523760
0.556000000000000272,-4.227512937867718534
0.557000000000000384,-4.228422241280666682
0.558000000000000274,-4.228946758689215990
0.559000000000000385,-4.229086870964854583
0.560000000000000275,-4.228843139856330424
0.561000000000000387,-4.228216303601383785
0.562000000000000277,-4.227207272544076133
0.563000000000000389,-4.225817124761087840
0.564000000000000279,-4.224047101700003637
0.565000000000000391,-4.221898603832743291
0.566000000000000281,-4.219373186326914826
0.567000000000000393,-4.216472554737920042
0.568000000000000282,-4.213198560724399577
0.569000000000000394,-4.209553197789533741
0.570000000000000284,-4.205538597050546556
0.571000000000000396,-4.201157023038730287
0.572000000000000286,-4.196410869532111398
0.573000000000000398,-4.191302655422725287
0.574000000000000288,-4.185835020620526592
0.575000000000000400,-4.180010721995692791
0.576000000000000290,-4.173832629361013069
0.577000000000000401,-4.167303721496029567
0.578000000000000291,-4.160427082214371630
0.579000000000000403,-4.153205896475775205
0.580000000000000293,-4.145643446544045041
0.581000000000000405,-4.137743108192223573
0.582000000000000295,-4.129508346956130893
0.583000000000000407,-4.120942714437296317
0.584000000000000297,-4.112049844656274544
0.585000000000000409,-4.102833450457294084
0.586000000000000298,-4.093297319964994685
0.587000000000000410,-4.083445313094050455
0.588000000000000300,-4.073281358112359030
0.589000000000000412,-4.062809448258354550
0.590000000000000302,-4.052033638413073291
0.591000000000000414,-4.040958041827400038
0.592000000000000304,-4.029586826904923313
0.593000000000000416,-4.017924214040734299
0.594000000000000306,-4.005974472516549589
0.595000000000000417,-3.993741917452298562
0.596000000000000307,-3.981230906814469339
0.597000000000000419,-3.968445838481267085
0.598000000000000309,-3.955391147364783588
0.599000000000000421,-3.942071302590073323
0.600000000000000311,-3.928490804731328723
0.601000000000000423,-3.914654183104937513
0.602000000000000313,-3.900565993119457175
0.603000000000000425,-3.886230813682312935
0.604000000000000314,-3.871653244663140647
0.605000000000000426,-3.856837904413455753
0.606000000000000316,-3.841789427342567453
0.607000000000000428,-3.826512461549325117
0.608000000000000318,-3.811011666509567242
0.609000000000000430,-3.795291710818744946
0.610000000000000320,-3.779357269989616075
0.611000000000000432,-3.763213024304369103
0.612000000000000322,-3.746863656721008518
0.613000000000000433,-3.730313850833395062
0.614000000000000323,-3.713568288884624202
0.615000000000000435,-3.696631649833170830
0.616000000000000325,-3.679508607471369430
0.617000000000000437,-3.662203828595694599
0.618000000000000327,-3.644721971228350732
0.619000000000000439,-3.627067682889536737
0.620000000000000329,-3.609245598919960774
0.621000000000000441,-3.591260340852898914
0.622000000000000330,-3.573116514835311452
0.623000000000000442,-3.554818710097349399
0.624000000000000332,-3.536371497469681824
0.625000000000000444,-3.517779427947996140
0.626000000000000334,-3.499047031304088673
0.627000000000000446,-3.480178814742805660
0.628000000000000336,-3.461179261604323987
0.629000000000000448,-3.442052830111000272
0.630000000000000338,-3.422803952158199881
0.631000000000000449,-3.403437032148392660
0.632000000000000339,-3.383956445867897234
0.633000000000000451,-3.364366539405534873
0.634000000000000341,-3.344671628112581008
0.635000000000000453,-3.324875995603283396
0.636000000000000343,-3.304983892795297695
0.637000000000000455,-3.284999536989311686
0.638000000000000345,-3.264927110987268399
0.639000000000000457,-3.244770762248327056
0.640000000000000346,-3.224534602082127943
0.641000000000000458,-3.204222704878380235
0.642000000000000348,-3.183839107372385957
0.643000000000000460,-3.163387807945551966
0.644000000000000350,-3.142872765960428971
0.645000000000000462,-3.122297901129413411
0.646000000000000352,-3.101667092916602364
0.647000000000000464,-3.080984179971960391
0.648000000000000353,-3.060252959597346223
0.649000000000000465,-3.039477187243433853
0.650000000000000355,-3.018660576037220711
0.651000000000000467,-2.997806796339108182
0.652000000000000357,-2.976919475329244058
0.653000000000000469,-2.956002196622149025
0.654000000000000359,-2.935058499909287466
0.655000000000000471,-2.914091880628698839
0.656000000000000361,-2.893105789661251315
0.657000000000000473,-2.872103633052706773
0.658000000000000362,-2.851088771761182805
0.659000000000000474,-2.830064521429202617
0.660000000000000364,-2.809034152179886057
0.661000000000000476,-2.788000888436528157
0.662000000000000366,-2.766967908765150863
0.663000000000000478,-2.745938345739249886
