# CNT15-COOH-30_CS-8897-AC
# h[nm],U(h)[kJ/mol]
0.149999999999999994,133.240518428575057897
0.150999999999999995,131.340136485206414818
0.151999999999999996,129.680266061470916839
0.152999999999999997,128.031886019036619473
0.153999999999999998,126.338587007224916192
0.154999999999999999,124.611606421811330847
0.156000000000000000,122.878978171911370509
0.157000000000000001,121.164286774707150585
0.158000000000000002,119.480536355672327886
0.159000000000000002,117.830888975724178636
0.160000000000000003,116.211828017465492735
0.161000000000000004,114.616547777609440573
0.162000000000000005,113.037642954379776938
0.163000000000000006,111.468850127659763416
0.164000000000000007,109.905920035832238568
0.165000000000000008,108.346826817340883053
0.166000000000000009,106.791541945607079356
0.167000000000000010,105.241572008895559520
0.168000000000000010,103.699412480811204773
0.169000000000000011,102.168021085771414391
0.170000000000000012,100.650372290294569666
0.171000000000000013,99.149121735084136731
0.172000000000000014,97.666386197443770811
0.173000000000000015,96.203629743534037289
0.174000000000000016,94.761638405855308065
0.175000000000000017,93.340562276795026264
0.176000000000000018,91.940003807996490082
0.177000000000000018,90.559133092204362470
0.178000000000000019,89.196814017867012581
0.179000000000000020,87.851728734165732249
0.180000000000000021,86.522491377678150570
0.181000000000000022,85.207745202110032778
0.182000000000000023,83.906239963856691588
0.183000000000000024,82.616888588505531743
0.184000000000000025,81.338803781001644211
0.185000000000000026,80.071316389320912776
0.186000000000000026,78.813978054327080258
0.187000000000000027,77.566551052264486543
0.188000000000000028,76.328988336618678545
0.189000000000000029,75.101406683225945926
0.190000000000000030,73.884055598578598278
0.191000000000000031,72.677284318572318966
0.192000000000000032,71.481508845808377828
0.193000000000000033,70.297180580858992016
0.194000000000000034,69.124757720964424834
0.195000000000000034,67.964680245438501061
0.196000000000000035,66.817348991481225084
0.197000000000000036,65.683109053087150642
0.198000000000000037,64.562237511441963989
0.199000000000000038,63.454935326931583006
0.200000000000000039,62.361323087959966927
0.201000000000000040,61.281440216182019753
0.202000000000000041,60.215247166738038231
0.203000000000000042,59.162630130520071248
0.204000000000000042,58.123407738288598523
0.205000000000000043,57.097339278680088626
0.206000000000000044,56.084133969264279074
0.207000000000000045,55.083460857752676532
0.208000000000000046,54.094958975670536461
0.209000000000000047,53.118247416254249060
0.210000000000000048,52.152935059517041338
0.211000000000000049,51.198629718317903325
0.212000000000000050,50.254946528294240693
0.213000000000000050,49.321515450505984290
0.214000000000000051,48.397987797756414352
0.215000000000000052,47.484041733271411090
0.216000000000000053,46.579386723450127761
0.217000000000000054,45.683766954660100623
0.218000000000000055,44.796963747613574469
0.219000000000000056,43.918797021929044888
0.220000000000000057,43.049125878331452100
0.221000000000000058,42.187848376935477290
0.222000000000000058,41.334900597560888968
0.223000000000000059,40.490255072466062813
0.224000000000000060,39.653918683653749611
0.225000000000000061,38.825930116410795279
0.226000000000000062,38.006356958367440768
0.227000000000000063,37.195292529468147791
0.228000000000000064,36.392852523160080125
0.229000000000000065,35.599171533129336353
0.230000000000000066,34.814399533316631619
0.231000000000000066,34.038698371954538402
0.232000000000000067,33.272238333193200788
0.233000000000000068,32.515194812688221759
0.234000000000000069,31.767745146459315464
0.235000000000000070,31.030065625502988524
0.236000000000000071,30.302328722152743978
0.237000000000000072,29.584700548091085182
0.238000000000000073,28.877338558282747982
0.239000000000000073,28.180389509950522609
0.240000000000000074,27.493987681069597784
0.241000000000000075,26.818253348725438201
0.242000000000000076,26.153291524054509409
0.243000000000000077,25.499190937357688824
0.244000000000000078,24.856023264322715249
0.245000000000000079,24.223842582089545772
0.246000000000000080,23.602685042115435721
0.247000000000000081,22.992568745409549535
0.248000000000000081,22.393493804682318427
0.249000000000000082,21.805442577255828240
0.250000000000000111,21.228380052175168657
0.251000000000000112,20.662254374815368863
0.252000000000000113,20.106997492359120372
0.253000000000000114,19.562525903800299432
0.254000000000000115,19.028741498572880886
0.255000000000000115,18.505532468491512788
0.256000000000000116,17.992774278389838116
0.257000000000000117,17.490330681633615484
0.258000000000000118,16.998054767546907584
0.259000000000000119,16.515790028699669278
0.260000000000000120,16.043371436948870468
0.261000000000000121,15.580626518085903598
0.262000000000000122,15.127376415908120322
0.263000000000000123,14.683436937489199536
0.264000000000000123,14.248619572362548169
0.265000000000000124,13.822732479245066983
0.266000000000000125,13.405581434808846453
0.267000000000000126,12.996970739849995624
0.268000000000000127,12.596704079001389331
0.269000000000000128,12.204585330888805927
0.270000000000000129,11.820419326332228138
0.271000000000000130,11.444012552846619002
0.272000000000000131,11.075173804298211522
0.273000000000000131,10.713714775122186396
0.274000000000000132,10.359450599007319127
0.275000000000000133,10.012200332402686698
0.276000000000000134,9.671787383602682198
0.277000000000000135,9.338039888521562304
0.278000000000000136,9.010791034577918523
0.279000000000000137,8.689879334376996667
0.280000000000000138,8.375148851105809200
0.281000000000000139,8.066449377744692839
0.282000000000000139,7.763636572353133758
0.283000000000000140,7.466572051808381794
0.284000000000000141,7.175123446466334265
0.285000000000000142,6.889164418277054835
0.286000000000000143,6.608574644925073294
0.287000000000000144,6.333239772579795535
0.288000000000000145,6.063051339835082487
0.289000000000000146,5.797906675394203901
0.290000000000000147,5.537708772015158765
0.291000000000000147,5.282366139178174436
0.292000000000000148,5.031792636869881541
0.293000000000000149,4.785907292802537683
0.294000000000000150,4.544634105300425553
0.295000000000000151,4.307901833992972662
0.296000000000000152,4.075643780355238555
0.297000000000000153,3.847797560033474618
0.298000000000000154,3.624304868786651923
0.299000000000000155,3.405111243766504536
0.300000000000000155,3.190165821748530028
0.301000000000000156,2.979421095816473741
0.302000000000000157,2.772832671892669687
0.303000000000000158,2.570359026398639557
0.304000000000000159,2.371961266223021614
0.305000000000000160,2.177602892069939067
0.306000000000000161,1.987249566158890701
0.307000000000000162,1.800868885148944942
0.308000000000000163,1.618430159064915275
0.309000000000000163,1.439904196912015433
0.310000000000000164,1.265263099578047612
0.311000000000000165,1.094480060539166688
0.312000000000000166,0.927529174806167034
0.313000000000000167,0.764385256473737340
0.314000000000000168,0.605023665164794222
0.315000000000000169,0.449420141596148404
0.316000000000000170,0.297550652430019547
0.317000000000000171,0.149391244518886024
0.318000000000000171,0.004917908597913900
0.319000000000000172,-0.135893547569799961
0.320000000000000173,-0.273067616634669441
0.321000000000000174,-0.406629199769341365
0.322000000000000175,-0.536603705562683220
0.323000000000000176,-0.663017139850419879
0.324000000000000177,-0.785896186664192253
0.325000000000000178,-0.905268280507311118
0.326000000000000179,-1.021161670189636883
0.327000000000000179,-1.133605474474081776
0.328000000000000180,-1.242629729805477590
0.329000000000000181,-1.348265430407566745
0.330000000000000182,-1.450544561046273495
0.331000000000000183,-1.549500122768054489
0.332000000000000184,-1.645166151929782883
0.333000000000000185,-1.737577732842841893
0.334000000000000186,-1.826771004358144213
0.335000000000000187,-1.912783160721077236
0.336000000000000187,-1.995652447026293741
0.337000000000000188,-2.075418149601089279
0.338000000000000189,-2.152120581644585418
0.339000000000000190,-2.225801064446197408
0.340000000000000191,-2.296501904502490810
0.341000000000000192,-2.364266366846318856
0.342000000000000193,-2.429138644895634247
0.343000000000000194,-2.491163827122510277
0.344000000000000195,-2.550387860834753440
0.345000000000000195,-2.606857513354796207
0.346000000000000196,-2.660620330870997030
0.347000000000000197,-2.711724595227751333
0.348000000000000198,-2.760219278910927443
0.349000000000000199,-2.806153998475246603
0.350000000000000200,-2.849578966650283984
0.351000000000000201,-2.890544943351253337
0.352000000000000202,-2.929103185810530086
0.353000000000000203,-2.965305398035391171
0.354000000000000203,-2.999203679787056931
0.355000000000000204,-3.030850475265560728
0.356000000000000205,-3.060298521674874372
0.357000000000000206,-3.087600797832487309
0.358000000000000207,-3.112810472977266762
0.359000000000000208,-3.135980855919950017
0.360000000000000209,-3.157165344670665341
0.361000000000000210,-3.176417376668380754
0.362000000000000210,-3.193790379728050244
0.363000000000000211,-3.209337723812073051
0.364000000000000212,-3.223112673724096933
0.365000000000000213,-3.235168342814543685
0.366000000000000214,-3.245557647779221178
0.367000000000000215,-3.254333264624335698
0.368000000000000216,-3.261547585863810550
0.369000000000000217,-3.267252679007280225
0.370000000000000218,-3.271500246390418365
0.371000000000000218,-3.274341586392270020
0.372000000000000219,-3.275827556078171998
0.373000000000000220,-3.276008535300579005
0.374000000000000221,-3.274934392284426288
0.375000000000000222,-3.272654450718039953
0.376000000000000223,-3.269217458365774043
0.377000000000000224,-3.264671557213203013
0.378000000000000225,-3.259064255151484790
0.379000000000000226,-3.252442399202890133
0.380000000000000226,-3.244852150285749470
0.381000000000000227,-3.236338959512886415
0.382000000000000228,-3.226947546014491852
0.383000000000000229,-3.216721876272782055
0.384000000000000230,-3.205705144952889274
0.385000000000000231,-3.193939757211697650
0.386000000000000232,-3.181467312463531538
0.387000000000000233,-3.168328589579534782
0.388000000000000234,-3.154563533495096550
0.389000000000000234,-3.140211243198084201
0.390000000000000235,-3.125309961068544418
0.391000000000000236,-3.109897063539226458
0.392000000000000237,-3.094009053044674662
0.393000000000000238,-3.077681551225598167
0.394000000000000239,-3.060949293353925960
0.395000000000000240,-3.043846123943272364
0.396000000000000241,-3.026404993508576613
0.397000000000000242,-3.008657956438076209
0.398000000000000242,-2.990636169940386946
0.399000000000000243,-2.972369894028819903
0.400000000000000244,-2.953888492505012842
0.401000000000000245,-2.935220434903726971
0.402000000000000246,-2.916393299360394931
0.403000000000000247,-2.897433776363345093
0.404000000000000248,-2.878367673352443923
0.405000000000000249,-2.859219920126286674
0.406000000000000250,-2.840014575020150200
0.407000000000000250,-2.820774831817443484
0.408000000000000251,-2.801523027357600615
0.409000000000000252,-2.782280649803960060
0.410000000000000253,-2.763068347535587943
0.411000000000000254,-2.743905938627607899
0.412000000000000255,-2.724812420885144082
0.413000000000000256,-2.705805982396750409
0.414000000000000257,-2.686904012573652079
0.415000000000000258,-2.668123113642129507
0.416000000000000258,-2.649479112556789584
0.417000000000000259,-2.630987073303519885
0.418000000000000260,-2.612661309561492118
0.419000000000000261,-2.594515397694511449
0.420000000000000262,-2.576562190042726463
0.421000000000000263,-2.558813828486668385
0.422000000000000264,-2.541281758256265455
0.423000000000000265,-2.523976741958425585
0.424000000000000266,-2.506908873797703219
0.425000000000000266,-2.490087593965163659
0.426000000000000267,-2.473521703171728259
0.427000000000000268,-2.457219377302879426
0.428000000000000269,-2.441188182172592924
0.429000000000000270,-2.425435088355196722
0.430000000000000271,-2.409966486074592407
0.431000000000000272,-2.394788200131270361
0.432000000000000273,-2.379905504848213393
0.433000000000000274,-2.365323139017699638
0.434000000000000274,-2.351045320831769647
0.435000000000000275,-2.337075762779907251
0.436000000000000276,-2.323417686498324919
0.437000000000000277,-2.310073837555874476
0.438000000000000278,-2.297046500162497118
0.439000000000000279,-2.284337511786794561
0.440000000000000280,-2.271948277669968874
0.441000000000000281,-2.259879785224164106
0.442000000000000282,-2.248132618303946284
0.443000000000000282,-2.236706971340134409
0.444000000000000283,-2.225602663326175179
0.445000000000000284,-2.214819151647537510
0.446000000000000285,-2.204355545745432465
0.447000000000000286,-2.194210620606804163
0.448000000000000287,-2.184382830072848058
0.449000000000000288,-2.174870319959237186
0.450000000000000289,-2.165670940981461623
0.451000000000000290,-2.156782261479422313
0.452000000000000290,-2.148201579935876016
0.453000000000000291,-2.139925937283722046
0.454000000000000292,-2.131952128997803619
0.455000000000000293,-2.124276716967111955
0.456000000000000294,-2.116896041143928819
0.457000000000000295,-2.109806230966770890
0.458000000000000296,-2.103003216554368393
0.459000000000000297,-2.096482739668422468
0.460000000000000298,-2.090240364443144649
0.461000000000000298,-2.084271487880021034
0.462000000000000299,-2.078571350106548365
0.463000000000000300,-2.073135044397994786
0.464000000000000301,-2.067957526961655468
0.465000000000000302,-2.063033626483242511
0.466000000000000303,-2.058358053435407342
0.467000000000000304,-2.053925409148682046
0.468000000000000305,-2.049730194645315695
0.469000000000000306,-2.045766819236774836
0.470000000000000306,-2.042029608885951752
0.471000000000000307,-2.038512814335180945
0.472000000000000308,-2.035210619001606602
0.473000000000000309,-2.032117146641422956
0.474000000000000310,-2.029226468784821158
0.475000000000000311,-2.026532611943610895
0.476000000000000312,-2.024029564593653241
0.477000000000000313,-2.021711283934366055
0.478000000000000314,-2.019571702427725324
0.479000000000000314,-2.017604734119365695
0.480000000000000315,-2.015804280744371013
0.481000000000000316,-2.014164237620638342
0.482000000000000317,-2.012678499332623439
0.483000000000000318,-2.011340965208515463
0.484000000000000319,-2.010145544593882061
0.485000000000000320,-2.009086161924960034
0.486000000000000321,-2.008156761604804608
0.487000000000000322,-2.007351312685601741
0.488000000000000322,-2.006663813360443083
0.489000000000000323,-2.006088295268063426
0.490000000000000324,-2.005618827613868227
0.491000000000000325,-2.005249521110822108
0.492000000000000326,-2.004974531743641375
0.493000000000000327,-2.004788064359898314
0.494000000000000328,-2.004684376091556697
0.495000000000000329,-2.004657779610524049
0.496000000000000330,-2.004702646221807605
0.497000000000000330,-2.004813408797927909
0.498000000000000331,-2.004984564558054849
0.499000000000000332,-2.005210677695632882
0.500000000000000333,-2.005486381857982447
0.501000000000000334,-2.005806382481448935
0.502000000000000335,-2.006165458985765593
0.503000000000000336,-2.006558466831081855
0.504000000000000337,-2.006980339441269301
0.505000000000000338,-2.007426089996960705
0.506000000000000338,-2.007890813101866456
0.507000000000000339,-2.008369686325783832
0.508000000000000340,-2.008857971627729277
0.509000000000000341,-2.009351016662674461
0.510000000000000342,-2.009844255975109739
0.511000000000000343,-2.010333212082910492
0.512000000000000344,-2.010813496454675331
0.513000000000000345,-2.011280810383857531
0.514000000000000346,-2.011730945762915113
0.515000000000000346,-2.012159785760551767
0.516000000000000347,-2.012563305405262071
0.517000000000000348,-2.012937572078244308
0.518000000000000349,-2.013278745918653634
0.519000000000000350,-2.013583080144251802
0.520000000000000351,-2.013846921290327607
0.521000000000000352,-2.014066709369841668
0.522000000000000353,-2.014238977957550691
0.523000000000000353,-2.014360354200956493
0.524000000000000354,-2.014427558760810477
0.525000000000000355,-2.014437405683838112
0.526000000000000356,-2.014386802210296423
0.527000000000000357,-2.014272748519027267
0.528000000000000358,-2.014092337412430211
0.529000000000000359,-2.013842753943930752
0.530000000000000360,-2.013521274990272669
0.531000000000000361,-2.013125268771100984
0.532000000000000361,-2.012652194318093279
0.533000000000000362,-2.012099600895932205
0.534000000000000363,-2.011465127377323192
0.535000000000000364,-2.010746501574265377
0.536000000000000365,-2.009941539527613230
0.537000000000000366,-2.009048144757083598
0.538000000000000367,-2.008064307473621746
0.539000000000000368,-2.006988103756213615
0.540000000000000369,-2.005817694694907338
0.541000000000000369,-2.004551325502064607
0.542000000000000370,-2.003187324593509011
0.543000000000000371,-2.001724102641454284
0.544000000000000372,-2.000160151600857805
0.545000000000000373,-1.998494043710919543
0.546000000000000374,-1.996724430473292511
0.547000000000000375,-1.994850041608639213
0.548000000000000376,-1.992869683993047314
0.549000000000000377,-1.990782240575767803
0.550000000000000377,-1.988586669279761354
0.551000000000000378,-1.986282001886397808
0.552000000000000379,-1.983867342905733633
0.553000000000000380,-1.981341868433618814
0.554000000000000381,-1.978704824996915690
0.555000000000000382,-1.975955528388131821
0.556000000000000383,-1.973093362490524472
0.557000000000000384,-1.970117778094983452
0.558000000000000385,-1.967028291709649990
0.559000000000000385,-1.963824484363485112
0.560000000000000386,-1.960506000404729665
0.561000000000000387,-1.957072546295303583
0.562000000000000388,-1.953523889402066782
0.563000000000000389,-1.949859856785947088
0.564000000000000390,-1.946080333989737010
0.565000000000000391,-1.942185263825489727
0.566000000000000392,-1.938174645162305421
0.567000000000000393,-1.934048531715340191
0.568000000000000393,-1.929807030836746096
0.569000000000000394,-1.925450302309321460
0.570000000000000395,-1.920978557143590226
0.571000000000000396,-1.916392056378889874
0.572000000000000397,-1.911691109889259055
0.573000000000000398,-1.906876075194591902
0.574000000000000399,-1.901947356277769785
0.575000000000000400,-1.896905402408248120
0.576000000000000401,-1.891750706972669560
0.577000000000000401,-1.886483806313057787
0.578000000000000402,-1.881105278572984485
0.579000000000000403,-1.875615742552230625
0.580000000000000404,-1.870015856570419244
0.581000000000000405,-1.864306317339924801
0.582000000000000406,-1.858487858848584695
0.583000000000000407,-1.852561251252460295
0.584000000000000408,-1.846527299779110454
0.585000000000000409,-1.840386843641625303
0.586000000000000409,-1.834140754963775155
0.587000000000000410,-1.827789937716575608
0.588000000000000411,-1.821335326666473353
0.589000000000000412,-1.814777886335532830
0.590000000000000413,-1.808118609973713875
0.591000000000000414,-1.801358518543583642
0.592000000000000415,-1.794498659717618239
0.593000000000000416,-1.787540106888249269
0.594000000000000417,-1.780483958190890448
0.595000000000000417,-1.773331335540110132
0.596000000000000418,-1.766083383678964891
0.597000000000000419,-1.758741269241837601
0.598000000000000420,-1.751306179830677490
0.599000000000000421,-1.743779323104914791
0.600000000000000422,-1.736161925885044699
0.601000000000000423,-1.728455233269980074
0.602000000000000424,-1.720660507768273506
0.603000000000000425,-1.712779028443234042
0.604000000000000425,-1.704812090071959663
0.605000000000000426,-1.696761002318383005
0.606000000000000427,-1.688627088920338748
0.607000000000000428,-1.680411686890554090
0.608000000000000429,-1.672116145731816328
0.609000000000000430,-1.663741826666002677
0.610000000000000431,-1.655290101877244124
0.611000000000000432,-1.646762353769013032
0.612000000000000433,-1.638159974235170679
0.613000000000000433,-1.629484363944981640
