# CNT15-COOH-30_CS-12139-AC
# h[nm],U(h)[kJ/mol]
0.200000000000000011,93.819327072370981568
0.201000000000000012,91.725250616855817043
0.202000000000000013,90.107989805825638996
0.203000000000000014,88.683526654252233357
0.204000000000000015,87.301973365383418013
0.205000000000000016,85.895291237502746640
0.206000000000000016,84.442616781679376459
0.207000000000000017,82.947899499187954575
0.208000000000000018,81.426014212356335520
0.209000000000000019,79.894594244398135174
0.210000000000000020,78.369631542533582547
0.211000000000000021,76.863476078476281828
0.212000000000000022,75.384293040751302328
0.213000000000000023,73.936343186603011191
0.214000000000000024,72.520670149083969136
0.215000000000000024,71.135931847902440950
0.216000000000000025,69.779218996911325235
0.217000000000000026,68.446775185062293190
0.218000000000000027,67.134579916511995634
0.219000000000000028,65.838785564174827414
0.220000000000000029,64.556016727919541154
0.221000000000000030,63.283549854396618173
0.222000000000000031,62.019394948105606602
0.223000000000000032,60.762301756174203149
0.224000000000000032,59.511711322167514027
0.225000000000000033,58.267671222379917140
0.226000000000000034,57.030729751973559871
0.227000000000000035,55.801821223066653488
0.228000000000000036,54.582151618390319925
0.229000000000000037,53.373091248151936838
0.230000000000000038,52.176078845451215216
0.231000000000000039,50.992539719421444033
0.232000000000000040,49.823819147260984153
0.233000000000000040,48.671131091051584860
0.234000000000000041,47.535521528668638780
0.235000000000000042,46.417845143411469166
0.236000000000000043,45.318753778525298515
0.237000000000000044,44.238694888235059466
0.238000000000000045,43.177918168535185828
0.239000000000000046,42.136488596178089949
0.240000000000000047,41.114304215620663285
0.241000000000000048,40.111117168584840442
0.242000000000000048,39.126556641290186178
0.243000000000000049,38.160152596213194442
0.244000000000000050,37.211359347733107938
0.245000000000000051,36.279578226416631992
0.246000000000000052,35.364178749558206505
0.247000000000000053,34.464517872417971489
0.248000000000000054,33.579957033425117174
0.249000000000000055,32.709876826646819836
0.250000000000000056,31.853689236167774368
0.251000000000000056,31.010847450429338323
0.252000000000000057,30.180853341234957554
0.253000000000000058,29.363262743521925557
0.254000000000000059,28.557688709765052693
0.255000000000000060,27.763802938720193225
0.256000000000000061,26.981335593823708052
0.257000000000000062,26.210073733562353482
0.258000000000000063,25.449858576043617120
0.259000000000000064,24.700581814225291311
0.260000000000000064,23.962181188066839610
0.261000000000000065,23.234635506360955759
0.262000000000000066,22.517959295158597399
0.263000000000000067,21.812197232355185150
0.264000000000000068,21.117418509853642661
0.265000000000000069,20.433711246345442447
0.266000000000000070,19.761177055623726062
0.267000000000000071,19.099925857830275078
0.268000000000000071,18.450071004427677224
0.269000000000000072,17.811724772184337695
0.270000000000000073,17.184994267206224805
0.271000000000000074,16.569977767133003965
0.272000000000000075,15.966761518077348114
0.273000000000000076,15.375416992730643884
0.274000000000000077,14.795998607257192958
0.275000000000000078,14.228541887104672270
0.276000000000000079,13.673062065602689330
0.277000000000000079,13.129553094121700241
0.278000000000000080,12.597987038536167859
0.279000000000000081,12.078313833679171552
0.280000000000000082,11.570461365298884360
0.281000000000000083,11.074335847630431218
0.282000000000000084,10.589822463987720980
0.283000000000000085,10.116786237666408610
0.284000000000000086,9.655073100844441925
0.285000000000000087,9.204511129991960416
0.286000000000000087,8.764911917478894310
0.287000000000000088,8.336072050530598077
0.288000000000000089,7.917774670364897460
0.289000000000000090,7.509791086191569320
0.290000000000000091,7.111882420719259024
0.291000000000000092,6.723801265847640707
0.292000000000000093,6.345293329289726003
0.293000000000000094,5.976099054934385535
0.294000000000000095,5.615955201796312579
0.295000000000000095,5.264596368384699687
0.296000000000000096,4.921756451235892449
0.297000000000000097,4.587170028181085435
0.298000000000000098,4.260573658648555195
0.299000000000000099,3.941707094919581600
0.300000000000000100,3.630314399764544842
0.301000000000000101,3.326144967274198727
0.302000000000000102,3.028954444972128179
0.303000000000000103,2.738505556444368771
0.304000000000000103,2.454568824757010326
0.305000000000000104,2.176923197850542557
0.306000000000000105,1.905356577908176474
0.307000000000000106,1.639666257397077942
0.308000000000000107,1.379659265082008535
0.309000000000000108,1.125152625816531859
0.310000000000000109,0.875973538332675217
0.311000000000000110,0.631959475583881769
0.312000000000000111,0.392958212451627542
0.313000000000000111,0.158827785813297762
0.314000000000000112,-0.070563607909329071
0.315000000000000113,-0.295337772536839238
0.316000000000000114,-0.515606724057454668
0.317000000000000115,-0.731472949527158911
0.318000000000000116,-0.943029707855075450
0.319000000000000117,-1.150361367493415665
0.320000000000000118,-1.353543776190841097
0.321000000000000119,-1.552644658133580879
0.322000000000000119,-1.747724033985170067
0.323000000000000120,-1.938834659539861338
0.324000000000000121,-2.126022478923379477
0.325000000000000122,-2.309327088502880265
0.326000000000000123,-2.488782207904335131
0.327000000000000124,-2.664416154776466428
0.328000000000000125,-2.836252320183690223
0.329000000000000126,-3.004309641753577509
0.330000000000000127,-3.168603071946185512
0.331000000000000127,-3.329144039050362380
0.332000000000000128,-3.485940898745257588
0.333000000000000129,-3.638999374292176014
0.334000000000000130,-3.788322983641128960
0.335000000000000131,-3.933913451948335194
0.336000000000000132,-4.075771108202679294
0.337000000000000133,-4.213895264852801859
0.338000000000000134,-4.348284579509479997
0.339000000000000135,-4.478937397970603307
0.340000000000000135,-4.605852077979404768
0.341000000000000136,-4.729027293278089239
0.342000000000000137,-4.848462317661278220
0.343000000000000138,-4.964157288864600837
0.344000000000000139,-5.076113452245408553
0.345000000000000140,-5.184333384323165816
0.346000000000000141,-5.288821196348751030
0.347000000000000142,-5.389582718163405062
0.348000000000000143,-5.486625662691048788
0.349000000000000143,-5.579959771481120434
0.350000000000000144,-5.669596941784840638
0.351000000000000145,-5.755551335704796934
0.352000000000000146,-5.837839472007820163
0.353000000000000147,-5.916480301233231209
0.354000000000000148,-5.991495264764552076
0.355000000000000149,-6.062908338561844523
0.356000000000000150,-6.130746062275283847
0.357000000000000151,-6.195037554478322050
0.358000000000000151,-6.255814514771399715
0.359000000000000152,-6.313111213515034237
0.360000000000000153,-6.366964469954764283
0.361000000000000154,-6.417413619499574118
0.362000000000000155,-6.464500470911703545
0.363000000000000156,-6.508269254158038919
0.364000000000000157,-6.548766559662809073
0.365000000000000158,-6.586041269688723609
0.366000000000000159,-6.620144482557566157
0.367000000000000159,-6.651129430404452592
0.368000000000000160,-6.679051391140275129
0.369000000000000161,-6.703967595276127511
0.370000000000000162,-6.725937128241445961
0.371000000000000163,-6.745020828804264568
0.372000000000000164,-6.761281184177822645
0.373000000000000165,-6.774782222373046281
0.374000000000000166,-6.785589402331085651
0.375000000000000167,-6.793769502344050082
0.376000000000000167,-6.799390507246712900
0.377000000000000168,-6.802521494835441551
0.378000000000000169,-6.803232521944915234
0.379000000000000170,-6.801594510587351650
0.380000000000000171,-6.797679134533439083
0.381000000000000172,-6.791558706688891611
0.382000000000000173,-6.783306067595921363
0.383000000000000174,-6.772994475364647826
0.384000000000000175,-6.760697497315710791
0.385000000000000175,-6.746488903592298136
0.386000000000000176,-6.730442562977643206
0.387000000000000177,-6.712632341131865132
0.388000000000000178,-6.693132001441684409
0.389000000000000179,-6.672015108655815041
0.390000000000000180,-6.649354935459790283
0.391000000000000181,-6.625224372125247285
0.392000000000000182,-6.599695839350902205
0.393000000000000183,-6.572841204395487580
0.394000000000000183,-6.544731700586774892
0.395000000000000184,-6.515437850275530351
0.396000000000000185,-6.485029391288563261
0.397000000000000186,-6.453575206921459362
0.398000000000000187,-6.421143259498643729
0.399000000000000188,-6.387800527516191096
0.400000000000000189,-6.353612946371439918
0.401000000000000190,-6.318645352672922932
0.402000000000000191,-6.282961432114133160
0.403000000000000191,-6.246623670885408153
0.404000000000000192,-6.209693310589894821
0.405000000000000193,-6.172230306621431239
0.406000000000000194,-6.134293289955306427
0.407000000000000195,-6.095939532296036134
0.408000000000000196,-6.057224914520428882
0.409000000000000197,-6.018203898348777336
0.410000000000000198,-5.978929501172260963
0.411000000000000199,-5.939453273960069168
0.412000000000000199,-5.899825282166252016
0.413000000000000200,-5.860094089552676522
0.414000000000000201,-5.820306744841779789
0.415000000000000202,-5.780508771110146604
0.416000000000000203,-5.740744157832073036
0.417000000000000204,-5.701055355480454168
0.418000000000000205,-5.661483272591111060
0.419000000000000206,-5.622067275195659519
0.420000000000000207,-5.582845188527285174
0.421000000000000207,-5.543853300903733405
0.422000000000000208,-5.505126369691231147
0.423000000000000209,-5.466697629253788548
0.424000000000000210,-5.428598800792384438
0.425000000000000211,-5.390860103979257190
0.426000000000000212,-5.353510270293527995
0.427000000000000213,-5.316576557965130512
0.428000000000000214,-5.280084768435568954
0.429000000000000214,-5.244059264245080065
0.430000000000000215,-5.208522988257468178
0.431000000000000216,-5.173497484135514135
0.432000000000000217,-5.139002917981488672
0.433000000000000218,-5.105058101059262832
0.434000000000000219,-5.071680513516421129
0.435000000000000220,-5.038886329026815325
0.436000000000000221,-5.006690440276061693
0.437000000000000222,-4.975106485214617180
0.438000000000000222,-4.944146874005355130
0.439000000000000223,-4.913822816594747067
0.440000000000000224,-4.884144350838953486
0.441000000000000225,-4.855120371118522016
0.442000000000000226,-4.826758657377766326
0.443000000000000227,-4.799065904526868209
0.444000000000000228,-4.772047752147644317
0.445000000000000229,-4.745708814445610990
0.446000000000000230,-4.720052710393738415
0.447000000000000230,-4.695082094015393004
0.448000000000000231,-4.670798684756283237
0.449000000000000232,-4.647203297897389618
0.450000000000000233,-4.624295874963301856
0.451000000000000234,-4.602075514082284435
0.452000000000000235,-4.580540500256866210
0.453000000000000236,-4.559688335505541978
0.454000000000000237,-4.539515768838626286
0.455000000000000238,-4.520018826033009418
0.456000000000000238,-4.501192839172769133
0.457000000000000239,-4.483032475924501270
0.458000000000000240,-4.465531768518113509
0.459000000000000241,-4.448684142405658903
0.460000000000000242,-4.432482444572772629
0.461000000000000243,-4.416918971478709821
0.462000000000000244,-4.401985496603139758
0.463000000000000245,-4.387673297578940534
0.464000000000000246,-4.373973182892511247
0.465000000000000246,-4.360875518134043283
0.466000000000000247,-4.348370251782133877
0.467000000000000248,-4.336446940508375647
0.468000000000000249,-4.325094773988975128
0.469000000000000250,-4.314302599211877087
0.470000000000000251,-4.304058944269065989
0.471000000000000252,-4.294352041624960314
0.472000000000000253,-4.285169850853256079
0.473000000000000254,-4.276500080835217155
0.474000000000000254,-4.268330211414094855
0.475000000000000255,-4.260647514500917055
0.476000000000000256,-4.253439074628206029
0.477000000000000257,-4.246691808948964031
0.478000000000000258,-4.240392486679262163
0.479000000000000259,-4.234527747983554136
0.480000000000000260,-4.229084122302776194
0.481000000000000261,-4.224048046125892242
0.482000000000000262,-4.219405880206467785
0.483000000000000262,-4.215143926226452287
0.484000000000000263,-4.211248442909933942
0.485000000000000264,-4.207705661590440016
0.486000000000000265,-4.204501801235787539
0.487000000000000266,-4.201623082934986542
0.488000000000000267,-4.199055743852433409
0.489000000000000268,-4.196786050654854883
0.490000000000000269,-4.194800312417021004
0.491000000000000270,-4.193084893012726688
0.492000000000000270,-4.191626222997707707
0.493000000000000271,-4.190410810991768820
0.494000000000000272,-4.189425254567493262
0.495000000000000273,-4.188656250653361113
0.496000000000000274,-4.188090605459263038
0.497000000000000275,-4.187715243932673914
0.498000000000000276,-4.187517218754065240
0.499000000000000277,-4.187483718880082861
0.500000000000000222,-4.187602077643502341
0.501000000000000334,-4.187859780418862421
0.502000000000000224,-4.188244471862967444
0.503000000000000336,-4.188743962739478910
0.504000000000000226,-4.189346236336964679
0.505000000000000338,-4.190039454489790316
0.506000000000000227,-4.190811963211355184
0.507000000000000339,-4.191652297949180372
0.508000000000000229,-4.192549188471370591
0.509000000000000341,-4.193491563394039723
0.510000000000000231,-4.194468554359255918
0.511000000000000343,-4.195469499873018648
0.512000000000000233,-4.196483948812788078
0.513000000000000345,-4.197501663614083611
0.514000000000000234,-4.198512623145566280
0.515000000000000346,-4.199507025281937089
0.516000000000000236,-4.200475289184018024
0.517000000000000348,-4.201408057295215492
0.518000000000000238,-4.202296197063521532
0.519000000000000350,-4.203130802398108656
0.520000000000000240,-4.203903194869425874
0.521000000000000352,-4.204604924661781595
0.522000000000000242,-4.205227771286937255
0.523000000000000353,-4.205763744067580134
0.524000000000000243,-4.206205082398916772
0.525000000000000355,-4.206544255797007636
0.526000000000000245,-4.206773963741872180
0.527000000000000357,-4.206887135323622573
0.528000000000000247,-4.206876928699481155
0.529000000000000359,-4.206736730369582844
0.530000000000000249,-4.206460154279199060
0.531000000000000361,-4.206041040754945115
0.532000000000000250,-4.205473455282311868
0.533000000000000362,-4.204751687131840221
0.534000000000000252,-4.203870247840862717
0.535000000000000364,-4.202823869557974490
0.536000000000000254,-4.201607503256768794
0.537000000000000366,-4.200216316825601481
0.538000000000000256,-4.198645693039845028
0.539000000000000368,-4.196891227422852033
0.540000000000000258,-4.194948726001891615
0.541000000000000369,-4.192814202964983750
0.542000000000000259,-4.190483878224510406
0.543000000000000371,-4.187954174893279813
0.544000000000000261,-4.185221716678610093
0.545000000000000373,-4.182283325199774637
0.546000000000000263,-4.179136017234105438
0.547000000000000375,-4.175777001896745055
0.548000000000000265,-4.172203677759122264
0.549000000000000377,-4.168413629910800999
0.550000000000000266,-4.164404626969451684
0.551000000000000378,-4.160174618043376960
0.552000000000000268,-4.155721729650997176
0.553000000000000380,-4.151044262601489621
0.554000000000000270,-4.146140688840683097
0.555000000000000382,-4.141009648266103405
0.556000000000000272,-4.135649945515087467
0.557000000000000384,-4.130060546729451332
0.558000000000000274,-4.124240576300540084
0.559000000000000385,-4.118189313597759416
0.560000000000000275,-4.111906189684175317
0.561000000000000387,-4.105390784022153738
0.562000000000000277,-4.098642821172155060
0.563000000000000389,-4.091662167487688073
0.564000000000000279,-4.084448827809096016
0.565000000000000391,-4.077002942159007048
0.566000000000000281,-4.069324782441963606
0.567000000000000393,-4.061414749150739745
0.568000000000000282,-4.053273368081738326
0.569000000000000394,-4.044901287061688500
0.570000000000000284,-4.036299272687861261
0.571000000000000396,-4.027468207083862772
0.572000000000000286,-4.018409084672977194
0.573000000000000398,-4.009123008970891355
0.574000000000000288,-3.999611189399678413
0.575000000000000400,-3.989874938124670312
0.576000000000000290,-3.979915666915833761
0.577000000000000401,-3.969734884035201361
0.578000000000000291,-3.959334191151777649
0.579000000000000403,-3.948715280285274964
0.580000000000000293,-3.937879930780000315
0.581000000000000405,-3.926830006310029653
0.582000000000000295,-3.915567451916886377
0.583000000000000407,-3.904094291080718815
0.584000000000000297,-3.892412622825973223
0.585000000000000409,-3.880524618862534858
0.586000000000000298,-3.868432520763157356
0.587000000000000410,-3.856138637177950024
0.588000000000000300,-3.843645341086736611
0.589000000000000412,-3.830955067089853117
0.590000000000000302,-3.818070308738099605
0.591000000000000414,-3.804993615902360737
0.592000000000000304,-3.791727592183408824
0.593000000000000416,-3.778274892362303294
0.594000000000000306,-3.764638219891915494
0.595000000000000417,-3.750820324429786634
0.596000000000000307,-3.736823999412735020
0.597000000000000419,-3.722652079673431924
0.598000000000000309,-3.708307439099213010
0.599000000000000421,-3.693792988333224336
0.600000000000000311,-3.679111672518178722
0.601000000000000423,-3.664266469082677169
0.602000000000000313,-3.649260385570295195
0.603000000000000425,-3.634096457511370115
0.604000000000000314,-3.618777746337579426
0.605000000000000426,-3.603307337339163752
0.606000000000000316,-3.587688337664864946
0.607000000000000428,-3.571923874364353768
0.608000000000000318,-3.556017092473169328
0.609000000000000430,-3.539971153139848781
0.610000000000000320,-3.523789231795271260
0.611000000000000432,-3.507474516363822570
0.612000000000000322,-3.491030205516338469
0.613000000000000433,-3.474459506964424627
0.614000000000000323,-3.457765635796030690
0.615000000000000435,-3.440951812851879232
0.616000000000000325,-3.424021263142521754
0.617000000000000437,-3.406977214305654478
0.618000000000000327,-3.389822895103430600
0.619000000000000439,-3.372561533959263613
0.620000000000000329,-3.355196357533960505
0.621000000000000441,-3.337730589340627496
0.622000000000000330,-3.320167448398046783
0.623000000000000442,-3.302510147922078865
0.624000000000000332,-3.284761894054699205
0.625000000000000444,-3.266925884630204280
0.626000000000000334,-3.249005307978193535
0.627000000000000446,-3.231003341762820558
0.628000000000000336,-3.212923151857918214
0.629000000000000448,-3.194767891257482173
0.630000000000000338,-3.176540699021085601
0.631000000000000449,-3.158244699253691667
0.632000000000000339,-3.139883000119447320
0.633000000000000451,-3.121458692888893438
0.634000000000000341,-3.102974851019184577
0.635000000000000453,-3.084434529266731229
0.636000000000000343,-3.065840762831835598
0.637000000000000455,-3.047196566534756013
0.638000000000000345,-3.028504934022776318
0.639000000000000457,-3.009768837007633646
0.640000000000000346,-2.990991224532986159
0.641000000000000458,-2.972175022271186684
0.642000000000000348,-2.953323131849076244
0.643000000000000460,-2.934438430202074066
0.644000000000000350,-2.915523768956236772
0.645000000000000462,-2.896581973837610402
0.646000000000000352,-2.877615844108514676
0.647000000000000464,-2.858628152030092018
0.648000000000000353,-2.839621642350812714
0.649000000000000465,-2.820599031820165248
0.650000000000000355,-2.801563008727327109
0.651000000000000467,-2.782516232464018913
0.652000000000000357,-2.763461333111312257
0.653000000000000469,-2.744400911049635461
0.654000000000000359,-2.725337536591734722
0.655000000000000471,-2.706273749637869486
0.656000000000000361,-2.687212059352950710
0.657000000000000473,-2.668154943864954554
0.658000000000000362,-2.649104849984320165
0.659000000000000474,-2.630064192943680546
0.660000000000000364,-2.611035356157594300
0.661000000000000476,-2.592020691001687194
0.662000000000000366,-2.573022516610874000
0.663000000000000478,-2.554043119696058461
