# CNT15-COOH-30_CS-66578-AC
# h[nm],U(h)[kJ/mol]
0.200000000000000011,77.578858115924461458
0.201000000000000012,75.797155548806259162
0.202000000000000013,74.422151926945801392
0.203000000000000014,73.203707319767048034
0.204000000000000015,72.011337504220549022
0.205000000000000016,70.787311718997486309
0.206000000000000016,69.515599362521811599
0.207000000000000017,68.201886351858547641
0.208000000000000018,66.861201203382677249
0.209000000000000019,65.510670229996506464
0.210000000000000020,64.165643640406884174
0.211000000000000021,62.837963366621146122
0.212000000000000022,61.535527679523589484
0.213000000000000023,60.262584014427702073
0.214000000000000024,59.020377921193109216
0.215000000000000024,57.807923821668907749
0.216000000000000025,56.622758195710687801
0.217000000000000026,55.461599813545966242
0.218000000000000027,54.320883526272780273
0.219000000000000028,53.197160447093935431
0.220000000000000029,52.087372889424884193
0.221000000000000030,50.989020650745693786
0.222000000000000031,49.900238641276807527
0.223000000000000032,48.819806226298645413
0.224000000000000032,47.747107216960912979
0.225000000000000033,46.682057052220081061
0.226000000000000034,45.625010926435258796
0.227000000000000035,44.576663793024906113
0.228000000000000036,43.537950531701923751
0.229000000000000037,42.509952223845360209
0.230000000000000038,41.493812489732661675
0.231000000000000039,40.490666211529486418
0.232000000000000040,39.501581679156331006
0.233000000000000040,38.527516219164674283
0.234000000000000041,37.569284658901132445
0.235000000000000042,36.627539496719677459
0.236000000000000043,35.702761352229018144
0.237000000000000044,34.795258120168959692
0.238000000000000045,33.905171213405147057
0.239000000000000046,33.032487325343453222
0.240000000000000047,32.177054245130065624
0.241000000000000048,31.338599400131450068
0.242000000000000048,30.516749963242745025
0.243000000000000049,29.711053534998978165
0.244000000000000050,28.920998582792872611
0.245000000000000051,28.146033984846219766
0.246000000000000052,27.385587180202900726
0.247000000000000053,26.639080564880892155
0.248000000000000054,25.905945896783443061
0.249000000000000055,25.185636577413024639
0.250000000000000056,24.477637767032405236
0.251000000000000056,23.781474362415117696
0.252000000000000057,23.096716923853275460
0.253000000000000058,22.422985682018470754
0.254000000000000059,21.759952787105557803
0.255000000000000060,21.107342983984178630
0.256000000000000061,20.464932909370066483
0.257000000000000062,19.832549211776875353
0.258000000000000063,19.210065693590337332
0.259000000000000064,18.597399668273297380
0.260000000000000064,17.994507715588163421
0.261000000000000065,17.401381004805919872
0.262000000000000066,16.818040341016587291
0.263000000000000067,16.244531073603678095
0.264000000000000068,15.680917989307124216
0.265000000000000069,15.127280295582641756
0.266000000000000070,14.583706783579994948
0.267000000000000071,14.050291244322242079
0.268000000000000071,13.527128196818386741
0.269000000000000072,13.014308973052687080
0.270000000000000073,12.511918192182360343
0.271000000000000074,12.020030644909429185
0.272000000000000075,11.538708598896365132
0.273000000000000076,11.067999527266646709
0.274000000000000077,10.607934254635610571
0.275000000000000078,10.158525508703906581
0.276000000000000079,9.719766860148569165
0.277000000000000079,9.291632029285832317
0.278000000000000080,8.874074534674253556
0.279000000000000081,8.467027656384180645
0.280000000000000082,8.070404684993766509
0.281000000000000083,7.684099426391544974
0.282000000000000084,7.307986932085695386
0.283000000000000085,6.941924424857217168
0.284000000000000086,6.585752390169076875
0.285000000000000087,6.239295804684936719
0.286000000000000087,5.902365474488937558
0.287000000000000088,5.574759457072714142
0.288000000000000089,5.256264542810518137
0.289000000000000090,4.946657773427715732
0.290000000000000091,4.645707976839375419
0.291000000000000092,4.353177299652804422
0.292000000000000093,4.068822720560213213
0.293000000000000094,3.792397529764031994
0.294000000000000095,3.523652761455297711
0.295000000000000095,3.262338568183804632
0.296000000000000096,3.008205527702591198
0.297000000000000097,2.761005874524533610
0.298000000000000098,2.520494649987270019
0.299000000000000099,2.286430766075858934
0.300000000000000100,2.058577979597635110
0.301000000000000101,1.836705774536487201
0.302000000000000102,1.620590151535402867
0.303000000000000103,1.410014324465252544
0.304000000000000103,1.204769324939411801
0.305000000000000104,1.004654516428083344
0.306000000000000105,0.809478020319511105
0.307000000000000106,0.619057056871317735
0.308000000000000107,0.433218204499111970
0.309000000000000108,0.251797581267598491
0.310000000000000109,0.074640952786505871
0.311000000000000110,-0.098396229022745807
0.312000000000000111,-0.267448851629869644
0.313000000000000111,-0.432642227275301994
0.314000000000000112,-0.594092233158585059
0.315000000000000113,-0.751905501542387111
0.316000000000000114,-0.906179654899409770
0.317000000000000115,-1.057003581289455152
0.318000000000000116,-1.204457745249127187
0.319000000000000117,-1.348614529601694922
0.320000000000000118,-1.489538603745397261
0.321000000000000119,-1.627287314150898112
0.322000000000000119,-1.761911092988275529
0.323000000000000120,-1.893453881007672646
0.324000000000000121,-2.021953561012808542
0.325000000000000122,-2.147442398488572213
0.326000000000000123,-2.269947486171642215
0.327000000000000124,-2.389491189583348607
0.328000000000000125,-2.506091590774869537
0.329000000000000126,-2.619762927764161642
0.330000000000000127,-2.730516027370675225
0.331000000000000127,-2.838358729375786371
0.332000000000000128,-2.943296300153191769
0.333000000000000129,-3.045331834123144343
0.334000000000000130,-3.144466641586077138
0.335000000000000131,-3.240700621685140170
0.336000000000000132,-3.334032619431242406
0.337000000000000133,-3.424460765899987713
0.338000000000000134,-3.511982800875308897
0.339000000000000135,-3.596596377370226971
0.340000000000000135,-3.678299347601323266
0.341000000000000136,-3.757090030128965363
0.342000000000000137,-3.832967458001489636
0.343000000000000138,-3.905931607857366483
0.344000000000000139,-3.975983610046182726
0.345000000000000140,-4.043125939926082602
0.346000000000000141,-4.107362590583419681
0.347000000000000142,-4.168699227299516252
0.348000000000000143,-4.227143324160228310
0.349000000000000143,-4.282704283266484779
0.350000000000000144,-4.335393537059047731
0.351000000000000145,-4.385224634318081627
0.352000000000000146,-4.432213310438979370
0.353000000000000147,-4.476377542619728089
0.354000000000000148,-4.517737590623275068
0.355000000000000149,-4.556316023800388137
0.356000000000000150,-4.592137735075493943
0.357000000000000151,-4.625229942609861311
0.358000000000000151,-4.655622179863861732
0.359000000000000152,-4.683346274783197316
0.360000000000000153,-4.708436318833438605
0.361000000000000154,-4.730928626602782572
0.362000000000000155,-4.750861686685949437
0.363000000000000156,-4.768276104551757655
0.364000000000000157,-4.783214538084196832
0.365000000000000158,-4.795721626472167820
0.366000000000000159,-4.805843913105681153
0.367000000000000159,-4.813629763118088434
0.368000000000000160,-4.819129276193562461
0.369000000000000161,-4.822394195237704295
0.370000000000000162,-4.823477811486843514
0.371000000000000163,-4.822434866608303672
0.372000000000000164,-4.819321452319913490
0.373000000000000165,-4.814194908032859210
0.374000000000000166,-4.807113716997123198
0.375000000000000167,-4.798137401403761437
0.376000000000000167,-4.787326416873613155
0.377000000000000168,-4.774742046736806245
0.378000000000000169,-4.760446296482881756
0.379000000000000170,-4.744501788736898540
0.380000000000000171,-4.726971659092667366
0.381000000000000172,-4.707919453110712027
0.382000000000000173,-4.687409024765223364
0.383000000000000174,-4.665504436601864313
0.384000000000000175,-4.642269861846041401
0.385000000000000175,-4.617769488680020018
0.386000000000000176,-4.592067426886665693
0.387000000000000177,-4.565227617037375119
0.388000000000000178,-4.537313742382940163
0.389000000000000179,-4.508389143587223202
0.390000000000000180,-4.478516736426252365
0.391000000000000181,-4.447758932558153688
0.392000000000000182,-4.416177563453466348
0.393000000000000183,-4.383833807559936346
0.394000000000000183,-4.350788120761502675
0.395000000000000184,-4.317100170177420537
0.396000000000000185,-4.282828771334463269
0.397000000000000186,-4.248031828733077830
0.398000000000000187,-4.212766279816904991
0.399000000000000188,-4.177088042344307084
0.400000000000000189,-4.141051965150671421
0.401000000000000190,-4.104711782280985766
0.402000000000000191,-4.068120070463541182
0.403000000000000191,-4.031328209887705682
0.404000000000000192,-3.994386348241504070
0.405000000000000193,-3.957343367957910196
0.406000000000000194,-3.920246856612902064
0.407000000000000195,-3.883143080412627235
0.408000000000000196,-3.846076960702165870
0.409000000000000197,-3.809092053423982271
0.410000000000000198,-3.772230531450163848
0.411000000000000199,-3.735533169709062129
0.412000000000000199,-3.699039333024097598
0.413000000000000200,-3.662786966579740344
0.414000000000000201,-3.626812588927712078
0.415000000000000202,-3.591151287444419360
0.416000000000000203,-3.555836716149555876
0.417000000000000204,-3.520901095794415347
0.418000000000000205,-3.486375216127919341
0.419000000000000206,-3.452288440247872181
0.420000000000000207,-3.418668710944627431
0.421000000000000207,-3.385542558944814484
0.422000000000000208,-3.352935112962594388
0.423000000000000209,-3.320870111466974528
0.424000000000000210,-3.289369916074161182
0.425000000000000211,-3.258455526474938413
0.426000000000000212,-3.228146596808360691
0.427000000000000213,-3.198461453394057408
0.428000000000000214,-3.169417113737183378
0.429000000000000214,-3.141029306721347503
0.430000000000000215,-3.113312493906725820
0.431000000000000216,-3.086279891852273582
0.432000000000000217,-3.059943495382813516
0.433000000000000218,-3.034314101723762924
0.434000000000000219,-3.009401335428323332
0.435000000000000220,-2.985213674023995623
0.436000000000000221,-2.961758474307433886
0.437000000000000222,-2.939041999218862777
0.438000000000000222,-2.917069445229452107
0.439000000000000223,-2.895844970177368971
0.440000000000000224,-2.875371721490341592
0.441000000000000225,-2.855651864734953804
0.442000000000000226,-2.836686612435195709
0.443000000000000227,-2.818476253104814866
0.444000000000000228,-2.801020180440680019
0.445000000000000229,-2.784316922626202562
0.446000000000000230,-2.768364171696362064
0.447000000000000230,-2.753158812918012455
0.448000000000000231,-2.738696954141302875
0.449000000000000232,-2.724973955080204124
0.450000000000000233,-2.711984456482318784
0.451000000000000234,-2.699722409150141722
0.452000000000000235,-2.688181102778066212
0.453000000000000236,-2.677353194571340023
0.454000000000000237,-2.667230737615311043
0.455000000000000238,-2.657805208964991728
0.456000000000000238,-2.649067537427023389
0.457000000000000239,-2.641008131007883897
0.458000000000000240,-2.633616904003946324
0.459000000000000241,-2.626883303710710216
0.460000000000000242,-2.620796336730298659
0.461000000000000243,-2.615344594857767824
0.462000000000000244,-2.610516280528586641
0.463000000000000245,-2.606299231810824679
0.464000000000000246,-2.602680946927514061
0.465000000000000246,-2.599648608295599850
0.466000000000000247,-2.597189106069611064
0.467000000000000248,-2.595289061179300472
0.468000000000000249,-2.593934847851870451
0.469000000000000250,-2.593112615610576377
0.470000000000000251,-2.592808310742644284
0.471000000000000252,-2.593007697230572894
0.472000000000000253,-2.593696377142065579
0.473000000000000254,-2.594859810474582584
0.474000000000000254,-2.596483334451808567
0.475000000000000255,-2.598552182269997068
0.476000000000000256,-2.601051501293191404
0.477000000000000257,-2.603966370697068378
0.478000000000000258,-2.607281818562008802
0.479000000000000259,-2.610982838416686214
0.480000000000000260,-2.615054405234245927
0.481000000000000261,-2.619481490883760255
0.482000000000000262,-2.624249079040296806
0.483000000000000262,-2.629342179557565995
0.484000000000000263,-2.634745842307565145
0.485000000000000264,-2.640445170492314197
0.486000000000000265,-2.646425333433136018
0.487000000000000266,-2.652671578843408984
0.488000000000000267,-2.659169244591205405
0.489000000000000268,-2.665903769958569480
0.490000000000000269,-2.672860706404510456
0.491000000000000270,-2.680025727839233429
0.492000000000000270,-2.687384640417270099
0.493000000000000271,-2.694923391857626971
0.494000000000000272,-2.702628080299149360
0.495000000000000273,-2.710484962699665434
0.496000000000000274,-2.718480462787561169
0.497000000000000275,-2.726601178574679984
0.498000000000000276,-2.734833889439628685
0.499000000000000277,-2.743165562790569112
0.500000000000000222,-2.751583360316873339
0.501000000000000334,-2.760074643838967390
0.502000000000000224,-2.768626980765837242
0.503000000000000336,-2.777228149169738813
0.504000000000000226,-2.785866142487646080
0.505000000000000338,-2.794529173859067406
0.506000000000000227,-2.803205680109796649
0.507000000000000339,-2.811884325391274864
0.508000000000000229,-2.820554004485068322
0.509000000000000341,-2.829203845782132021
0.510000000000000231,-2.837823213946324419
0.511000000000000343,-2.846401712271711570
0.512000000000000233,-2.854929184743024262
0.513000000000000345,-2.863395717808708607
0.514000000000000234,-2.871791641875817369
0.515000000000000346,-2.880107532535919113
0.516000000000000236,-2.888334211531162321
0.517000000000000348,-2.896462747469515264
0.518000000000000238,-2.904484456298023431
0.519000000000000350,-2.912390901542948995
0.520000000000000240,-2.920173894325350794
0.521000000000000352,-2.927825493160794768
0.522000000000000242,-2.935338003551422048
0.523000000000000353,-2.942703977378866131
0.524000000000000243,-2.949916212105927915
0.525000000000000355,-2.956967749795240685
0.526000000000000245,-2.963851875952578929
0.527000000000000357,-2.970562118202672686
0.528000000000000247,-2.977092244804984578
0.529000000000000359,-2.983436263016912893
0.530000000000000249,-2.989588417311661139
0.531000000000000361,-2.995543187457863521
0.532000000000000250,-3.001295286467919876
0.533000000000000362,-3.006839658421854189
0.534000000000000252,-3.012171476173224782
0.535000000000000364,-3.017286138943741314
0.536000000000000254,-3.022179269812697022
0.537000000000000366,-3.026846713107518294
0.538000000000000256,-3.031284531701377016
0.539000000000000368,-3.035489004223696163
0.540000000000000258,-3.039456622189267154
0.541000000000000369,-3.043184087051482134
0.542000000000000259,-3.046668307185056879
0.543000000000000371,-3.049906394803480136
0.544000000000000261,-3.052895662816246247
0.545000000000000373,-3.055633621630797769
0.546000000000000263,-3.058117975903925423
0.547000000000000375,-3.060346621247263421
0.548000000000000265,-3.062317640891369042
0.549000000000000377,-3.064029302312663017
0.550000000000000266,-3.065480053827481122
0.551000000000000378,-3.066668521157242200
0.552000000000000268,-3.067593503968639723
0.553000000000000380,-3.068253972392665396
0.554000000000000270,-3.068649063526066811
0.555000000000000382,-3.068778077918743019
0.556000000000000272,-3.068640476050508603
0.557000000000000384,-3.068235874800368634
0.558000000000000274,-3.067564043911578331
0.559000000000000385,-3.066624902455326485
0.560000000000000275,-3.065418515296060242
0.561000000000000387,-3.063945089561136648
0.562000000000000277,-3.062204971117455266
0.563000000000000389,-3.060198641057662705
0.564000000000000279,-3.057926712198280050
0.565000000000000391,-3.055389925592133071
0.566000000000000281,-3.052589147057252372
0.567000000000000393,-3.049525363724383986
0.568000000000000282,-3.046199680605112814
0.569000000000000394,-3.042613317182494281
0.570000000000000284,-3.038767604026022529
0.571000000000000396,-3.034663979432666636
0.572000000000000286,-3.030303986095611357
0.573000000000000398,-3.025689267802186500
0.574000000000000288,-3.020821566162538385
0.575000000000000400,-3.015702717370354780
0.576000000000000290,-3.010334648996937812
0.577000000000000401,-3.004719376819882548
0.578000000000000291,-2.998859001687439907
0.579000000000000403,-2.992755706419691020
0.580000000000000293,-2.986411752747478943
0.581000000000000405,-2.979829478290024536
0.582000000000000295,-2.973011293572125346
0.583000000000000407,-2.965959679081669353
0.584000000000000297,-2.958677182368209202
0.585000000000000409,-2.951166415183296365
0.586000000000000298,-2.943430050663123243
0.587000000000000410,-2.935470820554066496
0.588000000000000300,-2.927291512481605018
0.589000000000000412,-2.918894967263040208
0.590000000000000302,-2.910284076264439967
0.591000000000000414,-2.901461778802117308
0.592000000000000304,-2.892431059588956632
0.593000000000000416,-2.883194946225775546
0.594000000000000306,-2.873756506738026406
0.595000000000000417,-2.864118847157882453
0.596000000000000307,-2.854285109151907029
0.597000000000000419,-2.844258467694329440
0.598000000000000309,-2.834042128786027792
0.599000000000000421,-2.823639327219127360
0.600000000000000311,-2.813053324387307264
0.601000000000000423,-2.802287406141628523
0.602000000000000313,-2.791344880691883024
0.603000000000000425,-2.780229076553264900
0.604000000000000314,-2.768943340538294162
0.605000000000000426,-2.757491035793686152
0.606000000000000316,-2.745875539882103755
0.607000000000000428,-2.734100242908415357
0.608000000000000318,-2.722168545690347496
0.609000000000000430,-2.710083857973091259
0.610000000000000320,-2.697849596687723395
0.611000000000000432,-2.685469184252966102
0.612000000000000322,-2.672946046920087859
0.613000000000000433,-2.660283613160462135
0.614000000000000323,-2.647485312095501975
0.615000000000000435,-2.634554571968515724
0.616000000000000325,-2.621494818658109516
0.617000000000000437,-2.608309474232695990
0.618000000000000327,-2.595001955545711780
0.619000000000000439,-2.581575672871012195
0.620000000000000329,-2.568034028578105143
0.621000000000000441,-2.554380415846638996
0.622000000000000330,-2.540618217419751357
0.623000000000000442,-2.526750804395726302
0.624000000000000332,-2.512781535057519555
0.625000000000000444,-2.498713753739587595
0.626000000000000334,-2.484550789731586384
0.627000000000000446,-2.470295956218325539
0.628000000000000336,-2.455952549255547623
0.629000000000000448,-2.441523846780936147
0.630000000000000338,-2.427013107659877100
0.631000000000000449,-2.412423570765365621
0.632000000000000339,-2.397758454091602154
0.633000000000000451,-2.383020953900658156
0.634000000000000341,-2.368214243901729077
0.635000000000000453,-2.353341474462379956
0.636000000000000343,-2.338405771851276516
0.637000000000000455,-2.323410237511804866
0.638000000000000345,-2.308357947366107332
0.639000000000000457,-2.293251951148871370
0.640000000000000346,-2.278095271770460784
0.641000000000000458,-2.262890904708704909
0.642000000000000348,-2.247641817428928768
0.643000000000000460,-2.232350948831548720
0.644000000000000350,-2.217021208726826398
0.645000000000000462,-2.201655477336099231
0.646000000000000352,-2.186256604819092786
0.647000000000000464,-2.170827410826626114
0.648000000000000353,-2.155370684078362409
0.649000000000000465,-2.139889181964843345
0.650000000000000355,-2.124385630173542872
0.651000000000000467,-2.108862722338156193
0.652000000000000357,-2.093323119710857938
0.653000000000000469,-2.077769450856766120
0.654000000000000359,-2.062204311370342324
0.655000000000000471,-2.046630263613017142
0.656000000000000361,-2.031049836471701120
0.657000000000000473,-2.015465525137536851
0.658000000000000362,-1.999879790904569132
0.659000000000000474,-1.984295060987676607
0.660000000000000364,-1.968713728359430704
0.661000000000000476,-1.953138151605279926
0.662000000000000366,-1.937570654796711311
0.663000000000000478,-1.922013527381811526
