# CNT15-COOH-30_CS-62242-AC
# h[nm],U(h)[kJ/mol]
0.149999999999999994,130.434618699497804073
0.150999999999999995,128.583412955863622074
0.151999999999999996,126.909233353813945655
0.152999999999999997,125.235749676065509561
0.153999999999999998,123.524061198937559425
0.154999999999999999,121.788033023011919909
0.156000000000000000,120.053456365666903594
0.157000000000000001,118.341183746158236545
0.158000000000000002,116.662490148772434395
0.159000000000000002,115.019966336187138722
0.160000000000000003,113.410333334956959561
0.161000000000000004,111.827391471277564960
0.162000000000000005,110.264353282326084127
0.163000000000000006,108.715363074344168126
0.164000000000000007,107.176273031629392563
0.165000000000000008,105.644850167775075533
0.166000000000000009,104.120606102930381098
0.167000000000000010,102.604418042246066989
0.168000000000000010,101.098070375497925966
0.169000000000000011,99.603805915293378348
0.170000000000000012,98.123940581593302568
0.171000000000000013,96.660567770074464988
0.172000000000000014,95.215358882122870909
0.173000000000000015,93.789453608236527771
0.174000000000000016,92.383426184043571538
0.175000000000000017,90.997310573658211297
0.176000000000000018,89.630667118263176008
0.177000000000000018,88.282674580859492153
0.178000000000000019,86.952233920188675143
0.179000000000000020,85.638072955037699785
0.180000000000000021,84.338843936101028476
0.181000000000000022,83.053208674879172690
0.182000000000000023,81.779908147637087268
0.183000000000000024,80.517815337345979287
0.184000000000000025,79.265971492630242778
0.185000000000000026,78.023606999604311341
0.186000000000000026,76.790148729413957085
0.187000000000000027,75.565216099518337955
0.188000000000000028,74.348608230005396535
0.189000000000000029,73.140284544029185554
0.190000000000000030,71.940341004253582469
0.191000000000000031,70.748983938044304409
0.192000000000000032,69.566503118359037217
0.193000000000000033,68.393245462619063346
0.194000000000000034,67.229590409248530136
0.195000000000000034,66.075927746008588315
0.196000000000000035,64.932638405683576366
0.197000000000000036,63.800078518969414176
0.198000000000000037,62.678566824234962951
0.199000000000000038,61.568375379421205196
0.200000000000000039,60.469723401209350300
0.201000000000000040,59.382773968025162503
0.202000000000000041,58.307633263033473270
0.203000000000000042,57.244351997202599591
0.204000000000000042,56.192928636878910709
0.205000000000000043,55.153314061294182125
0.206000000000000044,54.125417289452208536
0.207000000000000045,53.109111939658475876
0.208000000000000046,52.104243115685278553
0.209000000000000047,51.110634448726997903
0.210000000000000048,50.128095061808210176
0.211000000000000049,49.156426261457340843
0.212000000000000050,48.195427798888857751
0.213000000000000050,47.244903578616479933
0.214000000000000051,46.304666725578712771
0.215000000000000052,45.374543951986353818
0.216000000000000053,44.454379191876817856
0.217000000000000054,43.544036494637296641
0.218000000000000055,42.643402188525172392
0.219000000000000056,41.752386341560800531
0.220000000000000057,40.870923560266234631
0.221000000000000058,39.998973176809215602
0.222000000000000058,39.136518882440483935
0.223000000000000059,38.283567869989546750
0.224000000000000060,37.440149550894226138
0.225000000000000061,36.606313913092989765
0.226000000000000062,35.782129585387586701
0.227000000000000063,34.967681671868135140
0.228000000000000064,34.163069416936984624
0.229000000000000065,33.368403757605292981
0.230000000000000066,32.583804815282469747
0.231000000000000066,31.809399374415569639
0.232000000000000067,31.045318390232370831
0.233000000000000068,30.291694562634166488
0.234000000000000069,29.548660008093854401
0.235000000000000070,28.816344056338202506
0.236000000000000071,28.094871193709970214
0.237000000000000072,27.384359170476898271
0.238000000000000073,26.684917285028188161
0.239000000000000073,25.996644853908595252
0.240000000000000074,25.319629873003233200
0.241000000000000075,24.653947871920273371
0.242000000000000076,23.999660960720451186
0.243000000000000077,23.356817065610862016
0.244000000000000078,22.725449348044925557
0.245000000000000079,22.105575799834905837
0.246000000000000080,21.497199005372387148
0.247000000000000081,20.900306060840136979
0.248000000000000081,20.314868639368789616
0.249000000000000082,19.740843190415304775
0.250000000000000111,19.178171261196045094
0.251000000000000112,18.626779927769369749
0.252000000000000113,18.086582323307840880
0.253000000000000114,17.557478251206777742
0.254000000000000115,17.039354870918455021
0.255000000000000115,16.532087444762460393
0.256000000000000116,16.035540134420756431
0.257000000000000117,15.549566836363036160
0.258000000000000118,15.074012046048721913
0.259000000000000119,14.608711741398849426
0.260000000000000120,14.153494276712109468
0.261000000000000121,13.708181278902282330
0.262000000000000122,13.272588538646834522
0.263000000000000123,12.846526889750936817
0.264000000000000123,12.429803070737785120
0.265000000000000124,12.022220563368851032
0.266000000000000125,11.623580403470302969
0.267000000000000126,11.233681960089400675
0.268000000000000127,10.852323679622758235
0.269000000000000128,10.479303792145614693
0.270000000000000129,10.114420977722845763
0.271000000000000130,9.757474990998582953
0.272000000000000131,9.408267242840768319
0.273000000000000131,9.066601338258209353
0.274000000000000132,8.732283570212119983
0.275000000000000133,8.405123369310874892
0.276000000000000134,8.084933709707273763
0.277000000000000135,7.771531471813247549
0.278000000000000136,7.464737762707318147
0.279000000000000137,7.164378195338914956
0.280000000000000138,6.870283127830942860
0.281000000000000139,6.582287864349365414
0.282000000000000139,6.300232819149194086
0.283000000000000140,6.023963645520168164
0.284000000000000141,5.753331331445975749
0.285000000000000142,5.488192263858803877
0.286000000000000143,5.228408263418809376
0.287000000000000144,4.973846591777546067
0.288000000000000145,4.724379933296260603
0.289000000000000146,4.479886353188081038
0.290000000000000147,4.240249234035997183
0.291000000000000147,4.005357192611169737
0.292000000000000148,3.775103978876748645
0.293000000000000149,3.549388359015155370
0.294000000000000150,3.328113984260839153
0.295000000000000151,3.111189247258466573
0.296000000000000152,2.898527127598787168
0.297000000000000153,2.690045028112501235
0.298000000000000154,2.485664603426660513
0.299000000000000155,2.285311582210272974
0.300000000000000155,2.088915584455663499
0.301000000000000156,1.896409935061522223
0.302000000000000157,1.707731474901702073
0.303000000000000158,1.522820370483254360
0.304000000000000159,1.341619923216227361
0.305000000000000160,1.164076379238770498
0.306000000000000161,0.990138740663153660
0.307000000000000162,0.819758579032440204
0.308000000000000163,0.652889851704003044
0.309000000000000163,0.489488721804735682
0.310000000000000164,0.329513382334176541
0.311000000000000165,0.172923884926110605
0.312000000000000166,0.019681973716146484
0.313000000000000167,-0.130249075296918232
0.314000000000000168,-0.276904609064923868
0.315000000000000169,-0.420318746202021365
0.316000000000000170,-0.560524519367370355
0.317000000000000171,-0.697554011139248531
0.318000000000000171,-0.831438483245292126
0.319000000000000172,-0.962208499054928224
0.320000000000000173,-1.089894039277955695
0.321000000000000174,-1.214524610848652486
0.322000000000000175,-1.336129349007233458
0.323000000000000176,-1.454737112619928219
0.324000000000000177,-1.570376572806133630
0.325000000000000178,-1.683076294965193398
0.326000000000000179,-1.792864814317708833
0.327000000000000179,-1.899770705095429779
0.328000000000000180,-2.003822643531410375
0.329000000000000181,-2.105049464817336791
0.330000000000000182,-2.203480214207916177
0.331000000000000183,-2.299144192463924874
0.332000000000000184,-2.392070995834713720
0.333000000000000185,-2.482290550789053363
0.334000000000000186,-2.569833143709494117
0.335000000000000187,-2.654729445770224849
0.336000000000000187,-2.737010533222164366
0.337000000000000188,-2.816707903310860850
0.338000000000000189,-2.893853486054516644
0.339000000000000190,-2.968479652109115463
0.340000000000000191,-3.040619216946823133
0.341000000000000192,-3.110305441572324803
0.342000000000000193,-3.177572029998966485
0.343000000000000194,-3.242453123703611162
0.344000000000000195,-3.304983293274810219
0.345000000000000195,-3.365197527465138450
0.346000000000000196,-3.423131219852874718
0.347000000000000197,-3.478820153313400887
0.348000000000000198,-3.532300482494696858
0.349000000000000199,-3.583608714485304603
0.350000000000000200,-3.632781687856886155
0.351000000000000201,-3.679856550256887182
0.352000000000000202,-3.724870734720121757
0.353000000000000203,-3.767861934861355344
0.354000000000000203,-3.808868079103946425
0.355000000000000204,-3.847927304092590539
0.356000000000000205,-3.885077927431324074
0.357000000000000206,-3.920358419880982659
0.358000000000000207,-3.953807377143013557
0.359000000000000208,-3.985463491350121679
0.360000000000000209,-4.015365522377054575
0.361000000000000210,-4.043552269078166894
0.362000000000000210,-4.070062540551925956
0.363000000000000211,-4.094935127525865859
0.364000000000000212,-4.118208773949322499
0.365000000000000213,-4.139922148874989993
0.366000000000000214,-4.160113818704390454
0.367000000000000215,-4.178822219866477283
0.368000000000000216,-4.196085631993076603
0.369000000000000217,-4.211942151649151533
0.370000000000000218,-4.226429666670970420
0.371000000000000218,-4.239585831159780938
0.372000000000000219,-4.251448041174126224
0.373000000000000220,-4.262053411159012484
0.374000000000000221,-4.271438751145800516
0.375000000000000222,-4.279640544752250975
0.376000000000000223,-4.286694928008460082
0.377000000000000224,-4.292637669030162861
0.378000000000000225,-4.297504148557432124
0.379000000000000226,-4.301329341373266502
0.380000000000000226,-4.304147798613398024
0.381000000000000227,-4.305993630975279096
0.382000000000000228,-4.306900492831672977
0.383000000000000229,-4.306901567251189888
0.384000000000000230,-4.306029551925767862
0.385000000000000231,-4.304316646002685154
0.386000000000000232,-4.301794537816337360
0.387000000000000233,-4.298494393513136558
0.388000000000000234,-4.294446846560759035
0.389000000000000234,-4.289681988131460066
0.390000000000000235,-4.284229358347284133
0.391000000000000236,-4.278117938373735107
0.392000000000000237,-4.271376143346961030
0.393000000000000238,-4.264031816118421858
0.394000000000000239,-4.256112221799720707
0.395000000000000240,-4.247644043089501942
0.396000000000000241,-4.238653376363280323
0.397000000000000242,-4.229165728506306898
0.398000000000000242,-4.219206014469029320
0.399000000000000243,-4.208798555523925344
0.400000000000000244,-4.197967078202127666
0.401000000000000245,-4.186734713887910075
0.402000000000000246,-4.175123999048500067
0.403000000000000247,-4.163156876076796742
0.404000000000000248,-4.150854694724080751
0.405000000000000249,-4.138238214099901668
0.406000000000000250,-4.125327605216092763
0.407000000000000250,-4.112142454052033713
0.408000000000000251,-4.098701765118225815
0.409000000000000252,-4.085023965495372167
0.410000000000000253,-4.071126909326359566
0.411000000000000254,-4.057027882738656110
0.412000000000000255,-4.042743609174923591
0.413000000000000256,-4.028290255109964413
0.414000000000000257,-4.013683436132225779
0.415000000000000258,-3.998938223368754485
0.416000000000000258,-3.984069150232466772
0.417000000000000259,-3.969090219471340220
0.418000000000000260,-3.954014910499290103
0.419000000000000261,-3.938856186989050379
0.420000000000000262,-3.923626504707768081
0.421000000000000263,-3.908337819576563898
0.422000000000000264,-3.893001595935621229
0.423000000000000265,-3.877628814997020612
0.424000000000000266,-3.862229983468007166
0.425000000000000266,-3.846815142327701498
0.426000000000000267,-3.831393875741047506
0.427000000000000268,-3.815975320094083578
0.428000000000000269,-3.800568173135205008
0.429000000000000270,-3.785180703207713826
0.430000000000000271,-3.769820758559220053
0.431000000000000272,-3.754495776714261268
0.432000000000000273,-3.739212793896788956
0.433000000000000274,-3.723978454489840662
0.434000000000000274,-3.708799020520102907
0.435000000000000275,-3.693680381155671544
0.436000000000000276,-3.678628062205768323
0.437000000000000277,-3.663647235611628084
0.438000000000000278,-3.648742728918334510
0.439000000000000279,-3.633919034717823848
0.440000000000000280,-3.619180320053702271
0.441000000000000281,-3.604530435779023545
0.442000000000000282,-3.589972925858716302
0.443000000000000282,-3.575511036608522097
0.444000000000000283,-3.561147725863123892
0.445000000000000284,-3.546885672066208972
0.446000000000000285,-3.532727283275802765
0.447000000000000286,-3.518674706078702918
0.448000000000000287,-3.504729834407927846
0.449000000000000288,-3.490894318257868001
0.450000000000000289,-3.477169572291831656
0.451000000000000290,-3.463556784337318284
0.452000000000000290,-3.450056923764582173
0.453000000000000291,-3.436670749744309639
0.454000000000000292,-3.423398819380787383
0.455000000000000293,-3.410241495717002636
0.456000000000000294,-3.397198955608602855
0.457000000000000295,-3.384271197463893710
0.458000000000000296,-3.371458048847255640
0.459000000000000297,-3.358759173943783871
0.460000000000000298,-3.346174080883088209
0.461000000000000298,-3.333702128920534413
0.462000000000000299,-3.321342535474404833
0.463000000000000300,-3.309094383017674001
0.464000000000000301,-3.296956625823432852
0.465000000000000302,-3.284928096563052513
0.466000000000000303,-3.273007512756483717
0.467000000000000304,-3.261193483074302346
0.468000000000000305,-3.249484513491204041
0.469000000000000306,-3.237879013290911878
0.470000000000000306,-3.226375300922669886
0.471000000000000307,-3.214971609709443179
0.472000000000000308,-3.203666093408430893
0.473000000000000309,-3.192456831624335134
0.474000000000000310,-3.181341835076161750
0.475000000000000311,-3.170319050718352294
0.476000000000000312,-3.159386366717273908
0.477000000000000313,-3.148541617284096095
0.478000000000000314,-3.137782587365218756
0.479000000000000314,-3.127107017191669502
0.480000000000000315,-3.116512606688678577
0.481000000000000316,-3.105997019747096743
0.482000000000000317,-3.095557888358046572
0.483000000000000318,-3.085192816612574607
0.484000000000000319,-3.074899384567947980
0.485000000000000320,-3.064675151982381163
0.486000000000000321,-3.054517661920051363
0.487000000000000322,-3.044424444228288174
0.488000000000000322,-3.034393018888822624
0.489000000000000323,-3.024420899245206407
0.490000000000000324,-3.014505595108324165
0.491000000000000325,-3.004644615742106062
0.492000000000000326,-2.994835472731538939
0.493000000000000327,-2.985075682735129909
0.494000000000000328,-2.975362770123921585
0.495000000000000329,-2.965694269509307368
0.496000000000000330,-2.956067728161750452
0.497000000000000330,-2.946480708322745112
0.498000000000000331,-2.936930789412056431
0.499000000000000332,-2.927415570132665401
0.500000000000000333,-2.917932670475530621
0.501000000000000334,-2.908479733626393227
0.502000000000000335,-2.899054427776946774
0.503000000000000336,-2.889654447842534779
0.504000000000000337,-2.880277517088635442
0.505000000000000338,-2.870921388668329577
0.506000000000000338,-2.861583847072998843
0.507000000000000339,-2.852262709498435633
0.508000000000000340,-2.842955827128506918
0.509000000000000341,-2.833661086338679080
0.510000000000000342,-2.824376409821375500
0.511000000000000343,-2.815099757635479705
0.512000000000000344,-2.805829128181957177
0.513000000000000345,-2.796562559107788282
0.514000000000000346,-2.787298128140299092
0.515000000000000346,-2.778033953853823235
0.516000000000000347,-2.768768196370850809
0.517000000000000348,-2.759499057999630356
0.518000000000000349,-2.750224783810144125
0.519000000000000350,-2.740943662150492344
0.520000000000000351,-2.731654025105522798
0.521000000000000352,-2.722354248899697904
0.522000000000000353,-2.713042754245953869
0.523000000000000353,-2.703718006642449989
0.524000000000000354,-2.694378516619034603
0.525000000000000355,-2.685022839935130357
0.526000000000000356,-2.675649577730808026
0.527000000000000357,-2.666257376632824361
0.528000000000000358,-2.656844928817172935
0.529000000000000359,-2.647410972029947906
0.530000000000000360,-2.637954289567979060
0.531000000000000361,-2.628473710220958104
0.532000000000000361,-2.618968108176522591
0.533000000000000362,-2.609436402889846018
0.534000000000000363,-2.599877558919214238
0.535000000000000364,-2.590290585729043915
0.536000000000000365,-2.580674537461764562
0.537000000000000366,-2.571028512679959466
0.538000000000000367,-2.561351654080080920
0.539000000000000368,-2.551643148179166154
0.540000000000000369,-2.541902224975698399
0.541000000000000369,-2.532128157586048367
0.542000000000000370,-2.522320261857550872
0.543000000000000371,-2.512477895959555951
0.544000000000000372,-2.502600459953556289
0.545000000000000373,-2.492687395343543777
0.546000000000000374,-2.482738184607691689
0.547000000000000375,-2.472752350712455360
0.548000000000000376,-2.462729456610154521
0.549000000000000377,-2.452669104721012516
0.550000000000000377,-2.442570936400695558
0.551000000000000378,-2.432434631394247315
0.552000000000000379,-2.422259907277454438
0.553000000000000380,-2.412046518886438840
0.554000000000000381,-2.401794257736409755
0.555000000000000382,-2.391502951430478863
0.556000000000000383,-2.381172463059223698
0.557000000000000384,-2.370802690591982120
0.558000000000000385,-2.360393566260468035
0.559000000000000385,-2.349945055935610316
0.560000000000000386,-2.339457158498253087
0.561000000000000387,-2.328929905204438100
0.562000000000000388,-2.318363359045942484
0.563000000000000389,-2.307757614106762833
0.564000000000000390,-2.297112794916101652
0.565000000000000391,-2.286429055798542276
0.566000000000000392,-2.275706580221937170
0.567000000000000393,-2.264945580143632675
0.568000000000000393,-2.254146295355501817
0.569000000000000394,-2.243308992828363824
0.570000000000000395,-2.232433966056308172
0.571000000000000396,-2.221521534401299292
0.572000000000000397,-2.210572042438685436
0.573000000000000398,-2.199585859303907487
0.574000000000000399,-2.188563378040931262
0.575000000000000400,-2.177505014952765272
0.576000000000000401,-2.166411208954447165
0.577000000000000401,-2.155282420928954501
0.578000000000000402,-2.144119133086260565
0.579000000000000403,-2.132921848325976644
0.580000000000000404,-2.121691089603914282
0.581000000000000405,-2.110427399302770901
0.582000000000000406,-2.099131338607374442
0.583000000000000407,-2.087803486884628246
0.584000000000000408,-2.076444441068535873
0.585000000000000409,-2.065054815050489712
0.586000000000000409,-2.053635239075060959
0.587000000000000410,-2.042186359141589858
0.588000000000000411,-2.030708836411648566
0.589000000000000412,-2.019203346622758133
0.590000000000000413,-2.007670579508356035
0.591000000000000414,-1.996111238224341333
0.592000000000000415,-1.984526038782302493
0.593000000000000416,-1.972915709489538427
0.594000000000000417,-1.961280990396089496
0.595000000000000417,-1.949622632748921447
0.596000000000000418,-1.937941398453233433
0.597000000000000419,-1.926238059541249381
0.598000000000000420,-1.914513397648341719
0.599000000000000421,-1.902768203496786104
0.600000000000000422,-1.891003276387101639
0.601000000000000423,-1.879219423697100932
0.602000000000000424,-1.867417460388754780
0.603000000000000425,-1.855598208522853509
0.604000000000000425,-1.843762496781579996
0.605000000000000426,-1.831911159999015215
0.606000000000000427,-1.820045038699663165
0.607000000000000428,-1.808164978644877241
0.608000000000000429,-1.796271830387487167
0.609000000000000430,-1.784366448834300956
0.610000000000000431,-1.772449692816840949
0.611000000000000432,-1.760522424670043051
0.612000000000000433,-1.748585509819070349
0.613000000000000433,-1.736639816374230705
