# CNT15-COOH-30_CS-66579-AC
# h[nm],U(h)[kJ/mol]
0.149999999999999994,154.011409213645379168
0.150999999999999995,151.724646882216262611
0.151999999999999996,149.878293563181699710
0.152999999999999997,148.070595381312529071
0.153999999999999998,146.186594849064789514
0.154999999999999999,144.231350069413025494
0.156000000000000000,142.246049971252148225
0.157000000000000001,140.270586724868792317
0.158000000000000002,138.330682076027926541
0.159000000000000002,136.436831544715232667
0.160000000000000003,134.587994255834416890
0.161000000000000004,132.776364392165731942
0.162000000000000005,130.991540038753953468
0.163000000000000006,129.223498867811969149
0.164000000000000007,127.464348645377384628
0.165000000000000008,125.709067389002967730
0.166000000000000009,123.955522598474928486
0.167000000000000010,122.204046048831600046
0.168000000000000010,120.456789849123339309
0.169000000000000011,118.717028467462341723
0.170000000000000012,116.988514333447284343
0.171000000000000013,115.274947585981593079
0.172000000000000014,113.579585165490854592
0.173000000000000015,111.904990039231648780
0.174000000000000016,110.252906135372455765
0.175000000000000017,108.624236481375731955
0.176000000000000018,107.019099123561289844
0.177000000000000018,105.436935954356343359
0.178000000000000019,103.876652238236687253
0.179000000000000020,102.336768387186126006
0.180000000000000021,100.815569666657964376
0.181000000000000022,99.311243530958989822
0.182000000000000023,97.821997899221202033
0.183000000000000024,96.346156736759752448
0.184000000000000025,94.882231748076065969
0.185000000000000026,93.428970829767692408
0.186000000000000026,91.985385227609469894
0.187000000000000027,90.550758167394604925
0.188000000000000028,89.124638167607969308
0.189000000000000029,87.706820376972032705
0.190000000000000030,86.297319188577731097
0.191000000000000031,84.896335132592369632
0.192000000000000032,83.504218698681739852
0.193000000000000033,82.121433333667937404
0.194000000000000034,80.748519435695158109
0.195000000000000034,79.386060750185023949
0.196000000000000035,78.034654184074838668
0.197000000000000036,76.694883705559973919
0.198000000000000037,75.367298693787034836
0.199000000000000038,74.052396849491472608
0.200000000000000039,72.750611573166366952
0.201000000000000040,71.462303559484539051
0.202000000000000041,70.187756241399426926
0.203000000000000042,68.927174639760011132
0.204000000000000042,67.680687129098743071
0.205000000000000043,66.448349612137548093
0.206000000000000044,65.230151599318375588
0.207000000000000045,64.026023710483542573
0.208000000000000046,62.835846149343367983
0.209000000000000047,61.659457743737831947
0.210000000000000048,60.496665192637088637
0.211000000000000049,59.347252211577064429
0.212000000000000050,58.210988319550537540
0.213000000000000050,57.087637060503176656
0.214000000000000051,55.976963500167322252
0.215000000000000052,54.878740883031831288
0.216000000000000053,53.792756374136573072
0.217000000000000054,52.718815845705833567
0.218000000000000055,51.656747699230187720
0.219000000000000056,50.606405739477793304
0.220000000000000057,49.567671138208147852
0.221000000000000058,48.540453542326439162
0.222000000000000058,47.524691394167959402
0.223000000000000059,46.520351540916365707
0.224000000000000060,45.527428216226617508
0.225000000000000061,44.545941480351515906
0.226000000000000062,43.575935205861853206
0.227000000000000063,42.617474694793521905
0.228000000000000064,41.670644010118920164
0.229000000000000065,40.735543100163241093
0.230000000000000066,39.812284789285612874
0.231000000000000066,38.900991702093925539
0.232000000000000067,38.001793181913015474
0.233000000000000068,37.114822257389398885
0.234000000000000069,36.240212704179334935
0.235000000000000070,35.378096241781406661
0.236000000000000071,34.528599898871348728
0.237000000000000072,33.691843574071533851
0.238000000000000073,32.867937813025143612
0.239000000000000073,32.056981817001712898
0.240000000000000074,31.259061693074084332
0.241000000000000075,30.474248951210132219
0.242000000000000076,29.702599249419904481
0.243000000000000077,28.944151384395603088
0.244000000000000078,28.198926521869488226
0.245000000000000079,27.466927658175848137
0.246000000000000080,26.748139302218667979
0.247000000000000081,26.042527365187559951
0.248000000000000081,25.350039243904582520
0.249000000000000082,24.670604082590919859
0.250000000000000111,24.004133197081927165
0.251000000000000112,23.350520645060207414
0.252000000000000113,22.709643925684254384
0.253000000000000114,22.081364792035707012
0.254000000000000115,21.465530160055688924
0.255000000000000115,20.861973098065739407
0.256000000000000116,20.270513881538466450
0.257000000000000117,19.690961098475217028
0.258000000000000118,19.123112791536421184
0.259000000000000119,18.566757623933455079
0.260000000000000120,18.021676057007816496
0.261000000000000121,17.487641528379157307
0.262000000000000122,16.964421620517704525
0.263000000000000123,16.451779210579143609
0.264000000000000123,15.949473593315820708
0.265000000000000124,15.457261569838149029
0.266000000000000125,14.974898495935008214
0.267000000000000126,14.502139284564361077
0.268000000000000127,14.038739357988569978
0.269000000000000128,13.584455545849701608
0.270000000000000129,13.139046926253381997
0.271000000000000130,12.702275607652618206
0.272000000000000131,12.273907449995837382
0.273000000000000131,11.853712724222463137
0.274000000000000132,11.441466709756536346
0.275000000000000133,11.036950230163451891
0.276000000000000134,10.639950127597689544
0.277000000000000135,10.250259677083217724
0.278000000000000136,9.867678942031799849
0.279000000000000137,9.492015072722903568
0.280000000000000138,9.123082549742646208
0.281000000000000139,8.760703374610233851
0.282000000000000139,8.404707210013082630
0.283000000000000140,8.054931472226394717
0.284000000000000141,7.711221378414104599
0.285000000000000142,7.373429951597072041
0.286000000000000143,7.041417986134223206
0.287000000000000144,6.715053976596192520
0.288000000000000145,6.394214012919682943
0.289000000000000146,6.078781644719537525
0.290000000000000147,5.768647717602972236
0.291000000000000147,5.463710184282845717
0.292000000000000148,5.163873893222524991
0.293000000000000149,4.869050357469321355
0.294000000000000150,4.579157506245534748
0.295000000000000151,4.294119421769768685
0.296000000000000152,4.013866063676703178
0.297000000000000153,3.738332983293470413
0.298000000000000154,3.467461029915178017
0.299000000000000155,3.201196051104099105
0.300000000000000155,2.939488588915845746
0.301000000000000156,2.682293573834280576
0.302000000000000157,2.429570018073996085
0.303000000000000158,2.181280709788268712
0.304000000000000159,1.937391909599320616
0.305000000000000160,1.697873050749848955
0.306000000000000161,1.462696444058700918
0.307000000000000162,1.231836988750780515
0.308000000000000163,1.005271890122215073
0.309000000000000163,0.782980384896151516
0.310000000000000164,0.564943475023258701
0.311000000000000165,0.351143670584080358
0.312000000000000166,0.141564742357836865
0.313000000000000167,-0.063808515465491128
0.314000000000000168,-0.264990512036012149
0.315000000000000169,-0.461995075742275607
0.316000000000000170,-0.654835659015241545
0.317000000000000171,-0.843525531864537492
0.318000000000000171,-1.028077964037781289
0.319000000000000172,-1.208506395753286444
0.320000000000000173,-1.384824597010925862
0.321000000000000174,-1.557046815536526463
0.322000000000000175,-1.725187913461257994
0.323000000000000176,-1.889263492879188933
0.324000000000000177,-2.049290010464269951
0.325000000000000178,-2.205284881361705196
0.326000000000000179,-2.357266572599481691
0.327000000000000179,-2.505254686292061717
0.328000000000000180,-2.649270032932100616
0.329000000000000181,-2.789334695086266525
0.330000000000000182,-2.925472081828253135
0.331000000000000183,-3.057706974257058619
0.332000000000000184,-3.186065562459905021
0.333000000000000185,-3.310575474288870446
0.334000000000000186,-3.431265796327248374
0.335000000000000187,-3.548167087426519206
0.336000000000000187,-3.661311385197990376
0.337000000000000188,-3.770732205843744023
0.338000000000000189,-3.876464537711677316
0.339000000000000190,-3.978544828956795065
0.340000000000000191,-4.077010969687551167
0.341000000000000192,-4.171902268971445338
0.342000000000000193,-4.263259427068037510
0.343000000000000194,-4.351124503250847653
0.344000000000000195,-4.435540879571347794
0.345000000000000195,-4.516553220910497934
0.346000000000000196,-4.594207431653096307
0.347000000000000197,-4.668550609311010291
0.348000000000000198,-4.739630995410714753
0.349000000000000199,-4.807497923949727081
0.350000000000000200,-4.872201767715649723
0.351000000000000201,-4.933793882749824000
0.352000000000000202,-4.992326551226229370
0.353000000000000203,-5.047852923004405135
0.354000000000000203,-5.100426956103505383
0.355000000000000204,-5.150103356332401461
0.356000000000000205,-5.196937516299348303
0.357000000000000206,-5.240985454012801803
0.358000000000000207,-5.282303751273023984
0.359000000000000208,-5.320949492043082429
0.360000000000000209,-5.356980200976201978
0.361000000000000210,-5.390453782265221427
0.362000000000000210,-5.421428458969218767
0.363000000000000211,-5.449962712961442968
0.364000000000000212,-5.476115225632488759
0.365000000000000213,-5.499944819472332824
0.366000000000000214,-5.521510400645152750
0.367000000000000215,-5.540870902661215958
0.368000000000000216,-5.558085231241093105
0.369000000000000217,-5.573212210458322602
0.370000000000000218,-5.586310530238374206
0.371000000000000218,-5.597438695283281085
0.372000000000000219,-5.606654975483691850
0.373000000000000220,-5.614017357872421066
0.374000000000000221,-5.619583500166397627
0.375000000000000222,-5.623410685936954145
0.376000000000000223,-5.625555781442247216
0.377000000000000224,-5.626075194148906000
0.378000000000000225,-5.625024832964497179
0.379000000000000226,-5.622460070196686921
0.380000000000000226,-5.618435705249929413
0.381000000000000227,-5.613005930065226856
0.382000000000000228,-5.606224296304395338
0.383000000000000229,-5.598143684275457055
0.384000000000000230,-5.588816273592039252
0.385000000000000231,-5.578293515555852622
0.386000000000000232,-5.566626107247640398
0.387000000000000233,-5.553863967309075278
0.388000000000000234,-5.540056213394715989
0.389000000000000234,-5.525251141270747013
0.390000000000000235,-5.509496205534430757
0.391000000000000236,-5.492838001926135583
0.392000000000000237,-5.475322251203476931
0.393000000000000238,-5.456993784545564274
0.394000000000000239,-5.437896530453296684
0.395000000000000240,-5.418073503110490741
0.396000000000000241,-5.397566792169124383
0.397000000000000242,-5.376417553920826542
0.398000000000000242,-5.354666003815966135
0.399000000000000243,-5.332351410290546490
0.400000000000000244,-5.309512089860694672
0.401000000000000245,-5.286185403443944608
0.402000000000000246,-5.262407753865845805
0.403000000000000247,-5.238214584510517469
0.404000000000000248,-5.213640379073265052
0.405000000000000249,-5.188718662373444701
0.406000000000000250,-5.163482002185722841
0.407000000000000250,-5.137962012048028271
0.408000000000000251,-5.112189355004653102
0.409000000000000252,-5.086193748243244883
0.410000000000000253,-5.060003968584802614
0.411000000000000254,-5.033647858786169493
0.412000000000000255,-5.007152334614991318
0.413000000000000256,-4.980543392657759583
0.414000000000000257,-4.953846118821887856
0.415000000000000258,-4.927084697493788745
0.416000000000000258,-4.900282421315134584
0.417000000000000259,-4.873461701540695579
0.418000000000000260,-4.846644078941448441
0.419000000000000261,-4.819850235217771228
0.420000000000000262,-4.793100004888129817
0.421000000000000263,-4.766412387619649138
0.422000000000000264,-4.739805560967663922
0.423000000000000265,-4.713296893492296746
0.424000000000000266,-4.686902958221120130
0.425000000000000266,-4.660639546427448821
0.426000000000000267,-4.634521681695264128
0.427000000000000268,-4.608563634242161200
0.428000000000000269,-4.582778935472971327
0.429000000000000270,-4.557180392737476105
0.430000000000000271,-4.531780104266482034
0.431000000000000272,-4.506589474261656569
0.432000000000000273,-4.481619228115112819
0.433000000000000274,-4.456879427735935373
0.434000000000000274,-4.432379486961492532
0.435000000000000275,-4.408128187032410494
0.436000000000000276,-4.384133692110885328
0.437000000000000277,-4.360403564822862954
0.438000000000000278,-4.336944781805508242
0.439000000000000279,-4.313763749242211176
0.440000000000000280,-4.290866318368117938
0.441000000000000281,-4.268257800930067347
0.442000000000000282,-4.245942984585663105
0.443000000000000282,-4.223926148226710531
0.444000000000000283,-4.202211077213398482
0.445000000000000284,-4.180801078505995250
0.446000000000000285,-4.159698995681703870
0.447000000000000286,-4.138907223825154524
0.448000000000000287,-4.118427724281329638
0.449000000000000288,-4.098262039260861300
0.450000000000000289,-4.078411306287829774
0.451000000000000290,-4.058876272481187542
0.452000000000000290,-4.039657308661347201
0.453000000000000291,-4.020754423274068401
0.454000000000000292,-4.002167276124504625
0.455000000000000293,-3.983895191914627709
0.456000000000000294,-3.965937173577935848
0.457000000000000295,-3.948291915405852670
0.458000000000000296,-3.930957815960591351
0.459000000000000297,-3.913932990769978026
0.460000000000000298,-3.897215284799965040
0.461000000000000298,-3.880802284701188487
0.462000000000000299,-3.864691330826231841
0.463000000000000300,-3.848879529014737066
0.464000000000000301,-3.833363762143935816
0.465000000000000302,-3.818140701442467755
0.466000000000000303,-3.803206817565751408
0.467000000000000304,-3.788558391431593009
0.468000000000000305,-3.774191524814960896
0.469000000000000306,-3.760102150701174928
0.470000000000000306,-3.746286043397216936
0.471000000000000307,-3.732738828400877118
0.472000000000000308,-3.719455992028033897
0.473000000000000309,-3.706432890798420310
0.474000000000000310,-3.693664760580540385
0.475000000000000311,-3.681146725496657446
0.476000000000000312,-3.668873806589002751
0.477000000000000313,-3.656840930248495880
0.478000000000000314,-3.645042936407524081
0.479000000000000314,-3.633474586498579129
0.480000000000000315,-3.622130571180516512
0.481000000000000316,-3.611005517834649847
0.482000000000000317,-3.600093997832789050
0.483000000000000318,-3.589390533579663867
0.484000000000000319,-3.578889605332171264
0.485000000000000320,-3.568585657798141852
0.486000000000000321,-3.558473106517303197
0.487000000000000322,-3.548546344027349697
0.488000000000000322,-3.538799745817956754
0.489000000000000323,-3.529227676075952669
0.490000000000000324,-3.519824493224599227
0.491000000000000325,-3.510584555260275685
0.492000000000000326,-3.501502224889762260
0.493000000000000327,-3.492571874471521287
0.494000000000000328,-3.483787890764278750
0.495000000000000329,-3.475144679486382504
0.496000000000000330,-3.466636669689334038
0.497000000000000330,-3.458258317949117533
0.498000000000000331,-3.450004112378660004
0.499000000000000332,-3.441868576465190621
0.500000000000000333,-3.433846272735928018
0.501000000000000334,-3.425931806255685164
0.502000000000000335,-3.418119827960080848
0.503000000000000336,-3.410405037827852315
0.504000000000000337,-3.402782187895938559
0.505000000000000338,-3.395246085120892765
0.506000000000000338,-3.387791594090229896
0.507000000000000339,-3.380413639587301677
0.508000000000000340,-3.373107209013190833
0.509000000000000341,-3.365867354669330958
0.510000000000000342,-3.358689195904168034
0.511000000000000343,-3.351567921127572625
0.512000000000000344,-3.344498789696314311
0.513000000000000345,-3.337477133674154661
0.514000000000000346,-3.330498359469987513
0.515000000000000346,-3.323557949357296426
0.516000000000000347,-3.316651462878405621
0.517000000000000348,-3.309774538136826205
0.518000000000000349,-3.302922892980876046
0.519000000000000350,-3.296092326081955015
0.520000000000000351,-3.289278717910538496
0.521000000000000352,-3.282478031613173641
0.522000000000000353,-3.275686313793468862
0.523000000000000353,-3.268899695200213618
0.524000000000000354,-3.262114391325654061
0.525000000000000355,-3.255326702916852444
0.526000000000000356,-3.248533016403064799
0.527000000000000357,-3.241729804242084789
0.528000000000000358,-3.234913625188241326
0.529000000000000359,-3.228081124485014719
0.530000000000000360,-3.221229033984781331
0.531000000000000361,-3.214354172198570669
0.532000000000000361,-3.207453444278332455
0.533000000000000362,-3.200523841934323599
0.534000000000000363,-3.193562443290148600
0.535000000000000364,-3.186566412677936277
0.536000000000000365,-3.179533000376028262
0.537000000000000366,-3.172459542291622192
0.538000000000000367,-3.165343459590585162
0.539000000000000368,-3.158182258276859056
0.540000000000000369,-3.150973528723486794
0.541000000000000369,-3.143714945157613627
0.542000000000000370,-3.136404265101409017
0.543000000000000371,-3.129039328771113126
0.544000000000000372,-3.121618058436142373
0.545000000000000373,-3.114138457740254662
0.546000000000000374,-3.106598610986664788
0.547000000000000375,-3.098996682389006274
0.548000000000000376,-3.091330915289957737
0.549000000000000377,-3.083599631349283499
0.550000000000000377,-3.075801229703045259
0.551000000000000378,-3.067934186095615523
0.552000000000000379,-3.059997051986210082
0.553000000000000380,-3.051988453631425013
0.554000000000000381,-3.043907091145383159
0.555000000000000382,-3.035751737539017281
0.556000000000000383,-3.027521237739826621
0.557000000000000384,-3.019214507593677155
0.558000000000000385,-3.010830532849859686
0.559000000000000385,-3.002368368130858389
0.560000000000000386,-2.993827135888044388
0.561000000000000387,-2.985206025344560921
0.562000000000000388,-2.976504291426588900
0.563000000000000389,-2.967721253684225680
0.564000000000000390,-2.958856295203001086
0.565000000000000391,-2.949908861507219093
0.566000000000000392,-2.940878459456109262
0.567000000000000393,-2.931764656133887037
0.568000000000000393,-2.922567077734592011
0.569000000000000394,-2.913285408442750857
0.570000000000000395,-2.903919389310772203
0.571000000000000396,-2.894468817133853289
0.572000000000000397,-2.884933543323407790
0.573000000000000398,-2.875313472779672530
0.574000000000000399,-2.865608562764401679
0.575000000000000400,-2.855818821774321226
0.576000000000000401,-2.845944308416082258
0.577000000000000401,-2.835985130283503075
0.578000000000000402,-2.825941442837593520
0.579000000000000403,-2.815813448290136911
0.580000000000000404,-2.805601394491437084
0.581000000000000405,-2.795305573822705281
0.582000000000000406,-2.784926322093796092
0.583000000000000407,-2.774464017446685027
0.584000000000000408,-2.763919079265320988
0.585000000000000409,-2.753291967092250214
0.586000000000000409,-2.742583179552505079
0.587000000000000410,-2.731793253285236034
0.588000000000000411,-2.720922761883410423
0.589000000000000412,-2.709972314842105767
0.590000000000000413,-2.698942556515620428
0.591000000000000414,-2.687834165083896387
0.592000000000000415,-2.676647851528518807
0.593000000000000416,-2.665384358618587246
0.594000000000000417,-2.654044459906805375
0.595000000000000417,-2.642628958736106703
0.596000000000000418,-2.631138687256899367
0.597000000000000419,-2.619574505455442903
0.598000000000000420,-2.607937300193318819
0.599000000000000421,-2.596227984258415944
0.600000000000000422,-2.584447495427495856
0.601000000000000423,-2.572596795540567971
0.602000000000000424,-2.560676869587269699
0.603000000000000425,-2.548688724805352024
0.604000000000000425,-2.536633389791424609
0.605000000000000426,-2.524511913624112758
0.606000000000000427,-2.512325364999757227
0.607000000000000428,-2.500074831380605822
0.608000000000000429,-2.487761418155886695
0.609000000000000430,-2.475386247815473340
0.610000000000000431,-2.462950459136540537
0.611000000000000432,-2.450455206383055362
0.612000000000000433,-2.437901658518195624
0.613000000000000433,-2.425290998429830758
