# CNT15-COOH-30_CS-55104-AC
# h[nm],U(h)[kJ/mol]
0.200000000000000011,126.197861392408299253
0.201000000000000012,123.280535881841586843
0.202000000000000013,121.256117375104665257
0.203000000000000014,119.631096592369772225
0.204000000000000015,118.133575377333755796
0.205000000000000016,116.629677012378436984
0.206000000000000016,115.067435145220969162
0.207000000000000017,113.440054595313227992
0.208000000000000018,111.762634412179025389
0.209000000000000019,110.058083368750573072
0.210000000000000020,108.349174859060752851
0.211000000000000021,106.654585107654014564
0.212000000000000022,104.987414757769514040
0.213000000000000023,103.355169701678349270
0.214000000000000024,101.760518457849030938
0.215000000000000024,100.202385393710883932
0.216000000000000025,98.677108015922925688
0.217000000000000026,97.179502239482189907
0.218000000000000027,95.703756843578432267
0.219000000000000028,94.244128262164892362
0.220000000000000029,92.795437591184366966
0.221000000000000030,91.353389193075344110
0.222000000000000031,89.914738875240942662
0.223000000000000032,88.477342420907064025
0.224000000000000032,87.040114457335874931
0.225000000000000033,85.602924786630779863
0.226000000000000034,84.166455417634608693
0.227000000000000035,82.732037308894106786
0.228000000000000036,81.301481694768682473
0.229000000000000037,79.876917074310242128
0.230000000000000038,78.460639628005623081
0.231000000000000039,77.054982041342810817
0.232000000000000040,75.662203453986023760
0.233000000000000040,74.284401484419760209
0.234000000000000041,72.923445949724964521
0.235000000000000042,71.580932948189001763
0.236000000000000043,70.258157336786041469
0.237000000000000044,68.956101256937614608
0.238000000000000045,67.675436186195327082
0.239000000000000046,66.416535972746672201
0.240000000000000047,65.179498402846093086
0.241000000000000048,63.964173024028731618
0.242000000000000048,62.770193171135417742
0.243000000000000049,61.597010395304302222
0.244000000000000050,60.443929760698097198
0.245000000000000051,59.310144736635471929
0.246000000000000052,58.194770664409404048
0.247000000000000053,57.096876011779599480
0.248000000000000054,56.015510839716455393
0.249000000000000055,54.949732093139971312
0.250000000000000056,53.898625489299512026
0.251000000000000056,52.861323914343188335
0.252000000000000057,51.837022351596679925
0.253000000000000058,50.824989455726623078
0.254000000000000059,49.824575957272422499
0.255000000000000060,48.835220134158205951
0.256000000000000061,47.856450622978336185
0.257000000000000062,46.887886865305937079
0.258000000000000063,45.929237495134941582
0.259000000000000064,44.980296974835248136
0.260000000000000064,44.040940780517040309
0.261000000000000065,43.111119425126304350
0.262000000000000066,42.190851590401720728
0.263000000000000067,41.280216618308472221
0.264000000000000068,40.379346589832742609
0.265000000000000069,39.488418195014546086
0.266000000000000070,38.607644573599849025
0.267000000000000071,37.737267281342496972
0.268000000000000071,36.877548513294918564
0.269000000000000072,36.028763692788047024
0.270000000000000073,35.191194513511135256
0.271000000000000074,34.365122502372017266
0.272000000000000075,33.550823152780608893
0.273000000000000076,32.748560661731474397
0.274000000000000077,31.958583289584204579
0.275000000000000078,31.181119348738906893
0.276000000000000079,30.416373816425526400
0.277000000000000079,29.664525557494545893
0.278000000000000080,28.925725135321034287
0.279000000000000081,28.200093182601886355
0.280000000000000082,27.487719298825869174
0.281000000000000083,26.788661437404535093
0.282000000000000084,26.102945742748367763
0.283000000000000085,25.430566795835929383
0.284000000000000086,24.771488225935279104
0.285000000000000087,24.125643645988247954
0.286000000000000087,23.492937869646858928
0.287000000000000088,22.873248368963125188
0.288000000000000089,22.266426933183275594
0.289000000000000090,21.672301490901535459
0.290000000000000091,21.090678059911493136
0.291000000000000092,20.521342791382899406
0.292000000000000093,19.964064077431025623
0.293000000000000094,19.418594693677363239
0.294000000000000095,18.884673950978779544
0.295000000000000095,18.362029833085546926
0.296000000000000096,17.850381099544371466
0.297000000000000097,17.349439335658658479
0.298000000000000098,16.858910933733845638
0.299000000000000099,16.378498992148813329
0.300000000000000100,15.907905120992463566
0.301000000000000101,15.446831145073636193
0.302000000000000102,14.994980697047385121
0.303000000000000103,14.552060695192292172
0.304000000000000103,14.117782702024053165
0.305000000000000104,13.691864161434475378
0.306000000000000105,13.274029513407430869
0.307000000000000106,12.864011186584969337
0.308000000000000107,12.461550470042428884
0.309000000000000108,12.066398266586334742
0.310000000000000109,11.678315730718008325
0.311000000000000110,11.297074795118154711
0.312000000000000111,10.922458590105929233
0.313000000000000111,10.554261761022875277
0.314000000000000112,10.192290688889990236
0.315000000000000113,9.836363619996063790
0.316000000000000114,9.486310710302861438
0.317000000000000115,9.141973990706276254
0.318000000000000116,8.803207259278156727
0.319000000000000117,8.469875906639497742
0.320000000000000118,8.141856680587457262
0.321000000000000119,7.819037396023006181
0.322000000000000119,7.501316596109482759
0.323000000000000120,7.188603170440060808
0.324000000000000121,6.880815935808404227
0.325000000000000122,6.577883184969209651
0.326000000000000123,6.279742208545587623
0.327000000000000124,5.986338794994100709
0.328000000000000125,5.697626713279256627
0.329000000000000126,5.413567182640894870
0.330000000000000127,5.134128333562850699
0.331000000000000127,4.859284663773265400
0.332000000000000128,4.589016492827651561
0.333000000000000129,4.323309418547774285
0.334000000000000130,4.062153778315156671
0.335000000000000131,3.805544117947694538
0.336000000000000132,3.553478670625557889
0.337000000000000133,3.305958848076261170
0.338000000000000134,3.062988745982132777
0.339000000000000135,2.824574665336903490
0.340000000000000135,2.590724651250105204
0.341000000000000136,2.361448050482930050
0.342000000000000137,2.136755088793691026
0.343000000000000138,1.916656468978125361
0.344000000000000139,1.701162990307405920
0.345000000000000140,1.490285189897354146
0.346000000000000141,1.284033006383342279
0.347000000000000142,1.082415466128850978
0.348000000000000143,0.885440392059723913
0.349000000000000143,0.693114135092000261
0.350000000000000144,0.505441328007151469
0.351000000000000145,0.322424661525726075
0.352000000000000146,0.144064682236788477
0.353000000000000147,-0.029640388042479128
0.354000000000000148,-0.198694811977183694
0.355000000000000149,-0.363105476060476939
0.356000000000000150,-0.522882010217018189
0.357000000000000151,-0.678036888335517340
0.358000000000000151,-0.828585510443348605
0.359000000000000152,-0.974546267270631539
0.360000000000000153,-1.115940587979501686
0.361000000000000154,-1.252792971855487103
0.362000000000000155,-1.385131004774878383
0.363000000000000156,-1.512985361272261242
0.364000000000000157,-1.636389793038691920
0.365000000000000158,-1.755381104682890436
0.366000000000000159,-1.869999117584763670
0.367000000000000159,-1.980286622665320850
0.368000000000000160,-2.086289322886881070
0.369000000000000161,-2.188055766285584181
0.370000000000000162,-2.285637270323026549
0.371000000000000163,-2.379087838326353843
0.372000000000000164,-2.468464068766862418
0.373000000000000165,-2.553825058105762658
0.374000000000000166,-2.635232297913307153
0.375000000000000167,-2.712749566942789681
0.376000000000000167,-2.786442818816615041
0.377000000000000168,-2.856380065955001157
0.378000000000000169,-2.922631260351493232
0.379000000000000170,-2.985268171772287982
0.380000000000000171,-3.044364263928942105
0.381000000000000172,-3.099994569146195644
0.382000000000000173,-3.152235562019157111
0.383000000000000174,-3.201165032526458454
0.384000000000000175,-3.246861959038406020
0.385000000000000175,-3.289406381632177023
0.386000000000000176,-3.328879276099547813
0.387000000000000177,-3.365362429005873679
0.388000000000000178,-3.398938314134020366
0.389000000000000179,-3.429689970621158324
0.390000000000000180,-3.457700883072381437
0.391000000000000181,-3.483054863911145382
0.392000000000000182,-3.505835938203417435
0.393000000000000183,-3.526128231170459149
0.394000000000000183,-3.544015858583459355
0.395000000000000184,-3.559582820212860987
0.396000000000000185,-3.572912896485198164
0.397000000000000186,-3.584089548481506515
0.398000000000000187,-3.593195821393289968
0.399000000000000188,-3.600314251534675325
0.400000000000000189,-3.605526776993017712
0.401000000000000190,-3.608914651984893140
0.402000000000000191,-3.610558364969426837
0.403000000000000191,-3.610537560557196546
0.404000000000000192,-3.608930965239933730
0.405000000000000193,-3.605816316953759149
0.406000000000000194,-3.601270298477531551
0.407000000000000195,-3.595368474656866375
0.408000000000000196,-3.588185233434540322
0.409000000000000197,-3.579793730658735740
0.410000000000000198,-3.570265838632045607
0.411000000000000199,-3.559672098356013059
0.412000000000000199,-3.548081675419239467
0.413000000000000200,-3.535562319469815584
0.414000000000000201,-3.522180327207542483
0.415000000000000202,-3.508000508825265484
0.416000000000000203,-3.493086157824319748
0.417000000000000204,-3.477499024124381943
0.418000000000000205,-3.461299290384323601
0.419000000000000206,-3.444545551447274256
0.420000000000000207,-3.427294796820000045
0.421000000000000207,-3.409602396094647325
0.422000000000000208,-3.391522087218147963
0.423000000000000209,-3.373105967513633452
0.424000000000000210,-3.354404487356264841
0.425000000000000211,-3.335466446405172203
0.426000000000000212,-3.316338992292584997
0.427000000000000213,-3.297067621670568549
0.428000000000000214,-3.277696183516032313
0.429000000000000214,-3.258266884594558377
0.430000000000000215,-3.238820296984144420
0.431000000000000216,-3.219395367560628163
0.432000000000000217,-3.200029429347198029
0.433000000000000218,-3.180758214631607128
0.434000000000000219,-3.161615869755851183
0.435000000000000220,-3.142634971484410400
0.436000000000000221,-3.123846544858639884
0.437000000000000222,-3.105280082446529200
0.438000000000000222,-3.086963564898881796
0.439000000000000223,-3.068923482724712937
0.440000000000000224,-3.051184859200646304
0.441000000000000225,-3.033771274331068746
0.442000000000000226,-3.016704889778124343
0.443000000000000227,-3.000006474682323621
0.444000000000000228,-2.983695432297360561
0.445000000000000229,-2.967789827364391009
0.446000000000000230,-2.952306414153695879
0.447000000000000230,-2.937260665103869961
0.448000000000000231,-2.922666799990899733
0.449000000000000232,-2.908537815561900608
0.450000000000000233,-2.894885515570761125
0.451000000000000234,-2.881720541154955573
0.452000000000000235,-2.869052401495539861
0.453000000000000236,-2.856889504704217764
0.454000000000000237,-2.845239188884153059
0.455000000000000238,-2.834107753313022560
0.456000000000000238,-2.823500489699417138
0.457000000000000239,-2.813421713465757090
0.458000000000000240,-2.803874795013143295
0.459000000000000241,-2.794862190925642587
0.460000000000000242,-2.786385475073876350
0.461000000000000243,-2.778445369579499058
0.462000000000000244,-2.771041775604643043
0.463000000000000245,-2.764173803931855300
0.464000000000000246,-2.757839805302700231
0.465000000000000246,-2.752037400484435015
0.466000000000000247,-2.746763510036489997
0.467000000000000248,-2.742014383750101203
0.468000000000000249,-2.737785629736233073
0.469000000000000250,-2.734072243138713443
0.470000000000000251,-2.730868634451021570
0.471000000000000252,-2.728168657416907283
0.472000000000000253,-2.725965636496646027
0.473000000000000254,-2.724252393881909207
0.474000000000000254,-2.723021276044152561
0.475000000000000255,-2.722264179802413864
0.476000000000000256,-2.721972577898057910
0.477000000000000257,-2.722137544065142301
0.478000000000000258,-2.722749777586388920
0.479000000000000259,-2.723799627325967698
0.480000000000000260,-2.725277115231425462
0.481000000000000261,-2.727171959298190895
0.482000000000000262,-2.729473595991172452
0.483000000000000262,-2.732171202119026532
0.484000000000000263,-2.735253716157442838
0.485000000000000264,-2.738709859019030635
0.486000000000000265,-2.742528154267979801
0.487000000000000266,-2.746696947778618281
0.488000000000000267,-2.751204426837855710
0.489000000000000268,-2.756038638692132725
0.490000000000000269,-2.761187508540227320
0.491000000000000270,-2.766638856974063199
0.492000000000000270,-2.772380416870084296
0.493000000000000271,-2.778399849734614513
0.494000000000000272,-2.784684761506933892
0.495000000000000273,-2.791222717824540567
0.496000000000000274,-2.798001258755403065
0.497000000000000275,-2.805007913002552922
0.498000000000000276,-2.812230211586847162
0.499000000000000277,-2.819655701013934035
0.500000000000000222,-2.827271955932085135
0.501000000000000334,-2.835066591287682680
0.502000000000000224,-2.843027273985595738
0.503000000000000336,-2.851141734061914512
0.504000000000000226,-2.859397775376774309
0.505000000000000338,-2.867783285835280971
0.506000000000000227,-2.876286247144689057
0.507000000000000339,-2.884894744116301091
0.508000000000000229,-2.893596973520538906
0.509000000000000341,-2.902381252504021347
0.510000000000000231,-2.911236026577426195
0.511000000000000343,-2.920149877183126907
0.512000000000000233,-2.929111528851611190
0.513000000000000345,-2.938109855955905125
0.514000000000000234,-2.947133889073155544
0.515000000000000346,-2.956172820962567283
0.516000000000000236,-2.965216012169057169
0.517000000000000348,-2.974252996261894655
0.518000000000000238,-2.983273484717592794
0.519000000000000350,-2.992267371456425629
0.520000000000000240,-3.001224737041719326
0.521000000000000352,-3.010135852551361957
0.522000000000000242,-3.018991183130494527
0.523000000000000353,-3.027781391234803721
0.524000000000000243,-3.036497339573239973
0.525000000000000355,-3.045130093759482293
0.526000000000000245,-3.053670924680817134
0.527000000000000357,-3.062111310593569335
0.528000000000000247,-3.070442938953637846
0.529000000000000359,-3.078657707990986037
0.530000000000000249,-3.086747728036592253
0.531000000000000361,-3.094705322610348919
0.532000000000000250,-3.102523029278261735
0.533000000000000362,-3.110193600287256555
0.534000000000000252,-3.117710002985550233
0.535000000000000364,-3.125065420036833519
0.536000000000000254,-3.132253249435880793
0.537000000000000366,-3.139267104333467895
0.538000000000000256,-3.146100812678152003
0.539000000000000368,-3.152748416682386701
0.540000000000000258,-3.159204172120241516
0.541000000000000369,-3.165462547463990362
0.542000000000000259,-3.171518222866510861
0.543000000000000371,-3.177366088996449012
0.544000000000000261,-3.183001245732842488
0.545000000000000373,-3.188419000725867924
0.546000000000000263,-3.193614867830063542
0.547000000000000375,-3.198584565416406900
0.548000000000000265,-3.203324014569389533
0.549000000000000377,-3.207829337175049922
0.550000000000000266,-3.212096853905876515
0.551000000000000378,-3.216123082108269582
0.552000000000000268,-3.219904733598099256
0.553000000000000380,-3.223438712369851800
0.554000000000000270,-3.226722112224565731
0.555000000000000382,-3.229752214321707449
0.556000000000000272,-3.232526484660033894
0.557000000000000384,-3.235042571492158459
0.558000000000000274,-3.237298302677710016
0.559000000000000385,-3.239291682979454468
0.560000000000000275,-3.241020891306971130
0.561000000000000387,-3.242484277912106361
0.562000000000000277,-3.243680361540326462
0.563000000000000389,-3.244607826542120765
0.564000000000000279,-3.245265519948232313
0.565000000000000391,-3.245652448512562849
0.566000000000000281,-3.245767775726354110
0.567000000000000393,-3.245610818807203479
0.568000000000000282,-3.245181045666291730
0.569000000000000394,-3.244478071857108237
0.570000000000000284,-3.243501657508796931
0.571000000000000396,-3.242251704247270716
0.572000000000000286,-3.240728252106920060
0.573000000000000398,-3.238931476435755741
0.574000000000000288,-3.236861684796752847
0.575000000000000400,-3.234519313867964208
0.576000000000000290,-3.231904926343871498
0.577000000000000401,-3.229019207840442274
0.578000000000000291,-3.225862963806109374
0.579000000000000403,-3.222437116440953986
0.580000000000000293,-3.218742701626124081
0.581000000000000405,-3.214780865865532800
0.582000000000000295,-3.210552863241771693
0.583000000000000407,-3.206060052388034709
0.584000000000000297,-3.201303893477772000
0.585000000000000409,-3.196285945233840131
0.586000000000000298,-3.191007861958586211
0.587000000000000410,-3.185471390586465112
0.588000000000000300,-3.179678367760555791
0.589000000000000412,-3.173630716934317419
0.590000000000000302,-3.167330445499871860
0.591000000000000414,-3.160779641944026164
0.592000000000000304,-3.153980473033104470
0.593000000000000416,-3.146935181027659123
0.594000000000000306,-3.139646080928138794
0.595000000000000417,-3.132115557752295665
0.596000000000000307,-3.124346063845317101
0.597000000000000419,-3.116340116223437651
0.598000000000000309,-3.108100293951797877
0.599000000000000421,-3.099629235557182394
0.600000000000000311,-3.090929636476388076
0.601000000000000423,-3.082004246540690495
0.602000000000000313,-3.072855867497009452
0.603000000000000425,-3.063487350566224343
0.604000000000000314,-3.053901594039136747
0.605000000000000426,-3.044101540910348902
0.606000000000000316,-3.034090176550551909
0.607000000000000428,-3.023870526417398619
0.608000000000000318,-3.013445653805343571
0.609000000000000430,-3.002818657634525490
0.610000000000000320,-2.991992670279061350
0.611000000000000432,-2.980970855434697420
0.612000000000000322,-2.969756406026120565
0.613000000000000433,-2.958352542153857900
0.614000000000000323,-2.946762509080917525
0.615000000000000435,-2.934989575259123296
0.616000000000000325,-2.923037030395146285
0.617000000000000437,-2.910908183556193851
0.618000000000000327,-2.898606361315315461
0.619000000000000439,-2.886134905936134309
0.620000000000000329,-2.873497173597010068
0.621000000000000441,-2.860696532654392943
0.622000000000000330,-2.847736361945233163
0.623000000000000442,-2.834620049128269148
0.624000000000000332,-2.821350989063948322
0.625000000000000444,-2.807932582232794072
0.626000000000000334,-2.794368233191948381
0.627000000000000446,-2.780661349069591726
0.628000000000000336,-2.766815338097031507
0.629000000000000448,-2.752833608178095304
0.630000000000000338,-2.738719565495544295
0.631000000000000449,-2.724476613154171112
0.632000000000000339,-2.710108149860246396
0.633000000000000451,-2.695617568636950345
0.634000000000000341,-2.681008255575438870
0.635000000000000453,-2.666283588621161105
0.636000000000000343,-2.651446936395039700
0.637000000000000455,-2.636501657049107994
0.638000000000000345,-2.621451097156251908
0.639000000000000457,-2.606298590633530310
0.640000000000000346,-2.591047457698832712
0.641000000000000458,-2.575701003860216609
0.642000000000000348,-2.560262518937748588
0.643000000000000460,-2.544735276117164879
0.644000000000000350,-2.529122531035101762
0.645000000000000462,-2.513427520895308298
0.646000000000000352,-2.497653463615505220
0.647000000000000464,-2.481803557004289562
0.648000000000000353,-2.465880977967840781
0.649000000000000465,-2.449888881745678315
0.650000000000000355,-2.433830401175314240
0.651000000000000467,-2.417708645985050975
0.652000000000000357,-2.401526702114721523
0.653000000000000469,-2.385287631063631064
0.654000000000000359,-2.368994469265511160
0.655000000000000471,-2.352650227489745838
0.656000000000000361,-2.336257890268655935
0.657000000000000473,-2.319820415350114295
0.658000000000000362,-2.303340733175278210
0.659000000000000474,-2.286821746380764075
0.660000000000000364,-2.270266329324938770
0.661000000000000476,-2.253677327637740202
0.662000000000000366,-2.237057557793712625
0.663000000000000478,-2.220409806707630995
