# CNT15-COOH-30_PYRROLE-AC
# h[nm],U(h)[kJ/mol]
0.200000000000000011,109.254416471569498981
0.201000000000000012,106.808920759486298380
0.202000000000000013,105.048928106417719164
0.203000000000000014,103.576803680275730812
0.204000000000000015,102.178700763006716556
0.205000000000000016,100.753900557037681551
0.206000000000000016,99.267731283644522478
0.207000000000000017,97.721020244185126558
0.208000000000000018,96.130964126485878296
0.209000000000000019,94.519739455472034706
0.210000000000000020,92.908237074636957686
0.211000000000000021,91.313084162367005092
0.212000000000000022,89.745685050364755853
0.213000000000000023,88.212421748484118211
0.214000000000000024,86.715447385610630704
0.215000000000000024,85.253711603767030169
0.216000000000000025,83.823999526562744222
0.217000000000000026,82.421862673830858625
0.218000000000000027,81.042384085483689660
0.219000000000000028,79.680760555309149140
0.220000000000000029,78.332709319788222047
0.221000000000000030,76.994719942443424543
0.222000000000000031,75.664178191010989849
0.223000000000000032,74.339390065939483065
0.224000000000000032,73.019532658729289665
0.225000000000000033,71.704555473587717529
0.226000000000000034,70.395052092011738409
0.227000000000000035,69.092118151984578844
0.228000000000000036,67.797207892776256699
0.229000000000000037,66.511998175702643721
0.230000000000000038,65.238266022488943463
0.231000000000000039,63.977783341439895537
0.232000000000000040,62.732230620852817538
0.233000000000000040,61.503129917838975871
0.234000000000000041,60.291796405124479463
0.235000000000000042,59.099307000060228745
0.236000000000000043,57.926484131156641411
0.237000000000000044,56.773892443931629259
0.238000000000000045,55.641846161214267852
0.239000000000000046,54.530424851130419484
0.240000000000000047,53.439495483133484299
0.241000000000000048,52.368738839205789759
0.242000000000000048,51.317678570029350738
0.243000000000000049,50.285711425896565174
0.244000000000000050,49.272137435212393086
0.245000000000000051,48.276189039171221395
0.246000000000000052,47.297058412238335734
0.247000000000000053,46.333922399602435860
0.248000000000000054,45.385964681988014036
0.249000000000000055,44.452394933880185590
0.250000000000000056,43.532464873258902571
0.251000000000000056,42.625481210168928214
0.252000000000000057,41.730815589278918765
0.253000000000000058,40.847911689812022473
0.254000000000000059,39.976289696893090309
0.255000000000000060,39.115548393589968157
0.256000000000000061,38.265365144860645330
0.257000000000000062,37.425494055317926723
0.258000000000000063,36.595762584137688123
0.259000000000000064,35.776066894353434122
0.260000000000000064,34.966366201822772553
0.261000000000000065,34.166676372761017433
0.262000000000000066,33.377062999167932844
0.263000000000000067,32.597634159814035115
0.264000000000000068,31.828533051613554505
0.265000000000000069,31.069930652952223227
0.266000000000000070,30.322018557481744239
0.267000000000000071,29.585002094523048299
0.268000000000000071,28.859093830923086443
0.269000000000000072,28.144507529258294909
0.270000000000000073,27.441452618871842617
0.271000000000000074,26.750129219492350785
0.272000000000000075,26.070723742173136372
0.273000000000000076,25.403405079027901792
0.274000000000000077,24.748321381694346144
0.275000000000000078,24.105597418575957391
0.276000000000000079,23.475332492613500079
0.277000000000000079,22.857598894521483857
0.278000000000000080,22.252440860985480242
0.279000000000000081,21.659874003130571651
0.280000000000000082,21.079885167523801925
0.281000000000000083,20.512432689938933095
0.282000000000000084,19.957447000972599938
0.283000000000000085,19.414831542241643092
0.284000000000000086,18.884463952199876502
0.285000000000000087,18.366197481488686805
0.286000000000000087,17.859862599079434631
0.287000000000000088,17.365268752191433066
0.288000000000000089,16.882206244994279132
0.289000000000000090,16.410448203355599617
0.290000000000000091,15.949752595310958014
0.291000000000000092,15.499864279451401217
0.292000000000000093,15.060517056000009006
0.293000000000000094,14.631435697934588092
0.294000000000000095,14.212337942075384589
0.295000000000000095,13.802936422561284502
0.296000000000000096,13.402940531562046900
0.297000000000000097,13.012058194394606758
0.298000000000000098,12.629997548415030195
0.299000000000000099,12.256468517129002649
0.300000000000000100,11.891184272897660890
0.301000000000000101,11.533862583402742175
0.302000000000000102,11.184227038676473498
0.303000000000000103,10.842008156992516632
0.304000000000000103,10.506944369260738270
0.305000000000000104,10.178782882768748763
0.306000000000000105,9.857280426175327293
0.307000000000000106,9.542203878588022548
0.308000000000000107,9.233330786356793496
0.309000000000000108,8.930449771894213740
0.310000000000000109,8.633360839397287378
0.311000000000000110,8.341875582805851508
0.312000000000000111,8.055817301692503207
0.313000000000000111,7.775021031050949993
0.314000000000000112,7.499333491137700314
0.315000000000000113,7.228612963636481759
0.316000000000000114,6.962729100461724663
0.317000000000000115,6.701562671504838420
0.318000000000000116,6.445005257561453149
0.319000000000000117,6.192958894565976813
0.320000000000000118,5.945335675108092133
0.321000000000000119,5.702057313019595952
0.322000000000000119,5.463054676605340276
0.323000000000000120,5.228267295853907370
0.324000000000000121,4.997642848705548424
0.325000000000000122,4.771136631183300558
0.326000000000000123,4.548711015909992383
0.327000000000000124,4.330334903243328704
0.328000000000000125,4.115983168966769412
0.329000000000000126,3.905636112178089370
0.330000000000000127,3.699278906722573534
0.331000000000000127,3.496901059226533270
0.332000000000000128,3.298495876500662227
0.333000000000000129,3.104059944803402971
0.334000000000000130,2.913592623183833830
0.335000000000000131,2.727095552861669603
0.336000000000000132,2.544572184351641564
0.337000000000000133,2.366027323799114956
0.338000000000000134,2.191466699765967086
0.339000000000000135,2.020896551490380055
0.340000000000000135,1.854323239440213600
0.341000000000000136,1.691752878789734238
0.342000000000000137,1.533190996271190709
0.343000000000000138,1.378642210687921921
0.344000000000000139,1.228109937222636727
0.345000000000000140,1.081596115534624314
0.346000000000000141,0.939100961511140420
0.347000000000000142,0.800622742421834843
0.348000000000000143,0.666157575119685985
0.349000000000000143,0.535699246837846421
0.350000000000000144,0.409239058047665971
0.351000000000000145,0.286765686769644756
0.352000000000000146,0.168265073664292886
0.353000000000000147,0.053720327174904117
0.354000000000000148,-0.056888352053000954
0.355000000000000149,-0.163583728289501462
0.356000000000000150,-0.266391570220865126
0.357000000000000151,-0.365340673702932994
0.358000000000000151,-0.460462868655273805
0.359000000000000152,-0.551793010996255662
0.360000000000000153,-0.639368960525839247
0.361000000000000154,-0.723231545664121955
0.362000000000000155,-0.803424515951028817
0.363000000000000156,-0.879994483205003286
0.364000000000000157,-0.952990852227618368
0.365000000000000158,-1.022465741926962934
0.366000000000000159,-1.088473897714764549
0.367000000000000159,-1.151072596012826965
0.368000000000000160,-1.210321541681573354
0.369000000000000161,-1.266282759159424565
0.370000000000000162,-1.319020478075726865
0.371000000000000163,-1.368601014072400313
0.372000000000000164,-1.415092645540933836
0.373000000000000165,-1.458565486951810097
0.374000000000000166,-1.499091359423281977
0.375000000000000167,-1.536743659145307195
0.376000000000000167,-1.571597224243885593
0.377000000000000168,-1.603728200639357837
0.378000000000000169,-1.633213907421201316
0.379000000000000170,-1.660132702230713075
0.380000000000000171,-1.684563847112241275
0.381000000000000172,-1.706587375263018291
0.382000000000000173,-1.726283959081894581
0.383000000000000174,-1.743734779887908370
0.384000000000000175,-1.759021399650765316
0.385000000000000175,-1.772225635047521397
0.386000000000000176,-1.783429434132618230
0.387000000000000177,-1.792714755881789301
0.388000000000000178,-1.800163452845404466
0.389000000000000179,-1.805857157121747436
0.390000000000000180,-1.809877169837576627
0.391000000000000181,-1.812304354300459774
0.392000000000000182,-1.813219032965771804
0.393000000000000183,-1.812700888340633920
0.394000000000000183,-1.810828867927358088
0.395000000000000184,-1.807681093290368413
0.396000000000000185,-1.803334773312743833
0.397000000000000186,-1.797866121691911179
0.398000000000000187,-1.791350278708333521
0.399000000000000188,-1.783861237286067380
0.400000000000000189,-1.775471773350286497
0.401000000000000190,-1.766253380474001933
0.402000000000000191,-1.756276208793994043
0.403000000000000191,-1.745609008164806797
0.404000000000000192,-1.734319075509417329
0.405000000000000193,-1.722472206315433407
0.406000000000000194,-1.710132650217165651
0.407000000000000195,-1.697363070595671264
0.408000000000000196,-1.684224508121795694
0.409000000000000197,-1.670776348160531999
0.410000000000000198,-1.657076291949273195
0.411000000000000199,-1.643180331457005705
0.412000000000000199,-1.629142727827253667
0.413000000000000200,-1.615015993303060338
0.414000000000000201,-1.600850876529245070
0.415000000000000202,-1.586696351123763948
0.416000000000000203,-1.572599607407884070
0.417000000000000204,-1.558606047182602428
0.418000000000000205,-1.544759281437334097
0.419000000000000206,-1.531101130875670124
0.420000000000000207,-1.517671629142138823
0.421000000000000207,-1.504509028633842060
0.422000000000000208,-1.491649808780212805
0.423000000000000209,-1.479128686675018844
0.424000000000000210,-1.466978629944802437
0.425000000000000211,-1.455230871738953269
0.426000000000000212,-1.443914927727782516
0.427000000000000213,-1.433058614995958324
0.428000000000000214,-1.422688072720541763
0.429000000000000214,-1.412827784524224750
0.430000000000000215,-1.403500602396446251
0.431000000000000216,-1.394727772077061667
0.432000000000000217,-1.386528959799303795
0.433000000000000218,-1.378922280291133395
0.434000000000000219,-1.371924325936540123
0.435000000000000220,-1.365550197000712673
0.436000000000000221,-1.359813532825663973
0.437000000000000222,-1.354726543905504732
0.438000000000000222,-1.350300044753287354
0.439000000000000223,-1.346543487474114453
0.440000000000000224,-1.343464995961884956
0.441000000000000225,-1.341071400639991085
0.442000000000000226,-1.339368273669110376
0.443000000000000227,-1.338359964547874537
0.444000000000000228,-1.338049636035431700
0.445000000000000229,-1.338439300327300518
0.446000000000000230,-1.339529855419093973
0.447000000000000230,-1.341321121595347776
0.448000000000000231,-1.343811877983481118
0.449000000000000232,-1.346999899115667088
0.450000000000000233,-1.350881991444184305
0.451000000000000234,-1.355454029758388801
0.452000000000000235,-1.360710993454205431
0.453000000000000236,-1.366647002609465478
0.454000000000000237,-1.373255353821223324
0.455000000000000238,-1.380528555763374188
0.456000000000000238,-1.388458364425549041
0.457000000000000239,-1.397035817996586493
0.458000000000000240,-1.406251271358157195
0.459000000000000241,-1.416094430156412454
0.460000000000000242,-1.426554384421799382
0.461000000000000243,-1.437619641709158902
0.462000000000000244,-1.449278159732537485
0.463000000000000245,-1.461517378470809758
0.464000000000000246,-1.474324251722628931
0.465000000000000246,-1.487685278090619123
0.466000000000000247,-1.501586531376888356
0.467000000000000248,-1.516013690373553935
0.468000000000000249,-1.530952068033641700
0.469000000000000250,-1.546386640009473457
0.470000000000000251,-1.562302072547035126
0.471000000000000252,-1.578682749726463497
0.472000000000000253,-1.595512800040273849
0.473000000000000254,-1.612776122302043813
0.474000000000000254,-1.630456410879979057
0.475000000000000255,-1.648537180250702949
0.476000000000000256,-1.667001788870046353
0.477000000000000257,-1.685833462358602208
0.478000000000000258,-1.705015316001010861
0.479000000000000259,-1.724530376558858880
0.480000000000000260,-1.744361603398175475
0.481000000000000261,-1.764491908933328856
0.482000000000000262,-1.784904178390051666
0.483000000000000262,-1.805581288891187297
0.484000000000000263,-1.826506127869375051
0.485000000000000264,-1.847661610811851318
0.486000000000000265,-1.869030698343037589
0.487000000000000266,-1.890596412651249114
0.488000000000000267,-1.912341853266596114
0.489000000000000268,-1.934250212197540675
0.490000000000000269,-1.956304788434145792
0.491000000000000270,-1.978489001826598370
0.492000000000000270,-2.000786406347884849
0.493000000000000271,-2.023180702750067006
0.494000000000000272,-2.045655750623809332
0.495000000000000273,-2.068195579871324075
0.496000000000000274,-2.090784401603004383
0.497000000000000275,-2.113406618468444798
0.498000000000000276,-2.136046834432799635
0.499000000000000277,-2.158689864009430970
0.500000000000000222,-2.181320740960315696
0.501000000000000334,-2.203924726475552376
0.502000000000000224,-2.226487316843598574
0.503000000000000336,-2.248994250623987501
0.504000000000000226,-2.271431515334261686
0.505000000000000338,-2.293785353663093662
0.506000000000000227,-2.316042269221383787
0.507000000000000339,-2.338189031843499688
0.508000000000000229,-2.360212682450380850
0.509000000000000341,-2.382100537486726566
0.510000000000000231,-2.403840192944039611
0.511000000000000343,-2.425419527981567125
0.512000000000000233,-2.446826708156887076
0.513000000000000345,-2.468050188278093415
0.514000000000000234,-2.489078714889191080
0.515000000000000346,-2.509901328400415910
0.516000000000000236,-2.530507364874963638
0.517000000000000348,-2.550886457483677816
0.518000000000000238,-2.571028537638877065
0.519000000000000350,-2.590923835818665477
0.520000000000000240,-2.610562882092592574
0.521000000000000352,-2.629936506359859205
0.522000000000000242,-2.649035838310482394
0.523000000000000353,-2.667852307120401889
0.524000000000000243,-2.686377640890618146
0.525000000000000355,-2.704603865840975452
0.526000000000000245,-2.722523305268393923
0.527000000000000357,-2.740128578279752425
0.528000000000000247,-2.757412598308931262
0.529000000000000359,-2.774368571427780150
0.530000000000000249,-2.790989994460254309
0.531000000000000361,-2.807270652909001019
0.532000000000000250,-2.823204618703290425
0.533000000000000362,-2.838786247777279392
0.534000000000000252,-2.854010177486924871
0.535000000000000364,-2.868871323874336188
0.536000000000000254,-2.883364878787429308
0.537000000000000366,-2.897486306863156003
0.538000000000000256,-2.911231342382002651
0.539000000000000368,-2.924595986001446768
0.540000000000000258,-2.937576501375764426
0.541000000000000369,-2.950169411669473885
0.542000000000000259,-2.962371495971384938
0.543000000000000371,-2.974179785616191563
0.544000000000000261,-2.985591560420167934
0.545000000000000373,-2.996604344837531464
0.546000000000000263,-3.007215904043639476
0.547000000000000375,-3.017424239951194576
0.548000000000000265,-3.027227587165320255
0.549000000000000377,-3.036624408883212389
0.550000000000000266,-3.045613392743930614
0.551000000000000378,-3.054193446633664433
0.552000000000000268,-3.062363694451631257
0.553000000000000380,-3.070123471841683660
0.554000000000000270,-3.077472321894364260
0.555000000000000382,-3.084409990824115599
0.556000000000000272,-3.090936423626177820
0.557000000000000384,-3.097051759717383224
0.558000000000000274,-3.102756328565198896
0.559000000000000385,-3.108050645308835680
0.560000000000000275,-3.112935406376430958
0.561000000000000387,-3.117411485101940105
0.562000000000000277,-3.121479927345263583
0.563000000000000389,-3.125141947119125518
0.564000000000000279,-3.128398922225846146
0.565000000000000391,-3.131252389907214884
0.566000000000000281,-3.133704042510422560
0.567000000000000393,-3.135755723172914067
0.568000000000000282,-3.137409421528893017
0.569000000000000394,-3.138667269440064356
0.570000000000000284,-3.139531536753061403
0.571000000000000396,-3.140004627085991817
0.572000000000000286,-3.140089073646257667
0.573000000000000398,-3.139787535081751457
0.574000000000000288,-3.139102791367526013
0.575000000000000400,-3.138037739729750086
0.576000000000000290,-3.136595390608764689
0.577000000000000401,-3.134778863662934789
0.578000000000000291,-3.132591383814862684
0.579000000000000403,-3.130036277341470274
0.580000000000000293,-3.127116968009322484
0.581000000000000405,-3.123836973256501004
0.582000000000000295,-3.120199900422249151
0.583000000000000407,-3.116209443025497627
0.584000000000000297,-3.111869377093291256
0.585000000000000409,-3.107183557540145191
0.586000000000000298,-3.102155914599127762
0.587000000000000410,-3.096790450305538123
0.588000000000000300,-3.091091235033875950
0.589000000000000412,-3.085062404088762200
0.590000000000000302,-3.078708154350425552
0.591000000000000414,-3.072032740975275900
0.592000000000000304,-3.065040474152016081
0.593000000000000416,-3.057735715913658670
0.594000000000000306,-3.050122877005896349
0.595000000000000417,-3.042206413811974652
0.596000000000000307,-3.033990825334402341
0.597000000000000419,-3.025480650233612234
0.598000000000000309,-3.016680463923760325
0.599000000000000421,-3.007594875725637884
0.600000000000000311,-2.998228526076871070
0.601000000000000423,-2.988586083799257942
0.602000000000000313,-2.978672243423277077
0.603000000000000425,-2.968491722569615909
0.604000000000000314,-2.958049259387651286
0.605000000000000426,-2.947349610050593594
0.606000000000000316,-2.936397546307220718
0.607000000000000428,-2.925197853089843480
0.608000000000000318,-2.913755326178326666
0.609000000000000430,-2.902074769919737562
0.610000000000000320,-2.890160995003444810
0.611000000000000432,-2.878018816291121773
0.612000000000000322,-2.865653050701437277
0.613000000000000433,-2.853068515148885709
0.614000000000000323,-2.840270024536405646
0.615000000000000435,-2.827262389801278530
0.616000000000000325,-2.814050416013832212
0.617000000000000437,-2.800638900528459097
0.618000000000000327,-2.787032631186453724
0.619000000000000439,-2.773236384570040514
0.620000000000000329,-2.759254924307160017
0.621000000000000441,-2.745092999426357760
0.622000000000000330,-2.730755342761221449
0.623000000000000442,-2.716246669403778569
0.624000000000000332,-2.701571675206225542
0.625000000000000444,-2.686735035330386712
0.626000000000000334,-2.671741402844287627
0.627000000000000446,-2.656595407365136996
0.628000000000000336,-2.641301653748173717
0.629000000000000448,-2.625864720820633824
0.630000000000000338,-2.610289160160227606
0.631000000000000449,-2.594579494917433227
0.632000000000000339,-2.578740218680959373
0.633000000000000451,-2.562775794385668604
0.634000000000000341,-2.546690653262310811
0.635000000000000453,-2.530489193828365124
0.636000000000000343,-2.514175780919314818
0.637000000000000455,-2.497754744759634438
0.638000000000000345,-2.481230380072882546
0.639000000000000457,-2.464606945230057189
0.640000000000000346,-2.447888661435738911
0.641000000000000458,-2.431079711951081190
0.642000000000000348,-2.414184241353206417
0.643000000000000460,-2.397206354830093922
0.644000000000000350,-2.380150117510471564
0.645000000000000462,-2.363019553827836905
0.646000000000000352,-2.345818646918118144
0.647000000000000464,-2.328551338050091957
0.648000000000000353,-2.311221526088112377
0.649000000000000465,-2.293833066986205260
0.650000000000000355,-2.276389773313156173
0.651000000000000467,-2.258895413807636032
0.652000000000000357,-2.241353712962982137
0.653000000000000469,-2.223768350640699776
0.654000000000000359,-2.206142961712317607
0.655000000000000471,-2.188481135728684635
0.656000000000000361,-2.170786416616304226
0.657000000000000473,-2.153062302399856520
0.658000000000000362,-2.135312244950481109
0.659000000000000474,-2.117539649759040188
0.660000000000000364,-2.099747875733859015
0.661000000000000476,-2.081940235022224250
0.662000000000000366,-2.064119992855180552
0.663000000000000478,-2.046290367414872247
