# CNT15-COOH-30_BGALNA-JS
# h[nm],U(h)[kJ/mol]
0.200000000000000011,169.682276429840328547
0.201000000000000012,166.152895301250680404
0.202000000000000013,163.536455888616472976
0.203000000000000014,161.355132037329042305
0.204000000000000015,159.339582408688471560
0.205000000000000016,157.351516611640647625
0.206000000000000016,155.331517865054024696
0.207000000000000017,153.264696345621189266
0.208000000000000018,151.158758303641917564
0.209000000000000019,149.030576532676377610
0.210000000000000020,146.898461026949746611
0.211000000000000021,144.778149240687412203
0.212000000000000022,142.681135720905814424
0.213000000000000023,140.614396339344267517
0.214000000000000024,138.580875003726049499
0.215000000000000024,136.580322510449207130
0.216000000000000025,134.610232220909352918
0.217000000000000026,132.666723626041857642
0.218000000000000027,130.745296161032172222
0.219000000000000028,128.841421918602435426
0.220000000000000029,126.950974621978986079
0.221000000000000030,125.070508804411616666
0.222000000000000031,123.197411552830743631
0.223000000000000032,121.329952244140400808
0.224000000000000032,119.467255440229308761
0.225000000000000033,117.609219907971919383
0.226000000000000034,115.756403543286523927
0.227000000000000035,113.909890431437773373
0.228000000000000036,112.071152766855817617
0.229000000000000037,110.241917120787732642
0.230000000000000038,108.424041708724260502
0.231000000000000039,106.619408921661559475
0.232000000000000040,104.829835447477691446
0.233000000000000040,103.057000793078756828
0.234000000000000041,101.302393880121911707
0.235000000000000042,99.567276575165976737
0.236000000000000043,97.852662475554026855
0.237000000000000044,96.159308953885883398
0.238000000000000045,94.487720319610957631
0.239000000000000046,92.838159944594437434
0.240000000000000047,91.210669284884247077
0.241000000000000048,89.605091883586382551
0.242000000000000048,88.021100635451432481
0.243000000000000049,86.458226813155036439
0.244000000000000050,84.915889583342675451
0.245000000000000051,83.393424966041308721
0.246000000000000052,81.890113405915386124
0.247000000000000053,80.405205322502780518
0.248000000000000054,78.937944185552922249
0.249000000000000055,77.487586819065100485
0.250000000000000056,76.053420773023063362
0.251000000000000056,74.634778715500289081
0.252000000000000057,73.231049890817232040
0.253000000000000058,71.841688763260250994
0.254000000000000059,70.466221022308658917
0.255000000000000060,69.104247166299657579
0.256000000000000061,67.755443908967592392
0.257000000000000062,66.419563669281856733
0.258000000000000063,65.096432411335214852
0.259000000000000064,63.785946099446164226
0.260000000000000064,62.488066025718616459
0.261000000000000065,61.202813254487509198
0.262000000000000066,59.930262411615046858
0.263000000000000067,58.670535027602682021
0.264000000000000068,57.423792622869555657
0.265000000000000069,56.190229702113185795
0.266000000000000070,54.970066803063943439
0.267000000000000071,53.763543723687654108
0.268000000000000071,52.570913031402355386
0.269000000000000072,51.392433938464577636
0.270000000000000073,50.228366609576752921
0.271000000000000074,49.078966951131427265
0.272000000000000075,47.944481916426738621
0.273000000000000076,46.825145347710254384
0.274000000000000077,45.721174364031355708
0.275000000000000078,44.632766293574874794
0.276000000000000079,43.560096140352314364
0.277000000000000079,42.503314567758295084
0.278000000000000080,41.462546375474261140
0.279000000000000081,40.437889441405175717
0.280000000000000082,39.429414096669738399
0.281000000000000083,38.437162899012392359
0.282000000000000084,37.461150768259642518
0.283000000000000085,36.501365446494503431
0.284000000000000086,35.557768245364641757
0.285000000000000087,34.630295043278849221
0.286000000000000087,33.718857496082364378
0.287000000000000088,32.823344426054489986
0.288000000000000089,31.943623355659081398
0.289000000000000090,31.079542154328471781
0.290000000000000091,30.230930768612203963
0.291000000000000092,29.397603008209795661
0.292000000000000093,28.579358362688321193
0.293000000000000094,27.775983826010765654
0.294000000000000095,26.987255708333968585
0.295000000000000095,26.212941416842021169
0.296000000000000096,25.452801189637227708
0.297000000000000097,24.706589768889195113
0.298000000000000098,23.974058001530945461
0.299000000000000099,23.254954357768980344
0.300000000000000100,22.549026359537286623
0.301000000000000101,21.856021912759800330
0.302000000000000102,21.175690538893622517
0.303000000000000103,20.507784502696321027
0.304000000000000103,19.852059834502860269
0.305000000000000104,19.208277246504668057
0.306000000000000105,18.576202943603536966
0.307000000000000106,17.955609330367426679
0.308000000000000107,17.346275616449240431
0.309000000000000108,16.747988323550448087
0.310000000000000109,16.160541697621859214
0.311000000000000110,15.583738030506140149
0.312000000000000111,15.017387895639629392
0.313000000000000111,14.461310302761393842
0.314000000000000112,13.915332776823280625
0.315000000000000113,13.379291366469178826
0.316000000000000114,12.853030587558716746
0.317000000000000115,12.336403307258070328
0.318000000000000116,11.829270574213960998
0.319000000000000117,11.331501400273849001
0.320000000000000118,10.842972499120246965
0.321000000000000119,10.363567987055951392
0.322000000000000119,9.893179051016051773
0.323000000000000120,9.431703588695608431
0.324000000000000121,8.979045825472500297
0.325000000000000122,8.535115912580337749
0.326000000000000123,8.099829510747289518
0.327000000000000124,7.673107363267706482
0.328000000000000125,7.254874862218296805
0.329000000000000126,6.845061611271640700
0.330000000000000127,6.443600988298706866
0.331000000000000127,6.050429710693052243
0.332000000000000128,5.665487406092160505
0.333000000000000129,5.288716190919260818
0.334000000000000130,4.920060258923121488
0.335000000000000131,4.559465481653577790
0.336000000000000132,4.206879022581373917
0.337000000000000133,3.862248966348298840
0.338000000000000134,3.525523964422616618
0.339000000000000135,3.196652898234371598
0.340000000000000135,2.875584560673731804
0.341000000000000136,2.562267356657510042
0.342000000000000137,2.256649023300388190
0.343000000000000138,1.958676370071386286
0.344000000000000139,1.668295039169779725
0.345000000000000140,1.385449286221400511
0.346000000000000141,1.110081781272085788
0.347000000000000142,0.842133429942933942
0.348000000000000143,0.581543214509136819
0.349000000000000143,0.328248054572451042
0.350000000000000144,0.082182686914215000
0.351000000000000145,-0.156720435956938436
0.352000000000000146,-0.388531229113622700
0.353000000000000147,-0.613322040980931460
0.354000000000000148,-0.831167702225338423
0.355000000000000149,-1.042145558456621490
0.356000000000000150,-1.246335487471626591
0.357000000000000151,-1.443819901795761584
0.358000000000000151,-1.634683737298671558
0.359000000000000152,-1.819014428675636008
0.360000000000000153,-1.996901872596197336
0.361000000000000154,-2.168438379325750454
0.362000000000000155,-2.333718613627062233
0.363000000000000156,-2.492839525744376949
0.364000000000000157,-2.645900273265600511
0.365000000000000158,-2.793002134647866175
0.366000000000000159,-2.934248415177151070
0.367000000000000159,-3.069744346117555533
0.368000000000000160,-3.199596977786220098
0.369000000000000161,-3.323915067269914037
0.370000000000000162,-3.442808961476686136
0.371000000000000163,-3.556390476192112793
0.372000000000000164,-3.664772771784654104
0.373000000000000165,-3.768070226178410032
0.374000000000000166,-3.866398305685001535
0.375000000000000167,-3.959873434258018854
0.376000000000000167,-4.048612861706506472
0.377000000000000168,-4.132734531375056974
0.378000000000000169,-4.212356947769974269
0.379000000000000170,-4.287599044582795393
0.380000000000000171,-4.358580053534350185
0.381000000000000172,-4.425419374434459208
0.382000000000000173,-4.488236446825202286
0.383000000000000174,-4.547150623548666282
0.384000000000000175,-4.602281046553376775
0.385000000000000175,-4.653746525228020126
0.386000000000000176,-4.701665417526090351
0.387000000000000177,-4.746155514119990926
0.388000000000000178,-4.787333925800481005
0.389000000000000179,-4.825316974313506257
0.390000000000000180,-4.860220086805238537
0.391000000000000181,-4.892157694024677816
0.392000000000000182,-4.921243132412859822
0.393000000000000183,-4.947588550188674716
0.394000000000000183,-4.971304817522514519
0.395000000000000184,-4.992501440871797591
0.396000000000000185,-5.011286481535400128
0.397000000000000186,-5.027766478468551625
0.398000000000000187,-5.042046375384963142
0.399000000000000188,-5.054229452158727653
0.400000000000000189,-5.064417260525575948
0.401000000000000190,-5.072709564071018917
0.402000000000000191,-5.079204282481086352
0.403000000000000191,-5.083997440021065906
0.404000000000000192,-5.087183118197789788
0.405000000000000193,-5.088853412551706867
0.406000000000000194,-5.089098393517102359
0.407000000000000195,-5.088006071280728015
0.408000000000000196,-5.085662364562557158
0.409000000000000197,-5.082151073235925409
0.410000000000000198,-5.077553854698871660
0.411000000000000199,-5.071950203903091037
0.412000000000000199,-5.065417436943184804
0.413000000000000200,-5.058030678104096012
0.414000000000000201,-5.049862850262226921
0.415000000000000202,-5.040984668532034085
0.416000000000000203,-5.031464637048175703
0.417000000000000204,-5.021369048770930377
0.418000000000000205,-5.010761988201350547
0.419000000000000206,-4.999705336891432594
0.420000000000000207,-4.988258781633706285
0.421000000000000207,-4.976479825214710218
0.422000000000000208,-4.964423799616048072
0.423000000000000209,-4.952143881547837800
0.424000000000000210,-4.939691110199132318
0.425000000000000211,-4.927114407091133685
0.426000000000000212,-4.914460597920042417
0.427000000000000213,-4.901774436277325897
0.428000000000000214,-4.889098629137139440
0.429000000000000214,-4.876473864001847680
0.430000000000000215,-4.863938837598665188
0.431000000000000216,-4.851530286022436300
0.432000000000000217,-4.839283016221472167
0.433000000000000218,-4.827229938725787761
0.434000000000000219,-4.815402101519396183
0.435000000000000220,-4.803828724960726326
0.436000000000000221,-4.792537237657731097
0.437000000000000222,-4.781553313206861944
0.438000000000000222,-4.770900907707785521
0.439000000000000223,-4.760602297968381080
0.440000000000000224,-4.750678120317234132
0.441000000000000225,-4.741147409943688551
0.442000000000000226,-4.732027640688343695
0.443000000000000227,-4.723334765209429520
0.444000000000000228,-4.715083255453746069
0.445000000000000229,-4.707286143363135444
0.446000000000000230,-4.699955061750563878
0.447000000000000230,-4.693100285282683970
0.448000000000000231,-4.686730771508260673
0.449000000000000232,-4.680854201874717013
0.450000000000000233,-4.675477022677869243
0.451000000000000234,-4.670604485892226876
0.452000000000000235,-4.666240689832287458
0.453000000000000236,-4.662388619597331640
0.454000000000000237,-4.659050187255333597
0.455000000000000238,-4.656226271723475918
0.456000000000000238,-4.653916758305638446
0.457000000000000239,-4.652120577849381711
0.458000000000000240,-4.650835745487302830
0.459000000000000241,-4.650059398929871968
0.460000000000000242,-4.649787836279200448
0.461000000000000243,-4.650016553335026614
0.462000000000000244,-4.650740280366749246
0.463000000000000245,-4.651953018326665301
0.464000000000000246,-4.653648074482411801
0.465000000000000246,-4.655818097447613546
0.466000000000000247,-4.658455111592192388
0.467000000000000248,-4.661550550815284133
0.468000000000000249,-4.665095291665420696
0.469000000000000250,-4.669079685794396362
0.470000000000000251,-4.673493591732650998
0.471000000000000252,-4.678326405975587576
0.472000000000000253,-4.683567093371921786
0.473000000000000254,-4.689204216805973324
0.474000000000000254,-4.695225966167906329
0.475000000000000255,-4.701620186606483287
0.476000000000000256,-4.708374406060710449
0.477000000000000257,-4.715475862067437518
0.478000000000000258,-4.722911527843466573
0.479000000000000259,-4.730668137641492521
0.480000000000000260,-4.738732211380368042
0.481000000000000261,-4.747090078551084780
0.482000000000000262,-4.755727901400702784
0.483000000000000262,-4.764631697397496701
0.484000000000000263,-4.773787360981041061
0.485000000000000264,-4.783180684602172938
0.486000000000000265,-4.792797379058088225
0.487000000000000266,-4.802623093128596921
0.488000000000000267,-4.812643432520395947
0.489000000000000268,-4.822843978126493347
0.490000000000000269,-4.833210303608615810
0.491000000000000270,-4.843727992311002595
0.492000000000000270,-4.854382653514219825
0.493000000000000271,-4.865159938038357446
0.494000000000000272,-4.876045553205099914
0.495000000000000273,-4.887025277168696391
0.496000000000000274,-4.898084972626099542
0.497000000000000275,-4.909210599916828954
0.498000000000000276,-4.920388229523544155
0.499000000000000277,-4.931604053984236735
0.500000000000000222,-4.942844399227507957
0.501000000000000334,-4.954095735342366247
0.502000000000000224,-4.965344686794159301
0.503000000000000336,-4.976578042098526389
0.504000000000000226,-4.987782762965197847
0.505000000000000338,-4.998945992923680137
0.506000000000000227,-5.010055065442865718
0.507000000000000339,-5.021097511556760651
0.508000000000000229,-5.032061067008361199
0.509000000000000341,-5.042933678923970042
0.510000000000000231,-5.053703512030081946
0.511000000000000343,-5.064358954424970527
0.512000000000000233,-5.074888622917080205
0.513000000000000345,-5.085281367942373620
0.514000000000000234,-5.095526278072615156
0.515000000000000346,-5.105612684126468181
0.516000000000000236,-5.115530162895343125
0.517000000000000348,-5.125268540495764746
0.518000000000000238,-5.134817895359853779
0.519000000000000350,-5.144168560875558072
0.520000000000000240,-5.153311127687908666
0.521000000000000352,-5.162236445672824914
0.522000000000000242,-5.170935625594330176
0.523000000000000353,-5.179400040456503262
0.524000000000000243,-5.187621326560662993
0.525000000000000355,-5.195591384278858804
0.526000000000000245,-5.203302378553869900
0.527000000000000357,-5.210746739136308925
0.528000000000000247,-5.217917160568854129
0.529000000000000359,-5.224806601927755700
0.530000000000000249,-5.231408286331360458
0.531000000000000361,-5.237715700225364479
0.532000000000000250,-5.243722592454169273
0.533000000000000362,-5.249422973127798819
0.534000000000000252,-5.254811112293152675
0.535000000000000364,-5.259881538418905933
0.536000000000000254,-5.264629036702364928
0.537000000000000366,-5.269048647207013047
0.538000000000000256,-5.273135662839031568
0.539000000000000368,-5.276885627170862847
0.540000000000000258,-5.280294332119771283
0.541000000000000369,-5.283357815489142517
0.542000000000000259,-5.286072358380053515
0.543000000000000371,-5.288434482480450782
0.544000000000000261,-5.290440947239085645
0.545000000000000373,-5.292088746931225884
0.546000000000000263,-5.293375107622823705
0.547000000000000375,-5.294297484039761414
0.548000000000000265,-5.294853556348678936
0.549000000000000377,-5.295041226855364158
0.550000000000000266,-5.294858616627005965
0.551000000000000378,-5.294304062043939219
0.552000000000000268,-5.293376111286652197
0.553000000000000380,-5.292073520763576511
0.554000000000000270,-5.290395251484920180
0.555000000000000382,-5.288340465387647349
0.556000000000000272,-5.285908521616788036
0.557000000000000384,-5.283098972767549029
0.558000000000000274,-5.279911561093271644
0.559000000000000385,-5.276346214683337088
0.560000000000000275,-5.272403043615655704
0.561000000000000387,-5.268082336087721806
0.562000000000000277,-5.263384554530285975
0.563000000000000389,-5.258310331707596319
0.564000000000000279,-5.252860466807812934
0.565000000000000391,-5.247035921527254843
0.566000000000000281,-5.240837816151858952
0.567000000000000393,-5.234267425639171911
0.568000000000000282,-5.227326175704053668
0.569000000000000394,-5.220015638911070788
0.570000000000000284,-5.212337530776487426
0.571000000000000396,-5.204293705882681031
0.572000000000000286,-5.195886154007585134
0.573000000000000398,-5.187116996271624814
0.574000000000000288,-5.177988481304687696
0.575000000000000400,-5.168502981435336707
0.576000000000000290,-5.158662988904437086
0.577000000000000401,-5.148471112105325709
0.578000000000000291,-5.137930071852440328
0.579000000000000403,-5.127042697680311178
0.580000000000000293,-5.115811924174652248
0.581000000000000405,-5.104240787337201546
0.582000000000000295,-5.092332420985959729
0.583000000000000407,-5.080090053192208188
0.584000000000000297,-5.067517002755713484
0.585000000000000409,-5.054616675719517005
0.586000000000000298,-5.041392561925390758
0.587000000000000410,-5.027848231611192098
0.588000000000000300,-5.013987332051135226
0.589000000000000412,-4.999813584239943154
0.590000000000000302,-4.985330779621818031
0.591000000000000414,-4.970542776865096712
0.592000000000000304,-4.955453498683260349
0.593000000000000416,-4.940066928703040539
0.594000000000000306,-4.924387108380336109
0.595000000000000417,-4.908418133964350893
0.596000000000000307,-4.892164153510610625
0.597000000000000419,-4.875629363943206229
0.598000000000000309,-4.858818008166765345
0.599000000000000421,-4.841734372228321703
0.600000000000000311,-4.824382782529605507
0.601000000000000423,-4.806767603089776131
0.602000000000000313,-4.788893232858923099
0.603000000000000425,-4.770764103082397511
0.604000000000000314,-4.752384674716217283
0.605000000000000426,-4.733759435893343692
0.606000000000000316,-4.714892899441144536
0.607000000000000428,-4.695789600449795209
0.608000000000000318,-4.676454093891718955
0.609000000000000430,-4.656890952291789176
0.610000000000000320,-4.637104763448410161
0.611000000000000432,-4.617100128205043674
0.612000000000000322,-4.596881658272209847
0.613000000000000433,-4.576453974099603528
0.614000000000000323,-4.555821702798147577
0.615000000000000435,-4.534989476111669582
0.616000000000000325,-4.513961928437890236
0.617000000000000437,-4.492743694898421403
0.618000000000000327,-4.471339409457467440
0.619000000000000439,-4.449753703088676460
0.620000000000000329,-4.427991201990011838
0.621000000000000441,-4.406056525846016925
0.622000000000000330,-4.383954286137126566
0.623000000000000442,-4.361689084495600888
0.624000000000000332,-4.339265511107557316
0.625000000000000444,-4.316688143160643421
0.626000000000000334,-4.293961543336934916
0.627000000000000446,-4.271090258350369595
0.628000000000000336,-4.248078817528405438
0.629000000000000448,-4.224931731437246540
0.630000000000000338,-4.201653490550122605
0.631000000000000449,-4.178248563958083750
0.632000000000000339,-4.154721398122757314
0.633000000000000451,-4.131076415670468904
0.634000000000000341,-4.107318014227191227
0.635000000000000453,-4.083450565293722079
0.636000000000000343,-4.059478413160510613
0.637000000000000455,-4.035405873861494186
0.638000000000000345,-4.011237234166492804
0.639000000000000457,-3.986976750611304965
0.640000000000000346,-3.962628648565247325
0.641000000000000458,-3.938197121335138995
0.642000000000000348,-3.913686329305530620
0.643000000000000460,-3.889100399114174600
0.644000000000000350,-3.864443422862470889
0.645000000000000462,-3.839719457359997534
0.646000000000000352,-3.814932523402743580
0.647000000000000464,-3.790086605084199700
0.648000000000000353,-3.765185649139008550
0.649000000000000465,-3.740233564318150794
0.650000000000000355,-3.715234220795513131
0.651000000000000467,-3.690191449604801388
0.652000000000000357,-3.665109042106596604
0.653000000000000469,-3.639990749484559807
0.654000000000000359,-3.614840282270571414
0.655000000000000471,-3.589661309897846930
0.656000000000000361,-3.564457460281778456
0.657000000000000473,-3.539232319427567663
0.658000000000000362,-3.513989431064421076
0.659000000000000474,-3.488732296305409708
0.660000000000000364,-3.463464373332669766
0.661000000000000476,-3.438189077107151270
0.662000000000000366,-3.412909779102572205
