# CNT15-COOH-30_TANNIC-ARM-ANION-AC
# h[nm],U(h)[kJ/mol]
0.149999999999999994,129.541079293167911146
0.150999999999999995,125.603956290999619227
0.151999999999999996,123.513334932308197267
0.152999999999999997,121.826374255376578049
0.153999999999999998,120.017846007044639123
0.154999999999999999,117.991230379065200395
0.156000000000000000,115.816261836221684689
0.157000000000000001,113.599055252055947562
0.158000000000000002,111.426568907366146277
0.159000000000000002,109.350181757956036677
0.160000000000000003,107.387796446857720412
0.161000000000000004,105.532994409055163487
0.162000000000000005,103.765299581969955511
0.163000000000000006,102.058846206244240307
0.164000000000000007,100.388549885143589790
0.165000000000000008,98.733808731650128721
0.166000000000000009,97.080172918542430693
0.167000000000000010,95.419543366978729182
0.168000000000000010,93.749433454731004645
0.169000000000000011,92.071734675925540614
0.170000000000000012,90.391315274885855047
0.171000000000000013,88.714674723535111411
0.172000000000000014,87.048787719236401017
0.173000000000000015,85.400202567122647679
0.174000000000000016,83.774409615467149592
0.175000000000000017,82.175463094554970667
0.176000000000000018,80.605820846639659294
0.177000000000000018,79.066357638645826000
0.178000000000000019,77.556506022407234013
0.179000000000000020,76.074481582443155503
0.180000000000000021,74.617554970079112309
0.181000000000000022,73.182339948050895373
0.182000000000000023,71.765073770398373654
0.183000000000000024,70.361872949909908925
0.184000000000000025,68.968953434592748408
0.185000000000000026,67.582809234629436901
0.186000000000000026,66.200347557379842556
0.187000000000000027,64.818981555951339146
0.188000000000000028,63.436683967667285344
0.189000000000000029,62.052006332646371334
0.190000000000000030,60.664069270739219064
0.191000000000000031,59.272529586735934970
0.192000000000000032,57.877529889120900464
0.193000000000000033,56.479636052899152787
0.194000000000000034,55.079767322493658810
0.195000000000000034,53.679123210582133652
0.196000000000000035,52.279110661785509251
0.197000000000000036,50.881274261167348527
0.198000000000000037,49.487231609201536742
0.199000000000000038,48.098615379573182338
0.200000000000000039,46.717023037820126774
0.201000000000000040,45.343974734611293798
0.202000000000000041,43.980879499440355573
0.203000000000000042,42.629009546915682449
0.204000000000000042,41.289482264164902858
0.205000000000000043,39.963249267904501494
0.206000000000000044,38.651091796160841341
0.207000000000000045,37.353621624741329299
0.208000000000000046,36.071286664582487447
0.209000000000000047,34.804380395584459507
0.210000000000000048,33.553054318529454747
0.211000000000000049,32.317332652872060805
0.212000000000000050,31.097128568997970177
0.213000000000000050,29.892261314148584006
0.214000000000000051,28.702473667502044208
0.215000000000000052,27.527449238504612339
0.216000000000000053,26.366829200725231175
0.217000000000000054,25.220228129119160343
0.218000000000000055,24.087248680019531122
0.219000000000000056,22.967494919273732989
0.220000000000000057,21.860584163929665635
0.221000000000000058,20.766157256327478109
0.222000000000000058,19.683887236177277202
0.223000000000000059,18.613486416259476641
0.224000000000000060,17.554711900970819016
0.225000000000000061,16.507369614395479118
0.226000000000000062,15.471316926330988650
0.227000000000000063,14.446463981227520179
0.228000000000000064,13.432773846827483766
0.229000000000000065,12.430261606950319120
0.230000000000000066,11.438992526893599688
0.231000000000000066,10.459079420824698659
0.232000000000000067,9.490679348818130023
0.233000000000000068,8.533989767307467389
0.234000000000000069,7.589244251097293059
0.235000000000000070,6.656707898104448518
0.236000000000000071,5.736672520018706756
0.237000000000000072,4.829451713393626555
0.238000000000000073,3.935375896572247623
0.239000000000000073,3.054787388547873128
0.240000000000000074,2.188035596549367412
0.241000000000000075,1.335472369993676578
0.242000000000000076,0.497447569591406957
0.243000000000000077,-0.325695108068083161
0.244000000000000078,-1.133622018104428975
0.245000000000000079,-1.926013142202008810
0.246000000000000080,-2.702565332690208599
0.247000000000000081,-3.462995214066562077
0.248000000000000081,-4.207041735826441808
0.249000000000000082,-4.934468375497980119
0.250000000000000111,-5.645064995215058445
0.251000000000000112,-6.338649359012343609
0.252000000000000113,-7.015068321322478262
0.253000000000000114,-7.674198699921004341
0.254000000000000115,-8.315947848840227863
0.255000000000000115,-8.940253948586747157
0.256000000000000116,-9.547086032391757016
0.257000000000000117,-10.136443768232890505
0.258000000000000118,-10.708357017028593106
0.259000000000000119,-11.262885187759952288
0.260000000000000120,-11.800116410354267060
0.261000000000000121,-12.320166547003427837
0.262000000000000122,-12.823178062223240303
0.263000000000000123,-13.309318771414584859
0.264000000000000123,-13.778780486995662713
0.265000000000000124,-14.231777580360134294
0.266000000000000125,-14.668545477004872879
0.267000000000000126,-15.089339101184481962
0.268000000000000127,-15.494431285408746035
0.269000000000000128,-15.884111159019733250
0.270000000000000129,-16.258682528985453075
0.271000000000000130,-16.618462264940259132
0.272000000000000131,-16.963778699399238548
0.273000000000000131,-17.294970052987618914
0.274000000000000132,-17.612382893463930600
0.275000000000000133,-17.916370636285911644
0.276000000000000134,-18.207292093476588946
0.277000000000000135,-18.485510076599048546
0.278000000000000136,-18.751390058748462764
0.279000000000000137,-19.005298899618267683
0.280000000000000138,-19.247603636898951152
0.281000000000000139,-19.478670346523131229
0.282000000000000139,-19.698863073578870342
0.283000000000000140,-19.908542835076840305
0.284000000000000141,-20.108066695172681193
0.285000000000000142,-20.297786912915306345
0.286000000000000143,-20.478050162111912869
0.287000000000000144,-20.649196822469598089
0.288000000000000145,-20.811560340791835699
0.289000000000000146,-20.965466660669171972
0.290000000000000147,-21.111233718811075022
0.291000000000000147,-21.249171005911577481
0.292000000000000148,-21.379579189727582644
0.293000000000000149,-21.502749797869306292
0.294000000000000150,-21.618964957658008075
0.295000000000000151,-21.728497190291523822
0.296000000000000152,-21.831609256472997771
0.297000000000000153,-21.928554050599224468
0.298000000000000154,-22.019574540569411880
0.299000000000000155,-22.104903750262220541
0.300000000000000155,-22.184764781734529038
0.301000000000000156,-22.259370874219133185
0.302000000000000157,-22.328925497037968029
0.303000000000000158,-22.393622473599741340
0.304000000000000159,-22.453646133716240740
0.305000000000000160,-22.509171491546002386
0.306000000000000161,-22.560364446558661911
0.307000000000000162,-22.607382005004019732
0.308000000000000163,-22.650372519467254051
0.309000000000000163,-22.689475944194192891
0.310000000000000164,-22.724824103976040135
0.311000000000000165,-22.756540974491802132
0.312000000000000166,-22.784742972116923454
0.313000000000000167,-22.809539251318021513
0.314000000000000168,-22.831032007865125877
0.315000000000000169,-22.849316786203651475
0.316000000000000170,-22.864482789438930865
0.317000000000000171,-22.876613190493475969
0.318000000000000171,-22.885785443104328607
0.319000000000000172,-22.892071591431324862
0.320000000000000173,-22.895538577147942050
0.321000000000000174,-22.896248542984526608
0.322000000000000175,-22.894259131788246009
0.323000000000000176,-22.889623780255011098
0.324000000000000177,-22.882392006576132815
0.325000000000000178,-22.872609691325699544
0.326000000000000179,-22.860319350994814158
0.327000000000000179,-22.845560403653980330
0.328000000000000180,-22.828369426296980294
0.329000000000000181,-22.808780403487610045
0.330000000000000182,-22.786824966993613373
0.331000000000000183,-22.762532626153365811
0.332000000000000184,-22.735930988775834294
0.333000000000000185,-22.707045972427394531
0.334000000000000186,-22.675902006007536471
0.335000000000000187,-22.642522221560533069
0.336000000000000187,-22.606928636312225933
0.337000000000000188,-22.569142324958544776
0.338000000000000189,-22.529183582268508701
0.339000000000000190,-22.487072076095632411
0.340000000000000191,-22.442826990920885066
0.341000000000000192,-22.396467162076817203
0.342000000000000193,-22.348011200825393274
0.343000000000000194,-22.297477610483539934
0.344000000000000195,-22.244884893808187343
0.345000000000000195,-22.190251651869548510
0.346000000000000196,-22.133596674654462788
0.347000000000000197,-22.074939023654287951
0.348000000000000198,-22.014298106701389202
0.349000000000000199,-21.951693745326572582
0.350000000000000200,-21.887146234916471599
0.351000000000000201,-21.820676397954709813
0.352000000000000202,-21.752305630634168665
0.353000000000000203,-21.682055943130066566
0.354000000000000203,-21.609949993824379533
0.355000000000000204,-21.536011117771796108
0.356000000000000205,-21.460263349696507618
0.357000000000000206,-21.382731441806946293
0.358000000000000207,-21.303440876711981389
0.359000000000000208,-21.222417875719337133
0.360000000000000209,-21.139689402791589146
0.361000000000000210,-21.055283164430420584
0.362000000000000210,-20.969227605754216626
0.363000000000000211,-20.881551903027677497
0.364000000000000212,-20.792285952895973367
0.365000000000000213,-20.701460358568610332
0.366000000000000214,-20.609106413191376816
0.367000000000000215,-20.515256080636966374
0.368000000000000216,-20.419941973937490332
0.369000000000000217,-20.323197331573844338
0.370000000000000218,-20.225055991829570701
0.371000000000000218,-20.125552365408040600
0.372000000000000219,-20.024721406504390586
0.373000000000000220,-19.922598582515139043
0.374000000000000221,-19.819219842560485745
0.375000000000000222,-19.714621584986090852
0.376000000000000223,-19.608840624003402553
0.377000000000000224,-19.501914155619466840
0.378000000000000225,-19.393879722999368909
0.379000000000000226,-19.284775181397005639
0.380000000000000226,-19.174638662782115262
0.381000000000000227,-19.063508540284132664
0.382000000000000228,-18.951423392566475457
0.383000000000000229,-18.838421968237419435
0.384000000000000230,-18.724543150397217062
0.385000000000000231,-18.609825921414248739
0.386000000000000232,-18.494309328016662164
0.387000000000000233,-18.378032446779478448
0.388000000000000234,-18.261034350081349231
0.389000000000000234,-18.143354072599187532
0.390000000000000235,-18.025030578403072212
0.391000000000000236,-17.906102728708805927
0.392000000000000237,-17.786609250339900257
0.393000000000000238,-17.666588704946043720
0.394000000000000239,-17.546079459020109681
0.395000000000000240,-17.425119654751366483
0.396000000000000241,-17.303747181748132533
0.397000000000000242,-17.181999649658770579
0.398000000000000242,-17.059914361716344899
0.399000000000000243,-16.937528289228122702
0.400000000000000244,-16.814878047027679742
0.401000000000000245,-16.691999869904122988
0.402000000000000246,-16.568929590019564557
0.403000000000000247,-16.445702615322918660
0.404000000000000248,-16.322353908965624214
0.405000000000000249,-16.198917969721797760
0.406000000000000250,-16.075428813413118689
0.407000000000000250,-15.951919955336247625
0.408000000000000251,-15.828424393688512950
0.409000000000000252,-15.704974593985582487
0.410000000000000253,-15.581602474462732388
0.411000000000000254,-15.458339392450019645
0.412000000000000255,-15.335216131709483278
0.413000000000000256,-15.212262890721660824
0.414000000000000257,-15.089509271906688781
0.415000000000000258,-14.966984271764667724
0.416000000000000258,-14.844716271918281691
0.417000000000000259,-14.722733031040096563
0.418000000000000260,-14.601061677645736481
0.419000000000000261,-14.479728703733517392
0.420000000000000262,-14.358759959250273042
0.421000000000000263,-14.238180647362693065
0.422000000000000264,-14.118015320512574462
0.423000000000000265,-13.998287877234247389
0.424000000000000266,-13.879021559712118261
0.425000000000000266,-13.760238952055477313
0.426000000000000267,-13.641961979268021565
0.427000000000000268,-13.524211906889032520
0.428000000000000269,-13.407009341283060877
0.429000000000000270,-13.290374230555098478
0.430000000000000271,-13.174325866067865931
0.431000000000000272,-13.058882884538231650
0.432000000000000273,-12.944063270689529332
0.433000000000000274,-12.829884360437020518
0.434000000000000274,-12.716362844583446901
0.435000000000000275,-12.603514773002315152
0.436000000000000276,-12.491355559286461130
0.437000000000000277,-12.379899985839648124
0.438000000000000278,-12.269162209389639528
0.439000000000000279,-12.159155766901047713
0.440000000000000280,-12.049893581866816916
0.441000000000000281,-11.941387970957592302
0.442000000000000282,-11.833650651008591481
0.443000000000000282,-11.726692746323738703
0.444000000000000283,-11.620524796277701185
0.445000000000000284,-11.515156763196481293
0.446000000000000285,-11.410598040497747618
0.447000000000000286,-11.306857461072851834
0.448000000000000287,-11.203943305892305915
0.449000000000000288,-11.101863312817691565
0.450000000000000289,-11.000624685602788944
0.451000000000000290,-10.900234103067608871
0.452000000000000290,-10.800697728429332400
0.453000000000000291,-10.702021218774639522
0.454000000000000292,-10.604209734658372355
0.455000000000000293,-10.507267949814020014
0.456000000000000294,-10.411200060961963487
0.457000000000000295,-10.316009797701855888
0.458000000000000296,-10.221700432476017895
0.459000000000000297,-10.128274790591229149
0.460000000000000298,-10.035735260286639203
0.461000000000000298,-9.944083802836241048
0.462000000000000299,-9.853321962674462142
0.463000000000000300,-9.763450877534101124
0.464000000000000301,-9.674471288586293127
0.465000000000000302,-9.586383550572573853
0.466000000000000303,-9.499187641919382585
0.467000000000000304,-9.412883174826102817
0.468000000000000305,-9.327469405317849294
0.469000000000000306,-9.242945243254778731
0.470000000000000306,-9.159309262290147302
0.471000000000000307,-9.076559709769384199
0.472000000000000308,-8.994694516563459530
0.473000000000000309,-8.913711306829465997
0.474000000000000310,-8.833607407692356972
0.475000000000000311,-8.754379858841558004
0.476000000000000312,-8.676025422037177748
0.477000000000000313,-8.598540590520075355
0.478000000000000314,-8.521921598321080538
0.479000000000000314,-8.446164429464683820
0.480000000000000315,-8.371264827062683267
0.481000000000000316,-8.297218302293909886
0.482000000000000317,-8.224020143266137950
0.483000000000000318,-8.151665423756773166
0.484000000000000319,-8.080149011829048433
0.485000000000000320,-8.009465578320890344
0.486000000000000321,-7.939609605203626685
0.487000000000000322,-7.870575393808216802
0.488000000000000322,-7.802357072916659142
0.489000000000000323,-7.734948606716843145
0.490000000000000324,-7.668343802618794669
0.491000000000000325,-7.602536318931031545
0.492000000000000326,-7.537519672395495363
0.493000000000000327,-7.473287245580110039
0.494000000000000328,-7.409832294127843610
0.495000000000000329,-7.347147953861645320
0.496000000000000330,-7.285227247744552770
0.497000000000000330,-7.224063092694668953
0.498000000000000331,-7.163648306254570386
0.499000000000000332,-7.103975613115226295
0.500000000000000333,-7.045037651494311604
0.501000000000000334,-6.986826979369118007
0.502000000000000335,-6.929336080564399758
0.503000000000000336,-6.872557370695558276
0.504000000000000337,-6.816483202967697608
0.505000000000000338,-6.761105873831181334
0.506000000000000338,-6.706417628494567573
0.507000000000000339,-6.652410666295622832
0.508000000000000340,-6.599077145931484090
0.509000000000000341,-6.546409190549051793
0.510000000000000342,-6.494398892696613856
0.511000000000000343,-6.443038319138045367
0.512000000000000344,-6.392319515530809682
0.513000000000000345,-6.342234510969114503
0.514000000000000346,-6.292775322393723059
0.515000000000000346,-6.243933958869823719
0.516000000000000347,-6.195702425734493701
0.517000000000000348,-6.148072728615511906
0.518000000000000349,-6.101036877322895791
0.519000000000000350,-6.054586889615119816
0.520000000000000351,-6.008714794841575113
0.521000000000000352,-5.963412637463106236
0.522000000000000353,-5.918672480452430662
0.523000000000000353,-5.874486408576177432
0.524000000000000354,-5.830846531560604618
0.525000000000000355,-5.787744987142650288
0.526000000000000356,-5.745173944008351796
0.527000000000000357,-5.703125604620582934
0.528000000000000358,-5.661592207937916399
0.529000000000000359,-5.620566032026701464
0.530000000000000360,-5.580039396568230892
0.531000000000000361,-5.540004665263010608
0.532000000000000361,-5.500454248134071022
0.533000000000000362,-5.461380603731364580
0.534000000000000363,-5.422776241239157358
0.535000000000000364,-5.384633722488432639
0.536000000000000365,-5.346945663876304877
0.537000000000000366,-5.309704738194394480
0.538000000000000367,-5.272903676368086323
0.539000000000000368,-5.236535269108806290
0.540000000000000369,-5.200592368481008698
0.541000000000000369,-5.165067889386076416
0.542000000000000370,-5.129954810964911793
0.543000000000000371,-5.095246177921157305
0.544000000000000372,-5.060935101767027433
0.545000000000000373,-5.027014761993578773
0.546000000000000374,-4.993478407167274646
0.547000000000000375,-4.960319355954773357
0.548000000000000376,-4.927530998077758184
0.549000000000000377,-4.895106795199614780
0.550000000000000377,-4.863040281745719007
0.551000000000000378,-4.831325065659227036
0.552000000000000379,-4.799954829094040143
0.553000000000000380,-4.768923329046723225
0.554000000000000381,-4.738224397929043263
0.555000000000000382,-4.707851944082949380
0.556000000000000383,-4.677799952239474202
0.557000000000000384,-4.648062483923411037
0.558000000000000385,-4.618633677805222604
0.559000000000000385,-4.589507750001908803
0.560000000000000386,-4.560678994328293712
0.561000000000000387,-4.532141782500405114
0.562000000000000388,-4.503890564292359677
0.563000000000000389,-4.475919867648340933
0.564000000000000390,-4.448224298751076944
0.565000000000000391,-4.420798542048329338
0.566000000000000392,-4.393637360238752620
0.567000000000000393,-4.366735594218606131
0.568000000000000393,-4.340088162990577203
0.569000000000000394,-4.313690063536166797
0.570000000000000395,-4.287536370652918372
0.571000000000000396,-4.261622236757733440
0.572000000000000397,-4.235942891657673570
0.573000000000000398,-4.210493642289299565
0.574000000000000399,-4.185269872427999083
0.575000000000000400,-4.160267042368243295
0.576000000000000401,-4.135480688576146591
0.577000000000000401,-4.110906423315384473
0.578000000000000402,-4.086539934247548800
0.579000000000000403,-4.062376984008078118
0.580000000000000404,-4.038413409758881301
0.581000000000000405,-4.014645122718560444
0.582000000000000406,-3.991068107671380094
0.583000000000000407,-3.967678422455900744
0.584000000000000408,-3.944472197434284677
0.585000000000000409,-3.921445634943196978
0.586000000000000409,-3.898595008727223643
0.587000000000000410,-3.875916663355754910
0.588000000000000411,-3.853407013624111865
0.589000000000000412,-3.831062543939903975
0.590000000000000413,-3.808879807695308095
0.591000000000000414,-3.786855426626183796
0.592000000000000415,-3.764986090158798593
0.593000000000000416,-3.743268554744861198
0.594000000000000417,-3.721699643185674145
0.595000000000000417,-3.700276243946183818
0.596000000000000418,-3.678995310459428847
0.597000000000000419,-3.657853860422368264
0.598000000000000420,-3.636848975083465607
0.599000000000000421,-3.615977798522882924
0.600000000000000422,-3.595237536925806499
0.601000000000000423,-3.574625457849548660
0.602000000000000424,-3.554138889485019881
0.603000000000000425,-3.533775219913096954
0.604000000000000425,-3.513531896356533846
0.605000000000000426,-3.493406424427823787
0.606000000000000427,-3.473396367373712046
0.607000000000000428,-3.453499345316584090
