# CNT15-COOH-30_SYRINGYL-AC
# h[nm],U(h)[kJ/mol]
0.149999999999999994,184.297725374933406783
0.150999999999999995,180.905688913606468304
0.151999999999999996,178.970999534715502932
0.152999999999999997,177.215164248445177009
0.153999999999999998,175.229472275612948806
0.154999999999999999,172.989061718314559357
0.156000000000000000,170.600265103945588407
0.157000000000000001,168.181783478224218698
0.158000000000000002,165.818845759133012052
0.159000000000000002,163.554199682657696258
0.160000000000000003,161.395284434615462033
0.161000000000000004,159.326448626168684086
0.162000000000000005,157.320741159502375695
0.163000000000000006,155.349036626835555808
0.164000000000000007,153.385992176547631516
0.165000000000000008,151.413171161806587861
0.166000000000000009,149.419992769487123496
0.167000000000000010,147.403213831483213880
0.168000000000000010,145.365562518718434148
0.169000000000000011,143.314006634350420200
0.170000000000000012,141.257996941882680630
0.171000000000000013,139.207900492831129213
0.172000000000000014,137.173738818609479040
0.173000000000000015,135.164272177115662998
0.174000000000000016,133.186421073771555257
0.175000000000000017,131.244985734793203846
0.176000000000000018,129.342608531184055209
0.177000000000000018,127.479919335721433526
0.178000000000000019,125.655805900410655340
0.179000000000000020,123.867757763672216242
0.180000000000000021,122.112240830413583126
0.181000000000000022,120.385069118249433018
0.182000000000000023,118.681749231345676776
0.183000000000000024,116.997781299090888751
0.184000000000000025,115.328907078111228657
0.185000000000000026,113.671301546278783690
0.186000000000000026,112.021708637575713396
0.187000000000000027,110.377524884367105074
0.188000000000000028,108.736836803698793119
0.189000000000000029,107.098419061500294447
0.190000000000000030,105.461700948925866328
0.191000000000000031,103.826708673487857482
0.192000000000000032,102.193990551145532208
0.193000000000000033,100.564531509892447048
0.194000000000000034,98.939662484343244842
0.195000000000000034,97.320969376835009257
0.196000000000000035,95.710205346758172595
0.197000000000000036,94.109209312356924215
0.198000000000000037,92.519832739856283865
0.199000000000000038,90.943876073430672591
0.200000000000000039,89.383035536773022045
0.201000000000000040,87.838860516147903468
0.202000000000000041,86.312721313739658058
0.203000000000000042,84.805786732973089670
0.204000000000000042,83.319010715922871668
0.205000000000000043,81.853127087132861561
0.206000000000000044,80.408651357670606785
0.207000000000000045,78.985888497550519105
0.208000000000000046,77.584945583670702263
0.209000000000000047,76.205748264722359409
0.210000000000000048,74.848060045639030591
0.211000000000000049,73.511503474535828673
0.212000000000000050,72.195582408252533924
0.213000000000000050,70.899704633081753968
0.214000000000000051,69.623204220511951235
0.215000000000000052,68.365363100222623416
0.216000000000000053,67.125431431311554320
0.217000000000000054,65.902646445698067623
0.218000000000000055,64.696249523341322174
0.219000000000000056,63.505501336364503118
0.220000000000000057,62.329694967845817644
0.221000000000000058,61.168166970756793432
0.222000000000000058,60.020306383383697835
0.223000000000000059,58.885561759896610567
0.224000000000000060,57.763446309003619206
0.225000000000000061,56.653541260447148886
0.226000000000000062,55.555497599135534870
0.227000000000000063,54.469036320663882123
0.228000000000000064,53.393947370591931190
0.229000000000000065,52.330087433822903620
0.230000000000000066,51.277376740464077898
0.231000000000000066,50.235795051295397684
0.232000000000000067,49.205376980039346790
0.233000000000000068,48.186206801571429992
0.234000000000000069,47.178412885537454713
0.235000000000000070,46.182161884004123920
0.236000000000000071,45.197652790155643743
0.237000000000000072,44.225110973001129366
0.238000000000000073,43.264782280870761610
0.239000000000000073,42.316927294393899217
0.240000000000000074,41.381815797869577978
0.241000000000000075,40.459721526624171872
0.242000000000000076,39.550917237223401912
0.243000000000000077,38.655670137362328376
0.244000000000000078,37.774237702963951335
0.245000000000000079,36.906863901514569193
0.246000000000000080,36.053775832976299398
0.247000000000000081,35.215180792744405380
0.248000000000000081,34.391263755052690954
0.249000000000000082,33.582185269949775375
0.250000000000000111,32.788079762441370235
0.251000000000000112,32.009054218580772044
0.252000000000000113,31.245187240146414354
0.253000000000000114,30.496528447026882702
0.254000000000000115,29.763098204485277876
0.255000000000000115,29.044887651051020327
0.256000000000000116,28.341859001832904852
0.257000000000000117,27.653946101513195543
0.258000000000000118,26.981055201122227771
0.259000000000000119,26.323065932855751470
0.260000000000000120,25.679832457640213050
0.261000000000000121,25.051184760834399157
0.262000000000000122,24.436930072335393049
0.263000000000000123,23.836854388401697236
0.264000000000000123,23.250724073679286619
0.265000000000000124,22.678287523189833763
0.266000000000000125,22.119276865385373299
0.267000000000000126,21.573409688767355874
0.268000000000000127,21.040390775987376060
0.269000000000000128,20.519913830774161312
0.270000000000000129,20.011663184449883346
0.271000000000000130,19.515315470193225877
0.272000000000000131,19.030541254567289400
0.273000000000000131,18.557006617145212601
0.274000000000000132,18.094374670328349453
0.275000000000000133,17.642307012654278253
0.276000000000000134,17.200465110029604432
0.277000000000000135,16.768511600393043892
0.278000000000000136,16.346111518312461897
0.279000000000000137,15.932933436947660510
0.280000000000000138,15.528650525665829818
0.281000000000000139,15.132941522378885679
0.282000000000000139,14.745491620384893139
0.283000000000000140,14.365993270137877857
0.284000000000000141,13.994146896946142888
0.285000000000000142,13.629661536109853870
0.286000000000000143,13.272255387457169817
0.287000000000000144,12.921656291628409008
0.288000000000000145,12.577602130790975110
0.289000000000000146,12.239841156750312479
0.290000000000000147,11.908132249653643697
0.291000000000000147,11.582245110671141930
0.292000000000000148,11.261960392183116397
0.293000000000000149,10.947069769108427550
0.294000000000000150,10.637375955079395595
0.295000000000000151,10.332692667206924142
0.296000000000000152,10.032844543188442543
0.297000000000000153,9.737667014494549633
0.298000000000000154,9.447006139329488406
0.299000000000000155,9.160718398999994960
0.300000000000000155,8.878670461247960333
0.301000000000000156,8.600738914008200453
0.302000000000000157,8.326809972944149152
0.303000000000000158,8.056779165996285741
0.304000000000000159,7.790550998048844988
0.305000000000000160,7.528038598685519389
0.306000000000000161,7.269163355862891862
0.307000000000000162,7.013854538184796539
0.308000000000000163,6.762048908312236151
0.309000000000000163,6.513690329893284670
0.310000000000000164,6.268729370246552968
0.311000000000000165,6.027122900881695777
0.312000000000000166,5.788833697791548438
0.313000000000000167,5.553830043303847219
0.314000000000000168,5.322085331136719333
0.315000000000000169,5.093577676161784140
0.316000000000000170,4.868289530242255303
0.317000000000000171,4.646207305381648389
0.318000000000000171,4.427321005291419809
0.319000000000000172,4.211623866363435553
0.320000000000000173,3.999112008916635652
0.321000000000000174,3.789784099475471013
0.322000000000000175,3.583641024731776703
0.323000000000000176,3.380685577741454839
0.324000000000000177,3.180922156812482804
0.325000000000000178,2.984356477451926448
0.326000000000000179,2.790995297655681995
0.327000000000000179,2.600846156747249616
0.328000000000000180,2.413917127898783654
0.329000000000000181,2.230216584400651847
0.330000000000000182,2.049752979683684195
0.331000000000000183,1.872534641040940695
0.332000000000000184,1.698569576943958381
0.333000000000000185,1.527865297800677258
0.334000000000000186,1.360428649959213088
0.335000000000000187,1.196265662723025258
0.336000000000000187,1.035381408108106083
0.337000000000000188,0.877779873042657477
0.338000000000000189,0.723463843681995789
0.339000000000000190,0.572434801488445388
0.340000000000000191,0.424692830705745983
0.341000000000000192,0.280236536840210326
0.342000000000000193,0.139062975746977902
0.343000000000000194,0.001167592908065274
0.344000000000000195,-0.133455827519361858
0.345000000000000195,-0.264815204313503805
0.346000000000000196,-0.392920191889396919
0.347000000000000197,-0.517782204526634038
0.348000000000000198,-0.639414432558454537
0.349000000000000199,-0.757831850956265152
0.350000000000000200,-0.873051220740628464
0.351000000000000201,-0.985091083645519783
0.352000000000000202,-1.093971750456952385
0.353000000000000203,-1.199715283440449198
0.354000000000000203,-1.302345473264082898
0.355000000000000204,-1.401887810814876234
0.356000000000000205,-1.498369454297216352
0.357000000000000206,-1.591819191991709959
0.358000000000000207,-1.682267401041736221
0.359000000000000208,-1.769746002624266623
0.360000000000000209,-1.854288413849486616
0.361000000000000210,-1.935929496721622511
0.362000000000000210,-2.014705504481409726
0.363000000000000211,-2.090654025637776581
0.364000000000000212,-2.163813925983953723
0.365000000000000213,-2.234225288880258287
0.366000000000000214,-2.301929354073237288
0.367000000000000215,-2.366968455307953079
0.368000000000000216,-2.429385956977796912
0.369000000000000217,-2.489226190043248188
0.370000000000000218,-2.546534387439088221
0.371000000000000218,-2.601356619176814711
0.372000000000000219,-2.653739727337452337
0.373000000000000220,-2.703731261137879649
0.374000000000000221,-2.751379412242307421
0.375000000000000222,-2.796732950479135837
0.376000000000000223,-2.839841160112934304
0.377000000000000224,-2.880753776809906963
0.378000000000000225,-2.919520925425406865
0.379000000000000226,-2.956193058731707790
0.380000000000000226,-2.990820897194883088
0.381000000000000227,-3.023455369899777700
0.382000000000000228,-3.054147556713658673
0.383000000000000229,-3.082948631769999004
0.384000000000000230,-3.109909808345708182
0.385000000000000231,-3.135082285197364094
0.386000000000000232,-3.158517194413943407
0.387000000000000233,-3.180265550836821387
0.388000000000000234,-3.200378203090392226
0.389000000000000234,-3.218905786260491730
0.390000000000000235,-3.235898676251301342
0.391000000000000236,-3.251406945845597640
0.392000000000000237,-3.265480322487593234
0.393000000000000238,-3.278168147802401400
0.394000000000000239,-3.289519338860996900
0.395000000000000240,-3.299582351195164076
0.396000000000000241,-3.308405143562262563
0.397000000000000242,-3.316035144455676154
0.398000000000000242,-3.322519220353062686
0.399000000000000243,-3.327903645690720502
0.400000000000000244,-3.332234074549349945
0.401000000000000245,-3.335555514033360591
0.402000000000000246,-3.337912299322814302
0.403000000000000247,-3.339348070374965172
0.404000000000000248,-3.339905750249569483
0.405000000000000249,-3.339627525030226085
0.406000000000000250,-3.338554825311939034
0.407000000000000250,-3.336728309223413014
0.408000000000000251,-3.334187846950960044
0.409000000000000252,-3.330972506729488636
0.410000000000000253,-3.327120542264900394
0.411000000000000254,-3.322669381551019541
0.412000000000000255,-3.317655617043318905
0.413000000000000256,-3.312114997151019313
0.414000000000000257,-3.306082419008224527
0.415000000000000258,-3.299591922484604201
0.416000000000000258,-3.292676685395375724
0.417000000000000259,-3.285369019870322038
0.418000000000000260,-3.277700369841225925
0.419000000000000261,-3.269701309607170092
0.420000000000000262,-3.261401543436957873
0.421000000000000263,-3.252829906168295704
0.422000000000000264,-3.244014364763219138
0.423000000000000265,-3.234982020779775702
0.424000000000000266,-3.225759113720245264
0.425000000000000266,-3.216371025216323343
0.426000000000000267,-3.206842284012551225
0.427000000000000268,-3.197196571709409518
0.428000000000000269,-3.187456729228206775
0.429000000000000270,-3.177644763960553398
0.430000000000000271,-3.167781857565595605
0.431000000000000272,-3.157888374379198115
0.432000000000000273,-3.147983870399611028
0.433000000000000274,-3.138087102815204421
0.434000000000000274,-3.128216040040351587
0.435000000000000275,-3.118387872226510371
0.436000000000000276,-3.108619022216255079
0.437000000000000277,-3.098925156908813427
0.438000000000000278,-3.089321199006565877
0.439000000000000279,-3.079821339112771561
0.440000000000000280,-3.070439048151548000
0.441000000000000281,-3.061187090082114981
0.442000000000000282,-3.052077534880172749
0.443000000000000282,-3.043121771759891736
0.444000000000000283,-3.034330522611299763
0.445000000000000284,-3.025713855628243909
0.446000000000000285,-3.017281199103220235
0.447000000000000286,-3.009041355366294912
0.448000000000000287,-3.001002514845806157
0.449000000000000288,-2.993172270229876641
0.450000000000000289,-2.985557630708104426
0.451000000000000290,-2.978165036273989763
0.452000000000000290,-2.971000372069305229
0.453000000000000291,-2.964068982752319670
0.454000000000000292,-2.957375686872808274
0.455000000000000293,-2.950924791237321543
0.456000000000000294,-2.944720105249049258
0.457000000000000295,-2.938764955207422425
0.458000000000000296,-2.933062198553089139
0.459000000000000297,-2.927614238044921713
0.460000000000000298,-2.922423035856134721
0.461000000000000298,-2.917490127577475612
0.462000000000000299,-2.912816636115949542
0.463000000000000300,-2.908403285478288414
0.464000000000000301,-2.904250414429015770
0.465000000000000302,-2.900357990013488596
0.466000000000000303,-2.896725620936904111
0.467000000000000304,-2.893352570790987510
0.468000000000000305,-2.890237771120381272
0.469000000000000306,-2.887379834321515126
0.470000000000000306,-2.884777066367255838
0.471000000000000307,-2.882427479350889055
0.472000000000000308,-2.880328803843867469
0.473000000000000309,-2.878478501061958017
0.474000000000000310,-2.876873774834922681
0.475000000000000311,-2.875511583375431890
0.476000000000000312,-2.874388650843230586
0.477000000000000313,-2.873501478701000700
0.478000000000000314,-2.872846356858778982
0.479000000000000314,-2.872419374604243458
0.480000000000000315,-2.872216431316333196
0.481000000000000316,-2.872233246960333553
0.482000000000000317,-2.872465372362571934
0.483000000000000318,-2.872908199263437545
0.484000000000000319,-2.873556970147620238
0.485000000000000320,-2.874406787850778855
0.486000000000000321,-2.875452624942179902
0.487000000000000322,-2.876689332883066275
0.488000000000000322,-2.878111650960714307
0.489000000000000323,-2.879714214998601030
0.490000000000000324,-2.881491565843046665
0.491000000000000325,-2.883438157627127296
0.492000000000000326,-2.885548365812736105
0.493000000000000327,-2.887816495012004214
0.494000000000000328,-2.890236786589297502
0.495000000000000329,-2.892803426045359227
0.496000000000000330,-2.895510550185158571
0.497000000000000330,-2.898352254071412837
0.498000000000000331,-2.901322597765497502
0.499000000000000332,-2.904415612858085360
0.500000000000000333,-2.907625308791589980
0.501000000000000334,-2.910945678976720963
0.502000000000000335,-2.914370706705736502
0.503000000000000336,-2.917894370864789533
0.504000000000000337,-2.921510651448139928
0.505000000000000338,-2.925213534876834665
0.506000000000000338,-2.928997019124793155
0.507000000000000339,-2.932855118655083082
0.508000000000000340,-2.936781869169345693
0.509000000000000341,-2.940771332173469865
0.510000000000000342,-2.944817599362414384
0.511000000000000343,-2.948914796827455831
0.512000000000000344,-2.953057089088863219
0.513000000000000345,-2.957238682957268328
0.514000000000000346,-2.961453831226971811
0.515000000000000346,-2.965696836204318565
0.516000000000000347,-2.969962053074493902
0.517000000000000348,-2.974243893110029013
0.518000000000000349,-2.978536826724212716
0.519000000000000350,-2.982835386372837849
0.520000000000000351,-2.987134169307447351
0.521000000000000352,-2.991427840183551901
0.522000000000000353,-2.995711133526929082
0.523000000000000353,-2.999978856061470189
0.524000000000000354,-3.004225888901758346
0.525000000000000355,-3.008447189613717487
0.526000000000000356,-3.012637794146489245
0.527000000000000357,-3.016792818638933227
0.528000000000000358,-3.020907461103823799
0.529000000000000359,-3.024977002993047837
0.530000000000000360,-3.028996810646884530
0.531000000000000361,-3.032962336630602884
0.532000000000000361,-3.036869120961434909
0.533000000000000362,-3.040712792229023798
0.534000000000000363,-3.044489068612401983
0.535000000000000364,-3.048193758796544195
0.536000000000000365,-3.051822762791407850
0.537000000000000366,-3.055372072656521887
0.538000000000000367,-3.058837773133866289
0.539000000000000368,-3.062216042192130949
0.540000000000000369,-3.065503151484954447
0.541000000000000369,-3.068695466726123477
0.542000000000000370,-3.071789447984318855
0.543000000000000371,-3.074781649900240055
0.544000000000000372,-3.077668721828689780
0.545000000000000373,-3.080447407908263990
0.546000000000000374,-3.083114547061207134
0.547000000000000375,-3.085667072925947885
0.548000000000000376,-3.088102013724845385
0.549000000000000377,-3.090416492069504528
0.550000000000000377,-3.092607724706128547
0.551000000000000378,-3.094673022203155988
0.552000000000000379,-3.096609788583600587
0.553000000000000380,-3.098415520904223008
0.554000000000000381,-3.100087808783793086
0.555000000000000382,-3.101624333882655460
0.556000000000000383,-3.103022869335553935
0.557000000000000384,-3.104281279139977201
0.558000000000000385,-3.105397517501857330
0.559000000000000385,-3.106369628140725148
0.560000000000000386,-3.107195743556201872
0.561000000000000387,-3.107874084257696179
0.562000000000000388,-3.108402957959135016
0.563000000000000389,-3.108780758740608441
0.564000000000000390,-3.109005966178539193
0.565000000000000391,-3.109077144446186658
0.566000000000000392,-3.108992941386101272
0.567000000000000393,-3.108752087556170274
0.568000000000000393,-3.108353395250788243
0.569000000000000394,-3.107795757498716505
0.570000000000000395,-3.107078147039160410
0.571000000000000396,-3.106199615277378534
0.572000000000000397,-3.105159291221438966
0.573000000000000398,-3.103956380401275084
0.574000000000000399,-3.102590163771549392
0.575000000000000400,-3.101059996599497381
0.576000000000000401,-3.099365307339033038
0.577000000000000401,-3.097505596492411861
0.578000000000000402,-3.095480435460494117
0.579000000000000403,-3.093289465382811354
0.580000000000000404,-3.090932395968626789
0.581000000000000405,-3.088409004319864870
0.582000000000000406,-3.085719133747160114
0.583000000000000407,-3.082862692579845021
0.584000000000000408,-3.079839652970965957
0.585000000000000409,-3.076650049698209433
0.586000000000000409,-3.073293978961622486
0.587000000000000410,-3.069771597179081102
0.588000000000000411,-3.066083119780203425
0.589000000000000412,-3.062228819999705642
0.590000000000000413,-3.058209027670778735
0.591000000000000414,-3.054024128019384499
0.592000000000000415,-3.049674560460156947
0.593000000000000416,-3.045160817394532593
0.594000000000000417,-3.040483443011855247
0.595000000000000417,-3.035643032094127669
0.596000000000000418,-3.030640228824841298
0.597000000000000419,-3.025475725602738475
0.598000000000000420,-3.020150261860810037
0.599000000000000421,-3.014664622891267687
0.600000000000000422,-3.009019638676892150
0.601000000000000423,-3.003216182729263828
0.602000000000000424,-2.997255170934413293
0.603000000000000425,-2.991137560406259333
0.604000000000000425,-2.984864348348279073
0.605000000000000426,-2.978436570923850280
0.606000000000000427,-2.971855302135659738
0.607000000000000428,-2.965121652714389988
0.608000000000000429,-2.958236769017343004
0.609000000000000430,-2.951201831936935971
0.610000000000000431,-2.944018055819733970
0.611000000000000432,-2.936686687396079964
0.612000000000000433,-2.929209004720660481
0.613000000000000433,-2.921586316124339167
