# SiO2-Quartz_TYRSCA-JS
# h[nm],U(h)[kJ/mol]
0.149999999999999994,132.424713778163436473
0.150999999999999995,129.618813967450734026
0.151999999999999996,127.344913486210344900
0.152999999999999997,125.214609096911544839
0.153999999999999998,123.076812520530239681
0.154999999999999999,120.897942289807900806
0.156000000000000000,118.694028996302591850
0.157000000000000001,116.494775012236033263
0.158000000000000002,114.326603171404570958
0.159000000000000002,112.206441501092584190
0.160000000000000003,110.141126764060317100
0.161000000000000004,108.129363954989301533
0.162000000000000005,106.164499089585859792
0.163000000000000006,104.237190108663781984
0.164000000000000007,102.337562235596607252
0.165000000000000008,100.456723787890382482
0.166000000000000009,98.587673525509472938
0.167000000000000010,96.725702777333680160
0.168000000000000010,94.868418810363309035
0.169000000000000011,93.015512107723139934
0.170000000000000012,91.168373157932705908
0.171000000000000013,89.329642351820197632
0.172000000000000014,87.502754399961673926
0.173000000000000015,85.691518811290876556
0.174000000000000016,83.899761488651307673
0.175000000000000017,82.131039636968992568
0.176000000000000018,80.388432717209511225
0.177000000000000018,78.674405660272782370
0.178000000000000019,76.990736444516173265
0.179000000000000020,75.338497907894620198
0.180000000000000021,73.718082829767368480
0.181000000000000022,72.129261467553774878
0.182000000000000023,70.571261534661005044
0.183000000000000024,69.042861795837140448
0.184000000000000025,67.542491836204334277
0.185000000000000026,66.068331987342389766
0.186000000000000026,64.618408769308601336
0.187000000000000027,63.190682468158492213
0.188000000000000028,61.783124578199263510
0.189000000000000029,60.393783780732931632
0.190000000000000030,59.020839904552303778
0.191000000000000031,57.662645925714912210
0.192000000000000032,56.317758528995263134
0.193000000000000033,54.984958088133488729
0.194000000000000034,53.663259145207007350
0.195000000000000034,52.351912599797536529
0.196000000000000035,51.050400873852375128
0.197000000000000036,49.758427314475184744
0.198000000000000037,48.475901048737753740
0.199000000000000038,47.202918424439737066
0.200000000000000039,45.939742069067861507
0.201000000000000040,44.686778484676374035
0.202000000000000041,43.444554975984679857
0.203000000000000042,42.213696588101882412
0.204000000000000042,40.994903613050574620
0.205000000000000043,39.788930113658516063
0.206000000000000044,38.596563811441995995
0.207000000000000045,37.418607593087031660
0.208000000000000046,36.255862808673285258
0.209000000000000047,35.109114464038235326
0.210000000000000048,33.979118349423231393
0.211000000000000049,32.866590096296349088
0.212000000000000050,31.772196113325527733
0.213000000000000050,30.696546320090373428
0.214000000000000051,29.640188572401143574
0.215000000000000052,28.603604655152150116
0.216000000000000053,27.587207706592597134
0.217000000000000054,26.591340930898553552
0.218000000000000055,25.616277453173420753
0.219000000000000056,24.662221171750807969
0.220000000000000057,23.729308466241043618
0.221000000000000058,22.817610625555410309
0.222000000000000058,21.927136867610336424
0.223000000000000059,21.057837831104968984
0.224000000000000060,20.209609429265874780
0.225000000000000061,19.382296965429048896
0.226000000000000062,18.575699420494409253
0.227000000000000063,17.789573832409661946
0.228000000000000064,17.023639697732704690
0.229000000000000065,16.277583334835696860
0.230000000000000066,15.551062157342721903
0.231000000000000066,14.843708814852330846
0.232000000000000067,14.155135165835819322
0.233000000000000068,13.484936054787208803
0.234000000000000069,12.832692872220032854
0.235000000000000070,12.197976881959327500
0.236000000000000071,11.580352305379303601
0.237000000000000072,10.979379156808438012
0.238000000000000073,10.394615828296961624
0.239000000000000073,9.825621425350838933
0.240000000000000074,9.271957858117099605
0.241000000000000075,8.733191694904059332
0.242000000000000076,8.208895786872968614
0.243000000000000077,7.698650674288801454
0.244000000000000078,7.202045785909346520
0.245000000000000079,6.718680443959998527
0.246000000000000080,6.248164687728925415
0.247000000000000081,5.790119929154594836
0.248000000000000081,5.344179453903221244
0.249000000000000082,4.909988781375910882
0.250000000000000111,4.487205896873426525
0.251000000000000112,4.075501368807736391
0.252000000000000113,3.674558363405472594
0.253000000000000114,3.284072568824324634
0.254000000000000115,2.903752040012577584
0.255000000000000115,2.533316975007365190
0.256000000000000116,2.172499432698668187
0.257000000000000117,1.821043001399063943
0.258000000000000118,1.478702426864722197
0.259000000000000119,1.145243207718956491
0.260000000000000120,0.820441165544964712
0.261000000000000121,0.504081996246221076
0.262000000000000122,0.195960808624765281
0.263000000000000123,-0.104118344493992307
0.264000000000000123,-0.396342937855421740
0.265000000000000124,-0.680892443916120582
0.266000000000000125,-0.957938797888097104
0.267000000000000126,-1.227646854539209187
0.268000000000000127,-1.490174834064488918
0.269000000000000128,-1.745674754769112935
0.270000000000000129,-1.994292850696982144
0.271000000000000130,-2.236169972698497155
0.272000000000000131,-2.471441971757807554
0.273000000000000131,-2.700240063695981352
0.274000000000000132,-2.922691174632157107
0.275000000000000133,-3.138918266822496861
0.276000000000000134,-3.349040644707366177
0.277000000000000135,-3.553174241182055937
0.278000000000000136,-3.751431884268666472
0.279000000000000137,-3.943923544506108048
0.280000000000000138,-4.130756563494440314
0.281000000000000139,-4.312035864130671747
0.282000000000000139,-4.487864143156199859
0.283000000000000140,-4.658342046704099459
0.284000000000000141,-4.823568329587724079
0.285000000000000142,-4.983639999112905450
0.286000000000000143,-5.138652444225312976
0.287000000000000144,-5.288699550822973272
0.288000000000000145,-5.433873804074546676
0.289000000000000146,-5.574266378584818327
0.290000000000000147,-5.709967217244447113
0.291000000000000147,-5.841065099589191512
0.292000000000000148,-5.967647700477895611
0.293000000000000149,-6.089801639877183703
0.294000000000000150,-6.207612524516701313
0.295000000000000151,-6.321164982151137757
0.296000000000000152,-6.430542689135322121
0.297000000000000153,-6.535828391987062780
0.298000000000000154,-6.637103923579218190
0.299000000000000155,-6.734450214568463267
0.300000000000000155,-6.827947300633718797
0.301000000000000156,-6.917674326062135393
0.302000000000000157,-7.003709544186195401
0.303000000000000158,-7.086130315140655611
0.304000000000000159,-7.165013101374691828
0.305000000000000160,-7.240433461320989750
0.306000000000000161,-7.312466041591846988
0.307000000000000162,-7.381184568040870531
0.308000000000000163,-7.446661835998957812
0.309000000000000163,-7.508969699964424649
0.310000000000000164,-7.568179062999725204
0.311000000000000165,-7.624359866060908431
0.312000000000000166,-7.677581077461248071
0.313000000000000167,-7.727910682647118001
0.314000000000000168,-7.775415674441892300
0.315000000000000169,-7.820162043893243542
0.316000000000000170,-7.862214771839889593
0.317000000000000171,-7.901637821295613762
0.318000000000000171,-7.938494130732019372
0.319000000000000172,-7.972845608325926037
0.320000000000000173,-8.004753127223235509
0.321000000000000174,-8.034276521857918851
0.322000000000000175,-8.061474585353208155
0.323000000000000176,-8.086405068021132792
0.324000000000000177,-8.109124676966825263
0.325000000000000178,-8.129689076795292735
0.326000000000000179,-8.148152891410671117
0.327000000000000179,-8.164569706890782541
0.328000000000000180,-8.178992075413855645
0.329000000000000181,-8.191471520209143264
0.330000000000000182,-8.202058541497947886
0.331000000000000183,-8.210802623388417487
0.332000000000000184,-8.217752241683470515
0.333000000000000185,-8.222954872558883466
0.334000000000000186,-8.226457002066215551
0.335000000000000187,-8.228304136413500558
0.336000000000000187,-8.228540812975570162
0.337000000000000188,-8.227210611984602906
0.338000000000000189,-8.224356168851530313
0.339000000000000190,-8.220019187068402289
0.340000000000000191,-8.214240451641956042
0.341000000000000192,-8.207059843009423261
0.342000000000000193,-8.198516351387739931
0.343000000000000194,-8.188648091508728299
0.344000000000000195,-8.177492317693301871
0.345000000000000195,-8.165085439219614827
0.346000000000000196,-8.151463035940794910
0.347000000000000197,-8.136659874109797741
0.348000000000000198,-8.120709922370361156
0.349000000000000199,-8.103646367874560497
0.350000000000000200,-8.085501632489421553
0.351000000000000201,-8.066307389056584398
0.352000000000000202,-8.046094577670880099
0.353000000000000203,-8.024893421945559879
0.354000000000000203,-8.002733445233694454
0.355000000000000204,-7.979643486776926586
0.356000000000000205,-7.955651717754858687
0.357000000000000206,-7.930785657210061679
0.358000000000000207,-7.905072187825155083
0.359000000000000208,-7.878537571530642936
0.360000000000000209,-7.851207464923592561
0.361000000000000210,-7.823106934478876617
0.362000000000000210,-7.794260471536468060
0.363000000000000211,-7.764692007049751155
0.364000000000000212,-7.734424926081385543
0.365000000000000213,-7.703482082034545542
0.366000000000000214,-7.671885810609085254
0.367000000000000215,-7.639657943473091350
0.368000000000000216,-7.606819821642038626
0.369000000000000217,-7.573392308558554831
0.370000000000000218,-7.539395802867306706
0.371000000000000218,-7.504850250880356732
0.372000000000000219,-7.469775158729594189
0.373000000000000220,-7.434189604203732316
0.374000000000000221,-7.398112248268273738
0.375000000000000222,-7.361561346267711414
0.376000000000000223,-7.324554758810205790
0.377000000000000224,-7.287109962335465596
0.378000000000000225,-7.249244059367528692
0.379000000000000226,-7.210973788454555056
0.380000000000000226,-7.172315533798659715
0.381000000000000227,-7.133285334578927106
0.382000000000000228,-7.093898893971752884
0.383000000000000229,-7.054171587872725802
0.384000000000000230,-7.014118473324840508
0.385000000000000231,-6.973754296658315255
0.386000000000000232,-6.933093501347374676
0.387000000000000233,-6.892150235589904028
0.388000000000000234,-6.850938359615919460
0.389000000000000234,-6.809471452731338914
0.390000000000000235,-6.767762820103309096
0.391000000000000236,-6.725825499293949683
0.392000000000000237,-6.683672266549153917
0.393000000000000238,-6.641315642849489720
0.394000000000000239,-6.598767899730047404
0.395000000000000240,-6.556041064876386493
0.396000000000000241,-6.513146927503655093
0.397000000000000242,-6.470097043525885105
0.398000000000000242,-6.426902740522737467
0.399000000000000243,-6.383575122510615429
0.400000000000000244,-6.340125074525227333
0.401000000000000245,-6.296563267022692756
0.402000000000000246,-6.252900160105959948
0.403000000000000247,-6.209146007583427718
0.404000000000000248,-6.165310860866590303
0.405000000000000249,-6.121404572713259995
0.406000000000000250,-6.077436800822907159
0.407000000000000250,-6.033417011290608478
0.408000000000000251,-5.989354481925761142
0.409000000000000252,-5.945258305441830871
0.410000000000000253,-5.901137392523051695
0.411000000000000254,-5.857000474773975007
0.412000000000000255,-5.812856107557556662
0.413000000000000256,-5.768712672727376756
0.414000000000000257,-5.724578381259280313
0.415000000000000258,-5.680461275787824782
0.416000000000000258,-5.636369233052457517
0.417000000000000259,-5.592309966258431686
0.418000000000000260,-5.548291027357167948
0.419000000000000261,-5.504319809250619144
0.420000000000000262,-5.460403547924096657
0.421000000000000263,-5.416549324511825247
0.422000000000000264,-5.372764067299210744
0.423000000000000265,-5.329054553665853788
0.424000000000000266,-5.285427411973103951
0.425000000000000266,-5.241889123399603889
0.426000000000000267,-5.198446023728474863
0.427000000000000268,-5.155104305089315275
0.428000000000000269,-5.111870017658195486
0.429000000000000270,-5.068749071318718435
0.430000000000000271,-5.025747237286881663
0.431000000000000272,-4.982870149702607776
0.432000000000000273,-4.940123307190367186
0.433000000000000274,-4.897512074391505266
0.434000000000000274,-4.855041683470441960
0.435000000000000275,-4.812717235597000709
0.436000000000000276,-4.770543702406975228
0.437000000000000277,-4.728525927442730037
0.438000000000000278,-4.686668627575825141
0.439000000000000279,-4.644976394413282250
0.440000000000000280,-4.603453695689101899
0.441000000000000281,-4.562104876642523621
0.442000000000000282,-4.520934161384512429
0.443000000000000282,-4.479945654253590703
0.444000000000000283,-4.439143341162407275
0.445000000000000284,-4.398531090936028676
0.446000000000000285,-4.358112656642967764
0.447000000000000286,-4.317891676920041277
0.448000000000000287,-4.277871677291669172
0.449000000000000288,-4.238056071484646914
0.450000000000000289,-4.198448162738901424
0.451000000000000290,-4.159051145114978532
0.452000000000000290,-4.119868104798806385
0.453000000000000291,-4.080902021404201996
0.454000000000000292,-4.042155769273647614
0.455000000000000293,-4.003632118777611382
0.456000000000000294,-3.965333737612856346
0.457000000000000295,-3.927263192099958111
0.458000000000000296,-3.889422948480258491
0.459000000000000297,-3.851815374212485210
0.460000000000000298,-3.814442739269118476
0.461000000000000298,-3.777307217432684716
0.462000000000000299,-3.740410887591964606
0.463000000000000300,-3.703755735038171792
0.464000000000000301,-3.667343652761117401
0.465000000000000302,-3.631176442745312816
0.466000000000000303,-3.595255817265901932
0.467000000000000304,-3.559583400184382462
0.468000000000000305,-3.524160728243984408
0.469000000000000306,-3.488989252364526727
0.470000000000000306,-3.454070338936678475
0.471000000000000307,-3.419405271115290468
0.472000000000000308,-3.384995250111789034
0.473000000000000309,-3.350841396485236601
0.474000000000000310,-3.316944751431952110
0.475000000000000311,-3.283306278073355067
0.476000000000000312,-3.249926862741907119
0.477000000000000313,-3.216807316264711947
0.478000000000000314,-3.183948375244624263
0.479000000000000314,-3.151350703338591686
0.480000000000000315,-3.119014892532820937
0.481000000000000316,-3.086941464414639569
0.482000000000000317,-3.055130871440598028
0.483000000000000318,-3.023583498200634878
0.484000000000000319,-2.992299662677905481
0.485000000000000320,-2.961279617504057882
0.486000000000000321,-2.930523551209575750
0.487000000000000322,-2.900031589468937465
0.488000000000000322,-2.869803796340206770
0.489000000000000323,-2.839840175498891561
0.490000000000000324,-2.810140671465625406
0.491000000000000325,-2.780705170827471484
0.492000000000000326,-2.751533503452483487
0.493000000000000327,-2.722625443697313852
0.494000000000000328,-2.693980711607507406
0.495000000000000329,-2.665598974110262365
0.496000000000000330,-2.637479846199319855
0.497000000000000330,-2.609622892111802983
0.498000000000000331,-2.582027626496605777
0.499000000000000332,-2.554693515574252505
0.500000000000000333,-2.527619978287827252
0.501000000000000334,-2.500806387444780121
0.502000000000000335,-2.474252070849412455
0.503000000000000336,-2.447956312425771053
0.504000000000000337,-2.421918353330736906
0.505000000000000338,-2.396137393057096165
0.506000000000000338,-2.370612590526414820
0.507000000000000339,-2.345343065171475505
0.508000000000000340,-2.320327898008097023
0.509000000000000341,-2.295566132696229111
0.510000000000000342,-2.271056776590020920
0.511000000000000343,-2.246798801776817456
0.512000000000000344,-2.222791146104839299
0.513000000000000345,-2.199032714199456784
0.514000000000000346,-2.175522378467922735
0.515000000000000346,-2.152258980092355944
0.516000000000000347,-2.129241330010930078
0.517000000000000348,-2.106468209887164988
0.518000000000000349,-2.083938373067100169
0.519000000000000350,-2.061650545524392975
0.520000000000000351,-2.039603426793141328
0.521000000000000352,-2.017795690888429583
0.522000000000000353,-1.996225987214452102
0.523000000000000353,-1.974892941460172135
0.524000000000000354,-1.953795156482508677
0.525000000000000355,-1.932931213176891871
0.526000000000000356,-1.912299671335227602
0.527000000000000357,-1.891899070491227075
0.528000000000000358,-1.871727930752981051
0.529000000000000359,-1.851784753622902624
0.530000000000000360,-1.832068022804860918
0.531000000000000361,-1.812576204998629148
0.532000000000000361,-1.793307750681539359
0.533000000000000362,-1.774261094877421341
0.534000000000000363,-1.755434657912774643
0.535000000000000364,-1.736826846160232973
0.536000000000000365,-1.718436052769295896
0.537000000000000366,-1.700260658384404433
0.538000000000000367,-1.682299031850311932
0.539000000000000368,-1.664549530904908980
0.540000000000000369,-1.647010502859378223
0.541000000000000369,-1.629680285265899586
0.542000000000000370,-1.612557206572809765
0.543000000000000371,-1.595639586767349849
0.544000000000000372,-1.578925738006056623
0.545000000000000373,-1.562413965232833268
0.546000000000000374,-1.546102566784775201
0.547000000000000375,-1.529989834985825636
0.548000000000000376,-1.514074056728366147
0.549000000000000377,-1.498353514042768841
0.550000000000000377,-1.482826484655017207
0.551000000000000378,-1.467491242532495743
0.552000000000000379,-1.452346058418023445
0.553000000000000380,-1.437389200352224394
0.554000000000000381,-1.422618934184313844
0.555000000000000382,-1.408033524071470310
0.556000000000000383,-1.393631232966762612
0.557000000000000384,-1.379410323095897173
0.558000000000000385,-1.365369056422742755
0.559000000000000385,-1.351505695103853544
0.560000000000000386,-1.337818501932023452
0.561000000000000387,-1.324305740769042838
0.562000000000000388,-1.310965676967719151
0.563000000000000389,-1.297796577783331351
0.564000000000000390,-1.284796712774581184
0.565000000000000391,-1.271964354194216718
0.566000000000000392,-1.259297777369388749
0.567000000000000393,-1.246795261071936611
0.568000000000000393,-1.234455087878637114
0.569000000000000394,-1.222275544521624679
0.570000000000000395,-1.210254922229062391
0.571000000000000396,-1.198391517056180744
0.572000000000000397,-1.186683630206876838
0.573000000000000398,-1.175129568345895104
0.574000000000000399,-1.163727643901843578
0.575000000000000400,-1.152476175361055066
0.576000000000000401,-1.141373487552502342
0.577000000000000401,-1.130417911923890406
0.578000000000000402,-1.119607786809007743
0.579000000000000403,-1.108941457686497767
0.580000000000000404,-1.098417277430217442
0.581000000000000405,-1.088033606551233490
0.582000000000000406,-1.077788813431659998
0.583000000000000407,-1.067681274550416060
0.584000000000000408,-1.057709374701075733
0.585000000000000409,-1.047871507201898922
0.586000000000000409,-1.038166074098208158
0.587000000000000410,-1.028591486357225859
0.588000000000000411,-1.019146164055484416
0.589000000000000412,-1.009828536558982748
0.590000000000000413,-1.000637042696157053
0.591000000000000414,-0.991570130923839388
0.592000000000000415,-0.982626259486329312
0.593000000000000416,-0.973803896567658867
0.594000000000000417,-0.965101520437223748
0.595000000000000417,-0.956517619588919010
0.596000000000000418,-0.948050692873800949
0.597000000000000419,-0.939699249626560040
0.598000000000000420,-0.931461809785754324
0.599000000000000421,-0.923336904008069226
0.600000000000000422,-0.915323073776624363
0.601000000000000423,-0.907418871503500868
0.602000000000000424,-0.899622860626582588
0.603000000000000425,-0.891933615700846283
0.604000000000000425,-0.884349722484195411
0.605000000000000426,-0.876869778017955737
0.606000000000000427,-0.869492390702206408
0.607000000000000428,-0.862216180365900753
0.608000000000000429,-0.855039778332139511
0.609000000000000430,-0.847961827478409091
0.610000000000000431,-0.840980982292176327
0.611000000000000432,-0.834095908921743123
0.612000000000000433,-0.827305285222548314
0.613000000000000433,-0.820607800799060372
