# SiO2-Quartz_HIESCA-AC
# h[nm],U(h)[kJ/mol]
0.149999999999999994,116.305431595558957270
0.150999999999999995,113.635581710728544635
0.151999999999999996,111.855955241987729210
0.152999999999999997,110.271376083316070549
0.153999999999999998,108.625317974347808558
0.154999999999999999,106.869789552923663223
0.156000000000000000,105.039655573760612128
0.157000000000000001,103.189081743541279934
0.158000000000000002,101.363475682384517995
0.159000000000000002,99.590557996248065820
0.160000000000000003,97.880811429656432665
0.161000000000000004,96.231741167294586603
0.162000000000000005,94.632966013235559899
0.163000000000000006,93.070709868416230393
0.164000000000000007,91.531151746157746629
0.165000000000000008,90.002569652796211130
0.166000000000000009,88.476441846978076455
0.167000000000000010,86.947752935579813993
0.168000000000000010,85.414757818683852975
0.169000000000000011,83.878423945385932825
0.170000000000000012,82.341725383463952426
0.171000000000000013,80.808913981721858022
0.172000000000000014,79.284850010555970812
0.173000000000000015,77.774439780193503680
0.174000000000000016,76.282201303820457383
0.175000000000000017,74.811960375734855688
0.176000000000000018,73.366667238172411203
0.177000000000000018,71.948316943665432177
0.178000000000000019,70.557953282513381055
0.179000000000000020,69.195735607320017380
0.180000000000000021,67.861049124416737754
0.181000000000000022,66.552641515541495210
0.182000000000000023,65.268771566756143443
0.183000000000000024,64.007358435477954117
0.184000000000000025,62.766123026708520172
0.185000000000000026,61.542715519657086531
0.186000000000000026,60.334825302383094936
0.187000000000000027,59.140271403389718330
0.188000000000000028,57.957072959440424142
0.189000000000000029,56.783500355131160120
0.190000000000000030,55.618108451896560496
0.191000000000000031,54.459753838206630405
0.192000000000000032,53.307598325971731867
0.193000000000000033,52.161101035852581731
0.194000000000000034,51.020001397526577591
0.195000000000000034,49.884295276199082991
0.196000000000000035,48.754206254553480449
0.197000000000000036,47.630153875292805310
0.198000000000000037,46.512720403759942656
0.199000000000000038,45.402617418594168441
0.200000000000000039,44.300653292756784651
0.201000000000000040,43.207702395921693039
0.202000000000000041,42.124676637753587727
0.203000000000000042,41.052499783309734482
0.204000000000000042,39.992084808232775117
0.205000000000000043,38.944314422746423077
0.206000000000000044,37.910024778906702636
0.207000000000000045,36.889992283602097700
0.208000000000000046,35.884923368477060990
0.209000000000000047,34.895447015063282947
0.210000000000000048,33.922109796618030941
0.211000000000000049,32.965373175173404263
0.212000000000000050,32.025612780857059647
0.213000000000000050,31.103119398572438570
0.214000000000000051,30.198101392704948864
0.215000000000000052,29.310688311946059059
0.216000000000000053,28.440935432089247570
0.217000000000000054,27.588829013453658234
0.218000000000000055,26.754292070327590380
0.219000000000000056,25.937190471581185847
0.220000000000000057,25.137339213619476652
0.221000000000000058,24.354508728547223484
0.222000000000000058,23.588431111321792599
0.223000000000000059,22.838806169446552730
0.224000000000000060,22.105307217150787835
0.225000000000000061,21.387586552860234690
0.226000000000000062,20.685280573990990405
0.227000000000000063,19.998014496669462403
0.228000000000000064,19.325406659904299289
0.229000000000000065,18.667072404061194391
0.230000000000000066,18.022627522295845637
0.231000000000000066,17.391691290976023510
0.232000000000000067,16.773889091181008126
0.233000000000000068,16.168854638219020359
0.234000000000000069,15.576231839870150253
0.235000000000000070,14.995676306862520732
0.236000000000000071,14.426856541039587256
0.237000000000000072,13.869454827885832060
0.238000000000000073,13.323167860655249939
0.239000000000000073,12.787707123388454278
0.240000000000000074,12.262799059698453519
0.241000000000000075,11.748185053439323511
0.242000000000000076,11.243621246315299800
0.243000000000000077,10.748878216209130088
0.244000000000000078,10.263740538565379268
0.245000000000000079,9.788006251607043851
0.246000000000000080,9.321486244537579680
0.247000000000000081,8.864003586219647346
0.248000000000000081,8.415392810161659298
0.249000000000000082,7.975499170006377980
0.250000000000000111,7.544177878124467718
0.251000000000000112,7.121293338387616245
0.252000000000000113,6.706718382740611162
0.253000000000000114,6.300333519823861472
0.254000000000000115,5.902026202617503436
0.255000000000000115,5.511690120895601730
0.256000000000000116,5.129224523191388663
0.257000000000000117,4.754533571984326912
0.258000000000000118,4.387525734925868726
0.259000000000000119,4.028113214118856256
0.260000000000000120,3.676211414753654871
0.261000000000000121,3.331738453778080977
0.262000000000000122,2.994614708731877961
0.263000000000000123,2.664762406406892659
0.264000000000000123,2.342105250593708998
0.265000000000000124,2.026568087840895149
0.266000000000000125,1.718076609877130068
0.267000000000000126,1.416557091125186130
0.268000000000000127,1.121936159563519109
0.269000000000000128,0.834140599062704657
0.270000000000000129,0.553097181233530133
0.271000000000000130,0.278732524767551337
0.272000000000000131,0.010972980225439822
0.273000000000000131,-0.250255461771762389
0.274000000000000132,-0.505027240970743363
0.275000000000000133,-0.753417278514704636
0.276000000000000134,-0.995501010497335082
0.277000000000000135,-1.231354405896479154
0.278000000000000136,-1.461053970662739898
0.279000000000000137,-1.684676739650219357
0.280000000000000138,-1.902300257982842080
0.281000000000000139,-2.114002553352593683
0.282000000000000139,-2.319862100645549763
0.283000000000000140,-2.519957780190929864
0.284000000000000141,-2.714368830827280199
0.285000000000000142,-2.903174798880583829
0.286000000000000143,-3.086455484051460640
0.287000000000000144,-3.264290883113726949
0.288000000000000145,-3.436761132235829130
0.289000000000000146,-3.603946448648396306
0.290000000000000147,-3.765927072298716816
0.291000000000000147,-3.922783208053490789
0.292000000000000148,-4.074594968937698347
0.293000000000000149,-4.221442320827511807
0.294000000000000150,-4.363405028951055975
0.295000000000000151,-4.500562606490895234
0.296000000000000152,-4.632994265527162980
0.297000000000000153,-4.760778870509847494
0.298000000000000154,-4.883994894403034692
0.299000000000000155,-5.002720377602313917
0.300000000000000155,-5.117032889689340891
0.301000000000000156,-5.227009494054139616
0.302000000000000157,-5.332726715386465699
0.303000000000000158,-5.434260510011285739
0.304000000000000159,-5.531686239021215812
0.305000000000000160,-5.625078644138955752
0.306000000000000161,-5.714511826226582158
0.307000000000000162,-5.800059226344543184
0.308000000000000163,-5.881793609251873889
0.309000000000000163,-5.959787049230185652
0.310000000000000164,-6.034110918106973642
0.311000000000000165,-6.104835875348607388
0.312000000000000166,-6.172031860090145372
0.313000000000000167,-6.235768084967075353
0.314000000000000168,-6.296113031613638000
0.315000000000000169,-6.353134447693027376
0.316000000000000170,-6.406899345326626083
0.317000000000000171,-6.457474000791802560
0.318000000000000171,-6.504923955361417320
0.319000000000000172,-6.549314017162297219
0.320000000000000173,-6.590708263934331512
0.321000000000000174,-6.629170046577161024
0.322000000000000175,-6.664761993376748350
0.323000000000000176,-6.697546014809884873
0.324000000000000177,-6.727583308830574538
0.325000000000000178,-6.754934366548217994
0.326000000000000179,-6.779658978213893405
0.327000000000000179,-6.801816239436772271
0.328000000000000180,-6.821464557559066222
0.329000000000000181,-6.838661658124020271
0.330000000000000182,-6.853464591376912551
0.331000000000000183,-6.865929738745438549
0.332000000000000184,-6.876112819250844055
0.333000000000000185,-6.884068895806949584
0.334000000000000186,-6.889852381369318657
0.335000000000000187,-6.893517044901626534
0.336000000000000187,-6.895116017131333486
0.337000000000000188,-6.894701796070767941
0.338000000000000189,-6.892326252284500576
0.339000000000000190,-6.888040633887442254
0.340000000000000191,-6.881895571261897437
0.341000000000000192,-6.873941081485455129
0.342000000000000193,-6.864226572464478870
0.343000000000000194,-6.852800846771271104
0.344000000000000195,-6.839712105185219215
0.345000000000000195,-6.825007949941252150
0.346000000000000196,-6.808735387690637353
0.347000000000000197,-6.790940832181483700
0.348000000000000198,-6.771670106668020495
0.349000000000000199,-6.750968446059194328
0.350000000000000200,-6.728880498818698541
0.351000000000000201,-6.705450328629543932
0.352000000000000202,-6.680721415837436616
0.353000000000000203,-6.654736658688007012
0.354000000000000203,-6.627538374373694197
0.355000000000000204,-6.599168299906438051
0.356000000000000205,-6.569667592833004832
0.357000000000000206,-6.539076831809912171
0.358000000000000207,-6.507436017054887500
0.359000000000000208,-6.474784570692238894
0.360000000000000209,-6.441161337009120302
0.361000000000000210,-6.406604582639640277
0.362000000000000210,-6.371151996693569686
0.363000000000000211,-6.334840690846013089
0.364000000000000212,-6.297707199404127820
0.365000000000000213,-6.259787479366411667
0.366000000000000214,-6.221116910489749685
0.367000000000000215,-6.181730295378668139
0.368000000000000216,-6.141661859610939800
0.369000000000000217,-6.100945251912744283
0.370000000000000218,-6.059613544396314389
0.371000000000000218,-6.017699232871932757
0.372000000000000219,-5.975234237245861557
0.373000000000000220,-5.932249902014790521
0.374000000000000221,-5.888776996866900149
0.375000000000000222,-5.844845717398643004
0.376000000000000223,-5.800485685956081383
0.377000000000000224,-5.755725952608420570
0.378000000000000225,-5.710594996261033174
0.379000000000000226,-5.665120725914329469
0.380000000000000226,-5.619330482074417432
0.381000000000000227,-5.573251038320408135
0.382000000000000228,-5.526908603033041878
0.383000000000000229,-5.480328821288298791
0.384000000000000230,-5.433536776919090094
0.385000000000000231,-5.386556994747785154
0.386000000000000232,-5.339413442991320480
0.387000000000000233,-5.292129535840422783
0.388000000000000234,-5.244728136213672620
0.389000000000000234,-5.197231558686861597
0.390000000000000235,-5.149661572597301173
0.391000000000000236,-5.102039405322576826
0.392000000000000237,-5.054385745732462354
0.393000000000000238,-5.006720747812611449
0.394000000000000239,-4.959064034457899339
0.395000000000000240,-4.911434701433210925
0.396000000000000241,-4.863851321498888325
0.397000000000000242,-4.816331948697792242
0.398000000000000242,-4.768894122800711344
0.399000000000000243,-4.721554873906360861
0.400000000000000244,-4.674330727192085533
0.401000000000000245,-4.627237707811216794
0.402000000000000246,-4.580291345932512748
0.403000000000000247,-4.533506681917225833
0.404000000000000248,-4.486898271628986024
0.405000000000000249,-4.440480191871563065
0.406000000000000250,-4.394266045949391852
0.407000000000000250,-4.348268969345732593
0.408000000000000251,-4.302501635513031886
0.409000000000000252,-4.256976261770200054
0.410000000000000253,-4.211704615301213650
0.411000000000000254,-4.166698019249562179
0.412000000000000255,-4.121967358902915102
0.413000000000000256,-4.077523087962443782
0.414000000000000257,-4.033375234891039440
0.415000000000000258,-3.989533409334961256
0.416000000000000258,-3.946006808613108596
0.417000000000000259,-3.902804224268427991
0.418000000000000260,-3.859934048675813134
0.419000000000000261,-3.817404281700969015
0.420000000000000262,-3.775222537404739676
0.421000000000000263,-3.733396050787514131
0.422000000000000264,-3.691931684568273475
0.423000000000000265,-3.650835935993010928
0.424000000000000266,-3.610114943667415588
0.425000000000000266,-3.569774494408522791
0.426000000000000267,-3.529820030110482953
0.427000000000000268,-3.490256654619403598
0.428000000000000269,-3.451089140612520367
0.429000000000000270,-3.412321936476980788
0.430000000000000271,-3.373959173183600058
0.431000000000000272,-3.336004671151188372
0.432000000000000273,-3.298461947097033775
0.433000000000000274,-3.261334220869373635
0.434000000000000274,-3.224624422257668321
0.435000000000000275,-3.188335197776791752
0.436000000000000276,-3.152468917421250350
0.437000000000000277,-3.117027681385677429
0.438000000000000278,-3.082013326748101356
0.439000000000000279,-3.047427434112491618
0.440000000000000280,-3.013271334207247243
0.441000000000000281,-2.979546114436465221
0.442000000000000282,-2.946252625380979318
0.443000000000000282,-2.913391487246130396
0.444000000000000283,-2.880963096253622346
0.445000000000000284,-2.848967630974716947
0.446000000000000285,-2.817405058602199919
0.447000000000000286,-2.786275141158885305
0.448000000000000287,-2.755577441640164160
0.449000000000000288,-2.725311330088646677
0.450000000000000289,-2.695475989598725697
0.451000000000000290,-2.666070422249240846
0.452000000000000290,-2.637093454962450956
0.453000000000000291,-2.608543745287595694
0.454000000000000292,-2.580419787107579133
0.455000000000000293,-2.552719916267245370
0.456000000000000294,-2.525442316122001873
0.457000000000000295,-2.498585023005521322
0.458000000000000296,-2.472145931615414405
0.459000000000000297,-2.446122800315888579
0.460000000000000298,-2.420513256356446874
0.461000000000000298,-2.395314801005853589
0.462000000000000299,-2.370524814600632801
0.463000000000000300,-2.346140561507446431
0.464000000000000301,-2.322159194998886012
0.465000000000000302,-2.298577762042179451
0.466000000000000303,-2.275393208000458856
0.467000000000000304,-2.252602381246314511
0.468000000000000305,-2.230202037687462280
0.469000000000000306,-2.208188845204326789
0.470000000000000306,-2.186559387999595483
0.471000000000000307,-2.165310170859648942
0.472000000000000308,-2.144437623328043774
0.473000000000000309,-2.123938103791165766
0.474000000000000310,-2.103807903476262009
0.475000000000000311,-2.084043250362138000
0.476000000000000312,-2.064640313002900740
0.477000000000000313,-2.045595204265042710
0.478000000000000314,-2.026903984978384976
0.479000000000000314,-2.008562667501379018
0.480000000000000315,-1.990567219201231142
0.481000000000000316,-1.972913565849556239
0.482000000000000317,-1.955597594934067374
0.483000000000000318,-1.938615158887076362
0.484000000000000319,-1.921962078231445492
0.485000000000000320,-1.905634144644796635
0.486000000000000321,-1.889627123942718923
0.487000000000000322,-1.873936758981816553
0.488000000000000322,-1.858558772483406951
0.489000000000000323,-1.843488869778814321
0.490000000000000324,-1.828722741477095237
0.491000000000000325,-1.814256066056157746
0.492000000000000326,-1.800084512378198998
0.493000000000000327,-1.786203742130478833
0.494000000000000328,-1.772609412192370115
0.495000000000000329,-1.759297176929745188
0.496000000000000330,-1.746262690417664132
0.497000000000000330,-1.733501608592494803
0.498000000000000331,-1.721009591334407229
0.499000000000000332,-1.708782304481422987
0.500000000000000333,-1.696815421776035393
0.501000000000000334,-1.685104626745465906
0.502000000000000335,-1.673645614516725999
0.503000000000000336,-1.662434093567525251
0.504000000000000337,-1.651465787414160502
0.505000000000000338,-1.640736436237484330
0.506000000000000338,-1.630241798448088586
0.507000000000000339,-1.619977652191801898
0.508000000000000340,-1.609939796796604927
0.509000000000000341,-1.600124054162158416
0.510000000000000342,-1.590526270092949890
0.511000000000000343,-1.581142315576271162
0.512000000000000344,-1.571968088006085118
0.513000000000000345,-1.562999512353913767
0.514000000000000346,-1.554232542287876662
0.515000000000000346,-1.545663161240922179
0.516000000000000347,-1.537287383429395637
0.517000000000000348,-1.529101254823056255
0.518000000000000349,-1.521100854067539920
0.519000000000000350,-1.513282293360437958
0.520000000000000351,-1.505641719282002855
0.521000000000000352,-1.498175313581575407
0.522000000000000353,-1.490879293920748472
0.523000000000000353,-1.483749914574328921
0.524000000000000354,-1.476783467090152735
0.525000000000000355,-1.469976280908728672
0.526000000000000356,-1.463324723943733252
0.527000000000000357,-1.456825203124405332
0.528000000000000358,-1.450474164900737772
0.529000000000000359,-1.444268095712545552
0.530000000000000360,-1.438203522423275205
0.531000000000000361,-1.432277012719591180
0.532000000000000361,-1.426485175477616441
0.533000000000000362,-1.420824661096807162
0.534000000000000363,-1.415292161802318649
0.535000000000000364,-1.409884411916818348
0.536000000000000365,-1.404598188102591294
0.537000000000000366,-1.399430309574842379
0.538000000000000367,-1.394377638287017440
0.539000000000000368,-1.389437079089060667
0.540000000000000369,-1.384605579859338187
0.541000000000000369,-1.379880131611159966
0.542000000000000370,-1.375257768574611905
0.543000000000000371,-1.370735568254541237
0.544000000000000372,-1.366310651465466375
0.545000000000000373,-1.361980182344166845
0.546000000000000374,-1.357741368340691812
0.547000000000000375,-1.353591460188543483
0.548000000000000376,-1.349527751854769697
0.549000000000000377,-1.345547580470623616
0.550000000000000377,-1.341648326243531475
0.551000000000000378,-1.337827412351032752
0.552000000000000379,-1.334082304817356235
0.553000000000000380,-1.330410512373293663
0.554000000000000381,-1.326809586299984911
0.555000000000000382,-1.323277120257307482
0.556000000000000383,-1.319810750097367036
0.557000000000000384,-1.316408153663832348
0.558000000000000385,-1.313067050577561456
0.559000000000000385,-1.309785202009203786
0.560000000000000386,-1.306560410439257636
0.561000000000000387,-1.303390519406186332
0.562000000000000388,-1.300273413243081322
0.563000000000000389,-1.297207016803450630
0.564000000000000390,-1.294189295176568777
0.565000000000000391,-1.291218253392951265
0.566000000000000392,-1.288291936120403269
0.567000000000000393,-1.285408427351131033
0.568000000000000393,-1.282565850080353398
0.569000000000000394,-1.279762365976898186
0.570000000000000395,-1.276996175046194004
0.571000000000000396,-1.274265515286079342
0.572000000000000397,-1.271568662335892608
0.573000000000000398,-1.268903929119162388
0.574000000000000399,-1.266269665480389328
0.575000000000000400,-1.263664257816212055
0.576000000000000401,-1.261086128701383702
0.577000000000000401,-1.258533736509923173
0.578000000000000402,-1.256005575031755139
0.579000000000000403,-1.253500173085187575
0.580000000000000404,-1.251016094125612765
0.581000000000000405,-1.248551935850667594
0.582000000000000406,-1.246106329802233237
0.583000000000000407,-1.243677940965542073
0.584000000000000408,-1.241265467365698871
0.585000000000000409,-1.238867639661888287
0.586000000000000409,-1.236483220739561961
0.587000000000000410,-1.234111005300857933
0.588000000000000411,-1.231749819453506589
0.589000000000000412,-1.229398520298502273
0.590000000000000413,-1.227055995516732612
0.591000000000000414,-1.224721162954841347
0.592000000000000415,-1.222392970210545826
0.593000000000000416,-1.220070394217594112
0.594000000000000417,-1.217752440830602634
0.595000000000000417,-1.215438144409996202
0.596000000000000418,-1.213126567407164069
0.597000000000000419,-1.210816799950137579
0.598000000000000420,-1.208507959429862888
0.599000000000000421,-1.206199190087310358
0.600000000000000422,-1.203889662601573374
0.601000000000000423,-1.201578573679094486
0.602000000000000424,-1.199265145644211383
0.603000000000000425,-1.196948626031153928
0.604000000000000425,-1.194628287177622372
0.605000000000000426,-1.192303425820100182
0.606000000000000427,-1.189973362691068237
0.607000000000000428,-1.187637442118119502
0.608000000000000429,-1.185295031625314133
0.609000000000000430,-1.182945521536618250
0.610000000000000431,-1.180588324581801629
0.611000000000000432,-1.178222875504702838
0.612000000000000433,-1.175848630674045214
0.613000000000000433,-1.173465067696925157
