# SiO2-Quartz_VALSCA-AC
# h[nm],U(h)[kJ/mol]
0.149999999999999994,122.261873016150389049
0.150999999999999995,119.277020195564290361
0.151999999999999996,117.461576367417961819
0.152999999999999997,115.906845669043875091
0.153999999999999998,114.291232528966659743
0.154999999999999999,112.561458386405803367
0.156000000000000000,110.764031622196966964
0.157000000000000001,108.963743024874290199
0.158000000000000002,107.210266144256635812
0.159000000000000002,105.529552364794952268
0.160000000000000003,103.926563569300270728
0.161000000000000004,102.391970389854321866
0.162000000000000005,100.909097335131875184
0.163000000000000006,99.459506461684469514
0.164000000000000007,98.026763619075978795
0.165000000000000008,96.598505386621880575
0.166000000000000009,95.167163147598927253
0.167000000000000010,93.729754996887976404
0.168000000000000010,92.287118662904731536
0.169000000000000011,90.842883452343713202
0.170000000000000012,89.402396397546297635
0.171000000000000013,87.971742475829501018
0.172000000000000014,86.556937348784146025
0.173000000000000015,85.163324942421084529
0.174000000000000016,83.795180184240749099
0.175000000000000017,82.455497022449620204
0.176000000000000018,81.145930860472176960
0.177000000000000018,79.866860269227828439
0.178000000000000019,78.617533159353968131
0.179000000000000020,77.396265790521525219
0.180000000000000021,76.200667758324229339
0.181000000000000022,75.027871486156726633
0.182000000000000023,73.874750115987581012
0.183000000000000024,72.738112631357594751
0.184000000000000025,71.614869330928016211
0.185000000000000026,70.502164303513751520
0.186000000000000026,69.397474326611330753
0.187000000000000027,68.298675667828518954
0.188000000000000028,67.204081693287250232
0.189000000000000029,66.112455075673693727
0.190000000000000030,65.022998847513761689
0.191000000000000031,63.935330658621047917
0.192000000000000032,62.849444457684001009
0.193000000000000033,61.765663502360020232
0.194000000000000034,60.684588173412258527
0.195000000000000034,59.607041577588859127
0.196000000000000035,58.534015411052976674
0.197000000000000036,57.466618050130115591
0.198000000000000037,56.406026360233134653
0.199000000000000038,55.353442281165712302
0.200000000000000039,54.310054865907162025
0.201000000000000040,53.277008124219420893
0.202000000000000041,52.255374752331398724
0.203000000000000042,51.246135613398394071
0.204000000000000042,50.250164666543057024
0.205000000000000043,49.268218920134223993
0.206000000000000044,48.300932902041083139
0.207000000000000045,47.348817090225551851
0.208000000000000046,46.412259725600321758
0.209000000000000047,45.491531430279174231
0.210000000000000048,44.586792073296969363
0.211000000000000049,43.698099358202199483
0.212000000000000050,42.825418648786843789
0.213000000000000050,41.968633597332349439
0.214000000000000051,41.127557191354533472
0.215000000000000052,40.301942887669895299
0.216000000000000053,39.491495554878731866
0.217000000000000054,38.695881995674305642
0.218000000000000055,37.914740867709234351
0.219000000000000056,37.147691865357664653
0.220000000000000057,36.394344064137627015
0.221000000000000058,35.654303364561236833
0.222000000000000058,34.927179002680396991
0.223000000000000059,34.212589120667360021
0.224000000000000060,33.510165412576142785
0.225000000000000061,32.819556878227835739
0.226000000000000062,32.140432732250140191
0.227000000000000063,31.472484526018472906
0.228000000000000064,30.815427547948452514
0.229000000000000065,30.169001572635597341
0.230000000000000066,29.532971032086674512
0.231000000000000066,28.907124683074993499
0.232000000000000067,28.291274843805986450
0.233000000000000068,27.685256270894814890
0.234000000000000069,27.088924744411606582
0.235000000000000070,26.502155424685810203
0.236000000000000071,25.924841039900901052
0.237000000000000072,25.356889958443531441
0.238000000000000073,24.798224194666058651
0.239000000000000073,24.248777391318633079
0.240000000000000074,23.708492816522699798
0.241000000000000075,23.177321407894339700
0.242000000000000076,22.655219891355255157
0.243000000000000077,22.142148997357054441
0.244000000000000078,21.638071792733171606
0.245000000000000079,21.142952142215879263
0.246000000000000080,20.656753309833963073
0.247000000000000081,20.179436706948855829
0.248000000000000081,19.710960790598413439
0.249000000000000082,19.251280113091247870
0.250000000000000111,18.800344521421756383
0.251000000000000112,18.358098503042320715
0.252000000000000113,17.924480672815967353
0.253000000000000114,17.499423394561851808
0.254000000000000115,17.082852529472376091
0.255000000000000115,16.674687302804624522
0.256000000000000116,16.274840279604585902
0.257000000000000117,15.883217439787927105
0.258000000000000118,15.499718342652883507
0.259000000000000119,15.124236370816486641
0.260000000000000120,14.756659043622988747
0.261000000000000121,14.396868390254770276
0.262000000000000122,14.044741373059116185
0.263000000000000123,13.700150351974551555
0.264000000000000123,13.362963581378867417
0.265000000000000124,13.033045731175183946
0.266000000000000125,12.710258424466665872
0.267000000000000126,12.394460784734816272
0.268000000000000127,12.085509986017900275
0.269000000000000128,11.783261800177575296
0.270000000000000129,11.487571135933496436
0.271000000000000130,11.198292564930270032
0.272000000000000131,10.915280830674936041
0.273000000000000131,10.638391336737448967
0.274000000000000132,10.367480611140894808
0.275000000000000133,10.102406744376388303
0.276000000000000134,9.843029798958742305
0.277000000000000135,9.589212188890790856
0.278000000000000136,9.340819027824572629
0.279000000000000137,9.097718445097138229
0.280000000000000138,8.859781869175936464
0.281000000000000139,8.626884278373964321
0.282000000000000139,8.398904418989060261
0.283000000000000140,8.175724991284614163
0.284000000000000141,7.957232803962616785
0.285000000000000142,7.743318897984221572
0.286000000000000143,7.533878640770294233
0.287000000000000144,7.328811791965691214
0.288000000000000145,7.128022542076918100
0.289000000000000146,6.931419525397211956
0.290000000000000147,6.738915808714134315
0.291000000000000147,6.550428857357853296
0.292000000000000148,6.365880480191433044
0.293000000000000149,6.185196755172347238
0.294000000000000150,6.008307937126127207
0.295000000000000151,5.835148349371595877
0.296000000000000152,5.665656260823463519
0.297000000000000153,5.499773750173397424
0.298000000000000154,5.337446558716540501
0.299000000000000155,5.178623933348198705
0.300000000000000155,5.023258461205831082
0.301000000000000156,4.871305897376219995
0.302000000000000157,4.722724987027006271
0.303000000000000158,4.577477283257715968
0.304000000000000159,4.435526961897473974
0.305000000000000160,4.296840634407057102
0.306000000000000161,4.161387159971196681
0.307000000000000162,4.029137457794694122
0.308000000000000163,3.900064320543242591
0.309000000000000163,3.774142229797184278
0.310000000000000164,3.651347174314539590
0.311000000000000165,3.531656471828994448
0.312000000000000166,3.415048595039074542
0.313000000000000167,3.301503002377270235
0.314000000000000168,3.190999974082397550
0.315000000000000169,3.083520454035339586
0.316000000000000170,2.979045897757377936
0.317000000000000171,2.877558126912542313
0.318000000000000171,2.779039190599793763
0.319000000000000172,2.683471233668370814
0.320000000000000173,2.590836372240061802
0.321000000000000174,2.501116576575397765
0.322000000000000175,2.414293561376872788
0.323000000000000176,2.330348683581562774
0.324000000000000177,2.249262847657399700
0.325000000000000178,2.171016418382449409
0.326000000000000179,2.095589141053818771
0.327000000000000179,2.022960069043732378
0.328000000000000180,1.953107498592990821
0.329000000000000181,1.886008910707772213
0.330000000000000182,1.821640920003988029
0.331000000000000183,1.759979230323633903
0.332000000000000184,1.700998596930568540
0.333000000000000185,1.644672795077995131
0.334000000000000186,1.590974594726913605
0.335000000000000187,1.539875741183789781
0.336000000000000187,1.491346941416445970
0.337000000000000188,1.445357855799858537
0.338000000000000189,1.401877095037476151
0.339000000000000190,1.360872221999492648
0.340000000000000191,1.322309758216704934
0.341000000000000192,1.286155194766708032
0.342000000000000193,1.252373007289107720
0.343000000000000194,1.220926674866858352
0.344000000000000195,1.191778702512971133
0.345000000000000195,1.164890647004018343
0.346000000000000196,1.140223145805862259
0.347000000000000197,1.117735948841022564
0.348000000000000198,1.097387952852118209
0.349000000000000199,1.079137238121476106
0.350000000000000200,1.062941107312926237
0.351000000000000201,1.048756126208554518
0.352000000000000202,1.036538166119989723
0.353000000000000203,1.026242447761158028
0.354000000000000203,1.017823586377008649
0.355000000000000204,1.011235637930600006
0.356000000000000205,1.006432146158800167
0.357000000000000206,1.003366190314967765
0.358000000000000207,1.001990433425498539
0.359000000000000208,1.002257170894938154
0.360000000000000209,1.004118379302981534
0.361000000000000210,1.007525765244882132
0.362000000000000210,1.012430814074925411
0.363000000000000211,1.018784838420906169
0.364000000000000212,1.026539026345470784
0.365000000000000213,1.035644489038257010
0.366000000000000214,1.046052307930444680
0.367000000000000215,1.057713581131051850
0.368000000000000216,1.070579469091667901
0.369000000000000217,1.084601239413742091
0.370000000000000218,1.099730310719421622
0.371000000000000218,1.115918295514051861
0.372000000000000219,1.133117041974810890
0.373000000000000220,1.151278674606621255
0.374000000000000221,1.170355633712490739
0.375000000000000222,1.190300713631603724
0.376000000000000223,1.211067099703914351
0.377000000000000224,1.232608403925756324
0.378000000000000225,1.254878699266077646
0.379000000000000226,1.277832552617968798
0.380000000000000226,1.301425056364797772
0.381000000000000227,1.325611858545075794
0.382000000000000228,1.350349191604106824
0.383000000000000229,1.375593899724802505
0.384000000000000230,1.401303464733870019
0.385000000000000231,1.427436030582932558
0.386000000000000232,1.453950426407938590
0.387000000000000233,1.480806188173004134
0.388000000000000234,1.507963578908134483
0.389000000000000234,1.535383607552758267
0.390000000000000235,1.563028046419805417
0.391000000000000236,1.590859447297277685
0.392000000000000237,1.618841156206590526
0.393000000000000238,1.646937326838833204
0.394000000000000239,1.675112932692115475
0.395000000000000240,1.703333777934680882
0.396000000000000241,1.731566507020074752
0.397000000000000242,1.759778613082077836
0.398000000000000242,1.787938445138141264
0.399000000000000243,1.816015214131374789
0.400000000000000244,1.843978997841990930
0.401000000000000245,1.871800744699767760
0.402000000000000246,1.899452276530151140
0.403000000000000247,1.926906290266850563
0.404000000000000248,1.954136358664450679
0.405000000000000249,1.981116930044888536
0.406000000000000250,2.007823327111942557
0.407000000000000250,2.034231744867986080
0.408000000000000251,2.060319247667492526
0.409000000000000252,2.086063765441659168
0.410000000000000253,2.111444089128556634
0.411000000000000254,2.136439865343028988
0.412000000000000255,2.161031590320421358
0.413000000000000256,2.185200603167882338
0.414000000000000257,2.208929078456802753
0.415000000000000258,2.232200018189415047
0.416000000000000258,2.254997243172369270
0.417000000000000259,2.277305383829449248
0.418000000000000260,2.299109870485240847
0.419000000000000261,2.320396923150966018
0.420000000000000262,2.341153540843141201
0.421000000000000263,2.361367490465106300
0.422000000000000264,2.381027295280901068
0.423000000000000265,2.400122223010307199
0.424000000000000266,2.418642273573059942
0.425000000000000266,2.436578166509865806
0.426000000000000267,2.453921328106813071
0.427000000000000268,2.470663878249295564
0.428000000000000269,2.486798617030759218
0.429000000000000270,2.502319011140776706
0.430000000000000271,2.517219180056416761
0.431000000000000272,2.531493882059885348
0.432000000000000273,2.545138500104894508
0.433000000000000274,2.558149027553277666
0.434000000000000274,2.570522053802812401
0.435000000000000275,2.582254749826284890
0.436000000000000276,2.593344853641233350
0.437000000000000277,2.603790655729006254
0.438000000000000278,2.613590984421038765
0.439000000000000279,2.622745191269558074
0.440000000000000280,2.631253136419197336
0.441000000000000281,2.639115173995318475
0.442000000000000282,2.646332137524058048
0.443000000000000282,2.652905325398614345
0.444000000000000283,2.658836486405358634
0.445000000000000284,2.664127805322944020
0.446000000000000285,2.668781888606822417
0.447000000000000286,2.672801750170837209
0.448000000000000287,2.676190797277210542
0.449000000000000288,2.678952816545335569
0.450000000000000289,2.681091960089399429
0.451000000000000290,2.682612731794192573
0.452000000000000290,2.683519973737889863
0.453000000000000291,2.683818852770095020
0.454000000000000292,2.683514847252803204
0.455000000000000293,2.682613733971551007
0.456000000000000294,2.681121575223377018
0.457000000000000295,2.679044706087815975
0.458000000000000296,2.676389721886645479
0.459000000000000297,2.673163465837637531
0.460000000000000298,2.669373016907107932
0.461000000000000298,2.665025677865666687
0.462000000000000299,2.660128963551102732
0.463000000000000300,2.654690589341984541
0.464000000000000301,2.648718459845116335
0.465000000000000302,2.642220657799648542
0.466000000000000303,2.635205433200309422
0.467000000000000304,2.627681192641799779
0.468000000000000305,2.619656488886118240
0.469000000000000306,2.611140010654279475
0.470000000000000306,2.602140572643509842
0.471000000000000307,2.592667105770803282
0.472000000000000308,2.582728647643360187
0.473000000000000309,2.572334333256229399
0.474000000000000310,2.561493385917153809
0.475000000000000311,2.550215108398445896
0.476000000000000312,2.538508874315440256
0.477000000000000313,2.526384119730846312
0.478000000000000314,2.513850334984180090
0.479000000000000314,2.500917056745145750
0.480000000000000315,2.487593860289776249
0.481000000000000316,2.473890351997851678
0.482000000000000317,2.459816162070044054
0.483000000000000318,2.445380937462979354
0.484000000000000319,2.430594335040377807
0.485000000000000320,2.415466014938167927
0.486000000000000321,2.400005634141455957
0.487000000000000322,2.384222840271000621
0.488000000000000322,2.368127265576871032
0.489000000000000323,2.351728521136669858
0.490000000000000324,2.335036191255801530
0.491000000000000325,2.318059828067046801
0.492000000000000326,2.300808946326657001
0.493000000000000327,2.283293018404149333
0.494000000000000328,2.265521469462809190
0.495000000000000329,2.247503672827993348
0.496000000000000330,2.229248945540128535
0.497000000000000330,2.210766544089315833
0.498000000000000331,2.192065660328441190
0.499000000000000332,2.173155417561576375
0.500000000000000333,2.154044866804439184
0.501000000000000334,2.134742983213744782
0.502000000000000335,2.115258662682087287
0.503000000000000336,2.095600718595147960
0.504000000000000337,2.075777878747869121
0.505000000000000338,2.055798782416320414
0.506000000000000338,2.035671977581914316
0.507000000000000339,2.015405918304658428
0.508000000000000340,1.995008962242132311
0.509000000000000341,1.974489368310843318
0.510000000000000342,1.953855294486690486
0.511000000000000343,1.933114795741185166
0.512000000000000344,1.912275822110194756
0.513000000000000345,1.891346216891909959
0.514000000000000346,1.870333714970753292
0.515000000000000346,1.849245941264078485
0.516000000000000347,1.828090409288366747
0.517000000000000348,1.806874519841784821
0.518000000000000349,1.785605559799925413
0.519000000000000350,1.764290701021640206
0.520000000000000351,1.742936999361814454
0.521000000000000352,1.721551393788063322
0.522000000000000353,1.700140705598324420
0.523000000000000353,1.678711637736302054
0.524000000000000354,1.657270774201891950
0.525000000000000355,1.635824579553567748
0.526000000000000356,1.614379398499965035
0.527000000000000357,1.592941455577717269
0.528000000000000358,1.571516854912821781
0.529000000000000359,1.550111580062744521
0.530000000000000360,1.528731493936580588
0.531000000000000361,1.507382338790572707
0.532000000000000361,1.486069736296383947
0.533000000000000362,1.464799187679531212
0.534000000000000363,1.443576073925479930
0.535000000000000364,1.422405656050849121
0.536000000000000365,1.401293075437352709
0.537000000000000366,1.380243354226032615
0.538000000000000367,1.359261395769457703
0.539000000000000368,1.338351985139560885
0.540000000000000369,1.317519789688889276
0.541000000000000369,1.296769359663012100
0.542000000000000370,1.276105128861973137
0.543000000000000371,1.255531415348618562
0.544000000000000372,1.235052422201754929
0.545000000000000373,1.214672238312104913
0.546000000000000374,1.194394839219073301
0.547000000000000375,1.174224087986394105
0.548000000000000376,1.154163736114756977
0.549000000000000377,1.134217424489592174
0.550000000000000377,1.114388684362163540
0.551000000000000378,1.094680938362271316
0.552000000000000379,1.075097501540814182
0.553000000000000380,1.055641582440535631
0.554000000000000381,1.036316284193363746
0.555000000000000382,1.017124605642712787
0.556000000000000383,0.998069442489253000
0.557000000000000384,0.979153588458593349
0.558000000000000385,0.960379736489479385
0.559000000000000385,0.941750479941023899
0.560000000000000386,0.923268313817641073
0.561000000000000387,0.904935636010313238
0.562000000000000388,0.886754748552917804
0.563000000000000389,0.868727858892299865
0.564000000000000390,0.850857081170938501
0.565000000000000391,0.833144437520948800
0.566000000000000392,0.815591859368326899
0.567000000000000393,0.798201188746264001
0.568000000000000393,0.780974179616516273
0.569000000000000394,0.763912499197710870
0.570000000000000395,0.747017729299652600
0.571000000000000396,0.730291367662596280
0.572000000000000397,0.713734829300550766
0.573000000000000398,0.697349447847742221
0.574000000000000399,0.681136476907290844
0.575000000000000400,0.665097091401307905
0.576000000000000401,0.649232388921571535
0.577000000000000401,0.633543391079967932
0.578000000000000402,0.618031044857976886
0.579000000000000403,0.602696223954465760
0.580000000000000404,0.587539730131036997
0.581000000000000405,0.572562294554330942
0.582000000000000406,0.557764579134560790
0.583000000000000407,0.543147177859704899
0.584000000000000408,0.528710618124731080
0.585000000000000409,0.514455362055304954
0.586000000000000409,0.500381807825390212
0.587000000000000410,0.486490290968261963
0.588000000000000411,0.472781085680412883
0.589000000000000412,0.459254406117842850
0.590000000000000413,0.445910407684337151
0.591000000000000414,0.432749188311239874
0.592000000000000415,0.419770789728329874
0.593000000000000416,0.406975198725413267
0.594000000000000417,0.394362348404240337
0.595000000000000417,0.381932119420396843
0.596000000000000418,0.369684341214843781
0.597000000000000419,0.357618793234766474
0.598000000000000420,0.345735206143458151
0.599000000000000421,0.334033263018926052
0.600000000000000422,0.322512600540971417
0.601000000000000423,0.311172810166508385
0.602000000000000424,0.300013439292846074
0.603000000000000425,0.289033992408734508
0.604000000000000425,0.278233932233003634
0.605000000000000426,0.267612680840556449
0.606000000000000427,0.257169620775544894
0.607000000000000428,0.246904096151637859
0.608000000000000429,0.236815413739093067
0.609000000000000430,0.226902844038682272
0.610000000000000431,0.217165622342156805
0.611000000000000432,0.207602949779283008
0.612000000000000433,0.198213994351298217
0.613000000000000433,0.188997891950656693
0.614000000000000434,0.179953747367069927
0.615000000000000435,0.171080635279717452
0.616000000000000436,0.162377601235589419
0.617000000000000437,0.153843662613895676
0.618000000000000438,0.145477809576539718
0.619000000000000439,0.137279006004599802
0.620000000000000440,0.129246190420799600
