# SiO2-Quartz_CS-234-AC
# h[nm],U(h)[kJ/mol]
0.149999999999999994,121.617070181564145059
0.150999999999999995,119.171371720548833650
0.151999999999999996,117.269983396689966071
0.152999999999999997,115.541602482787908457
0.153999999999999998,113.839210515584639438
0.154999999999999999,112.123909218612837435
0.156000000000000000,110.401525835154984634
0.157000000000000001,108.690438797684265637
0.158000000000000002,107.007156150654594740
0.159000000000000002,105.361428085426013013
0.160000000000000003,103.756032386093394848
0.161000000000000004,102.188478854109277449
0.162000000000000005,100.653169841768416859
0.163000000000000006,99.143320093542527616
0.164000000000000007,97.652373683633740598
0.165000000000000008,96.174886041482238852
0.166000000000000009,94.706947164494067692
0.167000000000000010,93.246260474414881969
0.168000000000000010,91.791992931146381807
0.169000000000000011,90.344495614244721082
0.170000000000000012,88.904971373074729968
0.171000000000000013,87.475143483573134517
0.172000000000000014,86.056959506549475236
0.173000000000000015,84.652348826222763023
0.174000000000000016,83.263040730886658025
0.175000000000000017,81.890441934435528992
0.176000000000000018,80.535567472229416808
0.177000000000000018,79.199016247053151574
0.178000000000000019,77.880981517407263937
0.179000000000000020,76.581286775411598455
0.180000000000000021,75.299438328224823636
0.181000000000000022,74.034687151387785775
0.182000000000000023,72.786093991394722025
0.183000000000000024,71.552593098802503846
0.184000000000000025,70.333051271368859148
0.185000000000000026,69.126320022104138729
0.186000000000000026,67.931279634530341127
0.187000000000000027,66.746874623544613314
0.188000000000000028,65.572140695902675134
0.189000000000000029,64.406223718604039163
0.190000000000000030,63.248391479597671605
0.191000000000000031,62.098039187586536514
0.192000000000000032,60.954689729833468448
0.193000000000000033,59.817989710277075233
0.194000000000000034,58.687702243837406968
0.195000000000000034,57.563697402482297605
0.196000000000000035,56.445941107515146484
0.197000000000000036,55.334483150993079903
0.198000000000000037,54.229444915116062020
0.199000000000000038,53.131007247660491544
0.200000000000000039,52.039398848109158280
0.201000000000000040,50.954885425644640407
0.202000000000000041,49.877759808067104075
0.203000000000000042,48.808333110523832943
0.204000000000000042,47.746927014587193128
0.205000000000000043,46.693867161115420572
0.206000000000000044,45.649477623583479158
0.207000000000000045,44.614076401101392833
0.208000000000000046,43.587971850972380139
0.209000000000000047,42.571459968192307599
0.210000000000000048,41.564822412597720813
0.211000000000000049,40.568325182348914382
0.212000000000000050,39.582217834090336339
0.213000000000000050,38.606733154587246304
0.214000000000000051,37.642087195114534381
0.215000000000000052,36.688479587721481323
0.216000000000000053,35.746094071158594829
0.217000000000000054,34.815099163283115047
0.218000000000000055,33.895648925797857487
0.219000000000000056,32.987883775949555343
0.220000000000000057,32.091931308105799303
0.221000000000000058,31.207907095808099740
0.222000000000000058,30.335915451856259040
0.223000000000000059,29.476050130175327268
0.224000000000000060,28.628394958624102884
0.225000000000000061,27.793024396536861076
0.226000000000000062,26.970004014673701676
0.227000000000000063,26.159390898434800476
0.228000000000000064,25.361233977724516819
0.229000000000000065,24.575574288789876931
0.230000000000000066,23.802445174774167214
0.231000000000000066,23.041872432678559335
0.232000000000000067,22.293874414982372656
0.233000000000000068,21.558462094392460529
0.234000000000000069,20.835639100134965673
0.235000000000000070,20.125401733919733971
0.236000000000000071,19.427738973248825260
0.237000000000000072,18.742632469147128660
0.238000000000000073,18.070056544705799695
0.239000000000000073,17.409978200081017263
0.240000000000000074,16.762357128806140594
0.241000000000000075,16.127145749485769954
0.242000000000000076,15.504289256158717336
0.243000000000000077,14.893725689862634454
0.244000000000000078,14.295386033218949962
0.245000000000000079,13.709194329189855921
0.246000000000000080,13.135067824549844673
0.247000000000000081,12.572917138062450704
0.248000000000000081,12.022646452865513922
0.249000000000000082,11.484153732143351334
0.250000000000000111,10.957330956801467181
0.251000000000000112,10.442064383558335550
0.252000000000000113,9.938234821624282844
0.253000000000000114,9.445717925950393834
0.254000000000000115,8.964384504891008021
0.255000000000000115,8.494100840033636857
0.256000000000000116,8.034729015900907712
0.257000000000000117,7.586127257218620912
0.258000000000000118,7.148150271467230255
0.259000000000000119,6.720649594485829326
0.260000000000000120,6.303473936974407721
0.261000000000000121,5.896469529838348933
0.262000000000000122,5.499480466433487535
0.263000000000000123,5.112349039898871794
0.264000000000000123,4.734916073902600608
0.265000000000000124,4.367021245272340479
0.266000000000000125,4.008503397132628265
0.267000000000000126,3.659200841324076414
0.268000000000000127,3.318951649032084728
0.269000000000000128,2.987593928704634028
0.270000000000000129,2.664966090486274197
0.271000000000000130,2.350907096538672914
0.272000000000000131,2.045256696756063697
0.273000000000000131,1.747855649514462373
0.274000000000000132,1.458545927217407279
0.275000000000000133,1.177170906516350701
0.276000000000000134,0.903575543191151076
0.277000000000000135,0.637606531775402496
0.278000000000000136,0.379112450100803522
0.279000000000000137,0.127943889016654933
0.280000000000000138,-0.116046432386322979
0.281000000000000139,-0.353003565654672002
0.282000000000000139,-0.583070245503244933
0.283000000000000140,-0.806386815500442999
0.284000000000000141,-1.023091166368169436
0.285000000000000142,-1.233318686323442659
0.286000000000000143,-1.437202222861442280
0.287000000000000144,-1.634872055358874476
0.288000000000000145,-1.826455877862183996
0.289000000000000146,-2.012078791414978696
0.290000000000000147,-2.191863305275446372
0.291000000000000147,-2.365929346374035624
0.292000000000000148,-2.534394276366580989
0.293000000000000149,-2.697372915645535940
0.294000000000000150,-2.854977573683707526
0.295000000000000151,-3.007318085098972027
0.296000000000000152,-3.154501850845282895
0.297000000000000153,-3.296633883954199540
0.298000000000000154,-3.433816859272175837
0.299000000000000155,-3.566151166660978866
0.300000000000000155,-3.693734967152509707
0.301000000000000156,-3.816664251573567590
0.302000000000000157,-3.935032901181782616
0.303000000000000158,-4.048932749879403659
0.304000000000000159,-4.158453647598014058
0.305000000000000160,-4.263683524473143471
0.306000000000000161,-4.364708455454074709
0.307000000000000162,-4.461612725019919345
0.308000000000000163,-4.554478891698432008
0.309000000000000163,-4.643387852109141178
0.310000000000000164,-4.728418904276756152
0.311000000000000165,-4.809649809984382074
0.312000000000000166,-4.887156855959245760
0.313000000000000167,-4.961014913705488638
0.314000000000000168,-5.031297497819985587
0.315000000000000169,-5.098076822647348294
0.316000000000000170,-5.161423857149770811
0.317000000000000171,-5.221408377885508045
0.318000000000000171,-5.278099020007378961
0.319000000000000172,-5.331563326208997644
0.320000000000000173,-5.381867793561790236
0.321000000000000174,-5.429077918200277963
0.322000000000000175,-5.473258237826557959
0.323000000000000176,-5.514472372017329427
0.324000000000000177,-5.552783060328382980
0.325000000000000178,-5.588252198201888454
0.326000000000000179,-5.620940870691880420
0.327000000000000179,-5.650909384031765903
0.328000000000000180,-5.678217295075873139
0.329000000000000181,-5.702923438654475596
0.330000000000000182,-5.725085952887607910
0.331000000000000183,-5.744762302509412777
0.332000000000000184,-5.762009300259126832
0.333000000000000185,-5.776883126399569690
0.334000000000000186,-5.789439346427609046
0.335000000000000187,-5.799732927044146003
0.336000000000000187,-5.807818250453989251
0.337000000000000188,-5.813749127067646683
0.338000000000000189,-5.817578806679169823
0.339000000000000190,-5.819359988194973354
0.340000000000000191,-5.819144827989330970
0.341000000000000192,-5.816984946962747038
0.342000000000000193,-5.812931436379249028
0.343000000000000194,-5.807034862558476895
0.344000000000000195,-5.799345270497481053
0.345000000000000195,-5.789912186496842139
0.346000000000000196,-5.778784619863917449
0.347000000000000197,-5.766011063765216882
0.348000000000000198,-5.751639495298090488
0.349000000000000199,-5.735717374850236361
0.350000000000000200,-5.718291644813833230
0.351000000000000201,-5.699408727718902057
0.352000000000000202,-5.679114523848544316
0.353000000000000203,-5.657454408396544565
0.354000000000000203,-5.634473228225494346
0.355000000000000204,-5.610215298281211460
0.356000000000000205,-5.584724397717039324
0.357000000000000206,-5.558043765779205003
0.358000000000000207,-5.530216097501636341
0.359000000000000208,-5.501283539256792032
0.360000000000000209,-5.471287684206178170
0.361000000000000210,-5.440269567691965236
0.362000000000000210,-5.408269662608775619
0.363000000000000211,-5.375327874792228400
0.364000000000000212,-5.341483538458617453
0.365000000000000213,-5.306775411727678637
0.366000000000000214,-5.271241672258255129
0.367000000000000215,-5.234919913024367766
0.368000000000000216,-5.197847138257202459
0.369000000000000217,-5.160059759576246741
0.370000000000000218,-5.121593592330984102
0.371000000000000218,-5.082483852172354766
0.372000000000000219,-5.042765151871583029
0.373000000000000220,-5.002471498401883210
0.374000000000000221,-4.961636290296989493
0.375000000000000222,-4.920292315298557817
0.376000000000000223,-4.878471748303164546
0.377000000000000224,-4.836206149617779282
0.378000000000000225,-4.793526463531316395
0.379000000000000226,-4.750463017208323535
0.380000000000000226,-4.707045519909754283
0.381000000000000227,-4.663303062544128963
0.382000000000000228,-4.619264117551656668
0.383000000000000229,-4.574956539122377208
0.384000000000000230,-4.530407563748463318
0.385000000000000231,-4.485643811110001877
0.386000000000000232,-4.440691285292242441
0.387000000000000233,-4.395575376331869677
0.388000000000000234,-4.350320862088658203
0.389000000000000234,-4.304951910438493456
0.390000000000000235,-4.259492081782656037
0.391000000000000236,-4.213964331867999569
0.392000000000000237,-4.168391014911749792
0.393000000000000238,-4.122793887024398529
0.394000000000000239,-4.077194109923408583
0.395000000000000240,-4.031612254930246664
0.396000000000000241,-3.986068307242751185
0.397000000000000242,-3.940581670474431863
0.398000000000000242,-3.895171171452186165
0.399000000000000243,-3.849855065263462883
0.400000000000000244,-3.804651040543693963
0.401000000000000245,-3.759576224994858329
0.402000000000000246,-3.714647191125460601
0.403000000000000247,-3.669879962202479362
0.404000000000000248,-3.625290018405523451
0.405000000000000249,-3.580892303173451641
0.406000000000000250,-3.536701229733572482
0.407000000000000250,-3.492730687803706324
0.408000000000000251,-3.448994050457172111
0.409000000000000252,-3.405504181141010722
0.410000000000000253,-3.362273440837641569
0.411000000000000254,-3.319313695360313066
0.412000000000000255,-3.276636322772761734
0.413000000000000256,-3.234252220923646171
0.414000000000000257,-3.192171815086302100
0.415000000000000258,-3.150405065694755091
0.416000000000000258,-3.108961476166776983
0.417000000000000259,-3.067850100805180169
0.418000000000000260,-3.027079552768557669
0.419000000000000261,-2.986658012102929138
0.420000000000000262,-2.946593233825911984
0.421000000000000263,-2.906892556055284071
0.422000000000000264,-2.867562908173894698
0.423000000000000265,-2.828610819023188228
0.424000000000000266,-2.790042425117872149
0.425000000000000266,-2.751863478874235103
0.426000000000000267,-2.714079356845150226
0.427000000000000268,-2.676695067954795615
0.428000000000000269,-2.639715261726431450
0.429000000000000270,-2.603144236496876651
0.430000000000000271,-2.566985947611332364
0.431000000000000272,-2.531244015592735153
0.432000000000000273,-2.495921734279762827
0.433000000000000274,-2.461022078928062573
0.434000000000000274,-2.426547714269326583
0.435000000000000275,-2.392501002523211184
0.436000000000000276,-2.358884011357237576
0.437000000000000277,-2.325698521790005024
0.438000000000000278,-2.292946036033381318
0.439000000000000279,-2.260627785269446299
0.440000000000000280,-2.228744737358205441
0.441000000000000281,-2.197297604472308930
0.442000000000000282,-2.166286850655293250
0.443000000000000282,-2.135712699299831208
0.444000000000000283,-2.105575140543027857
0.445000000000000284,-2.075873938575664379
0.446000000000000285,-2.046608638862613461
0.447000000000000286,-2.017778575272012542
0.448000000000000287,-1.989382877110541958
0.449000000000000288,-1.961420476062824658
0.450000000000000289,-1.933890113032726621
0.451000000000000290,-1.906790344884758071
0.452000000000000290,-1.880119551083868190
0.453000000000000291,-1.853875940232004638
0.454000000000000292,-1.828057556500128467
0.455000000000000293,-1.802662285954339527
0.456000000000000294,-1.777687862775074734
0.457000000000000295,-1.753131875368384218
0.458000000000000296,-1.728991772368430491
0.459000000000000297,-1.705264868530558475
0.460000000000000298,-1.681948350514308688
0.461000000000000298,-1.659039282555965444
0.462000000000000299,-1.636534612030282831
0.463000000000000300,-1.614431174901132193
0.464000000000000301,-1.592725701061027621
0.465000000000000302,-1.571414819559467713
0.466000000000000303,-1.550495063720163547
0.467000000000000304,-1.529962876147385575
0.468000000000000305,-1.509814613621674129
0.469000000000000306,-1.490046551885242154
0.470000000000000306,-1.470654890317614427
0.471000000000000307,-1.451635756501865160
0.472000000000000308,-1.432985210682211630
0.473000000000000309,-1.414699250113511386
0.474000000000000310,-1.396773813303460843
0.475000000000000311,-1.379204784148244212
0.476000000000000312,-1.361987995962576692
0.477000000000000313,-1.345119235404927949
0.478000000000000314,-1.328594246298989479
0.479000000000000314,-1.312408733352398160
0.480000000000000315,-1.296558365773701649
0.481000000000000316,-1.281038780788791964
0.482000000000000317,-1.265845587057833121
0.483000000000000318,-1.250974367993969549
0.484000000000000319,-1.236420684984962159
0.485000000000000320,-1.222180080519069678
0.486000000000000321,-1.208248081216410252
0.487000000000000322,-1.194620200767144258
0.488000000000000322,-1.181291942777768167
0.489000000000000323,-1.168258803526965206
0.490000000000000324,-1.155516274632301998
0.491000000000000325,-1.143059845629221583
0.492000000000000326,-1.130885006463700382
0.493000000000000327,-1.118987249900060377
0.494000000000000328,-1.107362073845310935
0.495000000000000329,-1.096004983591508219
0.496000000000000330,-1.084911493977555264
0.497000000000000330,-1.074077131471966151
0.498000000000000331,-1.063497436177959887
0.499000000000000332,-1.053167963762474679
0.500000000000000333,-1.043084287310499292
0.501000000000000334,-1.033241999106187636
0.502000000000000335,-1.023636712342287591
0.503000000000000336,-1.014264062759309137
0.504000000000000337,-1.005119710215906181
0.505000000000000338,-0.996199340191939009
0.506000000000000338,-0.987498665225680305
0.507000000000000339,-0.979013426286595490
0.508000000000000340,-0.970739394085139429
0.509000000000000341,-0.962672370321047688
0.510000000000000342,-0.954808188871462349
0.511000000000000343,-0.947142716920387207
0.512000000000000344,-0.939671856030806163
0.513000000000000345,-0.932391543160892566
0.514000000000000346,-0.925297751625701936
0.515000000000000346,-0.918386492005638266
0.516000000000000347,-0.911653813003108882
0.517000000000000348,-0.905095802248706116
0.518000000000000349,-0.898708587058151154
0.519000000000000350,-0.892488335141411016
0.520000000000000351,-0.886431255265194173
0.521000000000000352,-0.880533597870143181
0.522000000000000353,-0.874791655643947785
0.523000000000000353,-0.869201764051616754
0.524000000000000354,-0.863760301824169519
0.525000000000000355,-0.858463691406881169
0.526000000000000356,-0.853308399368304493
0.527000000000000357,-0.848290936771255333
0.528000000000000358,-0.843407859506826285
0.529000000000000359,-0.838655768592670214
0.530000000000000360,-0.834031310436543327
0.531000000000000361,-0.829531177066302861
0.532000000000000361,-0.825152106327343704
0.533000000000000362,-0.820890882048604942
0.534000000000000363,-0.816744334178099884
0.535000000000000364,-0.812709338889059163
0.536000000000000365,-0.808782818657616587
0.537000000000000366,-0.804961742313072270
0.538000000000000367,-0.801243125061618322
0.539000000000000368,-0.797624028484569036
0.540000000000000369,-0.794101560511881521
0.541000000000000369,-0.790672875372005368
0.542000000000000370,-0.787335173518822762
0.543000000000000371,-0.784085701536617163
0.544000000000000372,-0.780921752023895022
0.545000000000000373,-0.777840663456873527
0.546000000000000374,-0.774839820033449644
0.547000000000000375,-0.771916651498436135
0.548000000000000376,-0.769068632950861808
0.549000000000000377,-0.766293284634042005
0.550000000000000377,-0.763588171709188024
0.551000000000000378,-0.760950904013271034
0.552000000000000379,-0.758379135801828252
0.553000000000000380,-0.755870565477413936
0.554000000000000381,-0.753422935304324470
0.555000000000000382,-0.751034031110317191
0.556000000000000383,-0.748701681975860622
0.557000000000000384,-0.746423759911638007
0.558000000000000385,-0.744198179524804937
0.559000000000000385,-0.742022897674676551
0.560000000000000386,-0.739895913118342241
0.561000000000000387,-0.737815266146810478
0.562000000000000388,-0.735779038212187930
0.563000000000000389,-0.733785351546460629
0.564000000000000390,-0.731832368772329267
0.565000000000000391,-0.729918292506649968
0.566000000000000392,-0.728041364956920178
0.567000000000000393,-0.726199867511308383
0.568000000000000393,-0.724392120322650657
0.569000000000000394,-0.722616481886880213
0.570000000000000395,-0.720871348616304863
0.571000000000000396,-0.719155154408129715
0.572000000000000397,-0.717466370208682536
0.573000000000000398,-0.715803503573641198
0.574000000000000399,-0.714165098224736949
0.575000000000000400,-0.712549733603209723
0.576000000000000401,-0.710956024420423605
0.577000000000000401,-0.709382620205987302
0.578000000000000402,-0.707828204853659715
0.579000000000000403,-0.706291496165389776
0.580000000000000404,-0.704771245393827073
0.581000000000000405,-0.703266236783532950
0.582000000000000406,-0.701775287111243373
0.583000000000000407,-0.700297245225414922
0.584000000000000408,-0.698830991585347672
0.585000000000000409,-0.697375437800121456
0.586000000000000409,-0.695929526167612833
0.587000000000000410,-0.694492229213820034
0.588000000000000411,-0.693062549232709491
0.589000000000000412,-0.691639517826849848
0.590000000000000413,-0.690222195448983333
0.591000000000000414,-0.688809670944782626
0.592000000000000415,-0.687401061096985733
0.593000000000000416,-0.685995510171061529
0.594000000000000417,-0.684592189462612133
0.595000000000000417,-0.683190296846711953
0.596000000000000418,-0.681789056329250576
0.597000000000000419,-0.680387717600564934
0.598000000000000420,-0.678985555591398171
0.599000000000000421,-0.677581870031398692
0.600000000000000422,-0.676175985010263991
0.601000000000000423,-0.674767248541663478
0.602000000000000424,-0.673355032130064424
0.603000000000000425,-0.671938730340597368
0.604000000000000425,-0.670517760372029037
0.605000000000000426,-0.669091561632978449
0.606000000000000427,-0.667659595321509203
0.607000000000000428,-0.666221344008064098
0.608000000000000429,-0.664776311222047278
0.609000000000000430,-0.663324021041867606
0.610000000000000431,-0.661864017688793771
0.611000000000000432,-0.660395865124484338
0.612000000000000433,-0.658919146652353960
0.613000000000000433,-0.657433464522867217
