# SiO2-Quartz_CS-6331-AC
# h[nm],U(h)[kJ/mol]
0.200000000000000011,71.148795333649474060
0.201000000000000012,69.975517707789748556
0.202000000000000013,68.791033537365180450
0.203000000000000014,67.601894584418317891
0.204000000000000015,66.411481722877013567
0.205000000000000016,65.221666921714842147
0.206000000000000016,64.033737412244562393
0.207000000000000017,62.848857846439990738
0.208000000000000018,61.668256357198650619
0.209000000000000019,60.493256919401837024
0.210000000000000020,59.325236133072564826
0.211000000000000021,58.165552180465752485
0.212000000000000022,57.015473300333667339
0.213000000000000023,55.876119767393092275
0.214000000000000024,54.748424936325385204
0.215000000000000024,53.633115864137344886
0.216000000000000025,52.530711253000177408
0.217000000000000026,51.441533169234205047
0.218000000000000027,50.365728640017941586
0.219000000000000028,49.303297426533887915
0.220000000000000029,48.254122763513962013
0.221000000000000030,47.218002472028096861
0.222000000000000031,46.194678488872078503
0.223000000000000032,45.183863449400377021
0.224000000000000032,44.185263477903319540
0.225000000000000033,43.198596766890659637
0.226000000000000034,42.223607862503897081
0.227000000000000035,41.260077823736359903
0.228000000000000036,40.307830598165082847
0.229000000000000037,39.366736068193560527
0.230000000000000038,38.436710281311164294
0.231000000000000039,37.517713396889732280
0.232000000000000040,36.609745870705140192
0.233000000000000040,35.712843365450588351
0.234000000000000041,34.827070828316003315
0.235000000000000042,33.952516121169793450
0.236000000000000043,33.089283529650309390
0.237000000000000044,32.237487418085351010
0.238000000000000045,31.397246240178866117
0.239000000000000046,30.568677062609857842
0.240000000000000047,29.751890711195386530
0.241000000000000048,28.946987607691358591
0.242000000000000048,28.154054329846577076
0.243000000000000049,27.373160897905854938
0.244000000000000050,26.604358767081457415
0.245000000000000051,25.847679487136009158
0.246000000000000052,25.103133976624043555
0.247000000000000053,24.370712349947307729
0.248000000000000054,23.650384229609965558
0.249000000000000055,22.942099473344192972
0.250000000000000056,22.245789245571081949
0.251000000000000056,21.561367364466917707
0.252000000000000057,20.888731859267430480
0.253000000000000058,20.227766676962442460
0.254000000000000059,19.578343482858198144
0.255000000000000060,18.940323505319142328
0.256000000000000061,18.313559381091586431
0.257000000000000062,17.697896963755106015
0.258000000000000063,17.093177063876812127
0.259000000000000064,16.499237095231826800
0.260000000000000064,15.915912606901940762
0.261000000000000065,15.343038686107183466
0.262000000000000066,14.780451221212880242
0.263000000000000067,14.227988018466167119
0.264000000000000068,13.685489769639008983
0.265000000000000069,13.152800870893344154
0.266000000000000070,12.629770095855032963
0.267000000000000071,12.116251128104698509
0.268000000000000071,11.612102960097825388
0.269000000000000072,11.117190166941563589
0.270000000000000073,10.631383064518752590
0.271000000000000074,10.154557762195164372
0.272000000000000075,9.686596120809406685
0.273000000000000076,9.227385626862734114
0.274000000000000077,8.776819193830830201
0.275000000000000078,8.334794901344682927
0.276000000000000079,7.901215682663152329
0.277000000000000079,7.475988970412312362
0.278000000000000080,7.059026310024687056
0.279000000000000081,6.650242949694155747
0.280000000000000082,6.249557414994122873
0.281000000000000083,5.856891075602506547
0.282000000000000084,5.472167710855631917
0.283000000000000085,5.095313080126227412
0.284000000000000086,4.726254503300137522
0.285000000000000087,4.364920455923534170
0.286000000000000087,4.011240182912489516
0.287000000000000088,3.665143334068688752
0.288000000000000089,3.326559624032201068
0.289000000000000090,2.995418518728584001
0.290000000000000091,2.671648949836624709
0.291000000000000092,2.355179058314187390
0.292000000000000093,2.045935967576152592
0.293000000000000094,1.743845586518385504
0.294000000000000095,1.448832442225505002
0.295000000000000095,1.160819541885781181
0.296000000000000096,0.879728263163928603
0.297000000000000097,0.605478272047864197
0.298000000000000098,0.337987466988677321
0.299000000000000099,0.077171947989970929
0.300000000000000100,-0.177053990827230640
0.301000000000000101,-0.424777846759087807
0.302000000000000102,-0.666088873800803727
0.303000000000000103,-0.901078029373091338
0.304000000000000103,-1.129837904216033584
0.305000000000000104,-1.352462637180102956
0.306000000000000105,-1.569047816632663794
0.307000000000000106,-1.779690370171475022
0.308000000000000107,-1.984488444296811593
0.309000000000000108,-2.183541275642019830
0.310000000000000109,-2.376949055301695424
0.311000000000000110,-2.564812787726851617
0.312000000000000111,-2.747234145582115872
0.313000000000000111,-2.924315321878855123
0.314000000000000112,-3.096158880614826359
0.315000000000000113,-3.262867607064472431
0.316000000000000114,-3.424544358776542285
0.317000000000000115,-3.581291918247471617
0.318000000000000116,-3.733212848151558738
0.319000000000000117,-3.880409349922366857
0.320000000000000118,-4.022983126395014430
0.321000000000000119,-4.161035249136855185
0.322000000000000119,-4.294666031014084062
0.323000000000000120,-4.423974904465285185
0.324000000000000121,-4.549060305880091803
0.325000000000000122,-4.670019566411301781
0.326000000000000123,-4.786948809483302369
0.327000000000000124,-4.899942855197927827
0.328000000000000125,-5.009095131781283960
0.329000000000000126,-5.114497594161296234
0.330000000000000127,-5.216240649716352706
0.331000000000000127,-5.314413091189724270
0.332000000000000128,-5.409102036722963192
0.333000000000000129,-5.500392876923740459
0.334000000000000130,-5.588369228849423109
0.335000000000000131,-5.673112896757762869
0.336000000000000132,-5.754703839448610303
0.337000000000000133,-5.833220143997498219
0.338000000000000134,-5.908738005661455794
0.339000000000000135,-5.981331713719717946
0.340000000000000135,-6.051073642998046509
0.341000000000000136,-6.118034250812874220
0.342000000000000137,-6.182282079062590974
0.343000000000000138,-6.243883761185752057
0.344000000000000139,-6.302904033701497433
0.345000000000000140,-6.359405752044103188
0.346000000000000141,-6.413449910402678533
0.347000000000000142,-6.465095665277294401
0.348000000000000143,-6.514400362465089245
0.349000000000000143,-6.561419567192894320
0.350000000000000144,-6.606207097117781757
0.351000000000000145,-6.648815057922258021
0.352000000000000146,-6.689293881237611927
0.353000000000000147,-6.727692364636183697
0.354000000000000148,-6.764057713441421704
0.355000000000000149,-6.798435584113340369
0.356000000000000150,-6.830870128976120448
0.357000000000000151,-6.861404042064227049
0.358000000000000151,-6.890078605873391382
0.359000000000000152,-6.916933738812798715
0.360000000000000153,-6.942008043165506237
0.361000000000000154,-6.965338853374089645
0.362000000000000155,-6.986962284479417917
0.363000000000000156,-7.006913280550699952
0.364000000000000157,-7.025225662955269179
0.365000000000000158,-7.041932178327195757
0.366000000000000159,-7.057064546103471336
0.367000000000000159,-7.070653505506899528
0.368000000000000160,-7.082728861864213243
0.369000000000000161,-7.093319532157626561
0.370000000000000162,-7.102453589717150351
0.371000000000000163,-7.110158307969880909
0.372000000000000164,-7.116460203171138588
0.373000000000000165,-7.121385076050591678
0.374000000000000166,-7.124958052314528167
0.375000000000000167,-7.127203621952775237
0.376000000000000167,-7.128145677306489070
0.377000000000000168,-7.127807549859556779
0.378000000000000169,-7.126212045723041122
0.379000000000000170,-7.123381479788453596
0.380000000000000171,-7.119337708531287667
0.381000000000000172,-7.114102161451958395
0.382000000000000173,-7.107695871146285427
0.383000000000000174,-7.100139502002726033
0.384000000000000175,-7.091453377527908053
0.385000000000000175,-7.081657506306219041
0.386000000000000176,-7.070771606603284631
0.387000000000000177,-7.058815129626434093
0.388000000000000178,-7.045807281458896121
0.389000000000000179,-7.031767043687158214
0.390000000000000180,-7.016713192743866401
0.391000000000000181,-7.000664317991054375
0.392000000000000182,-6.983638838570646712
0.393000000000000183,-6.965655019051268937
0.394000000000000183,-6.946730983902043022
0.395000000000000184,-6.926884730825700665
0.396000000000000185,-6.906134142984518220
0.397000000000000186,-6.884497000153817048
0.398000000000000187,-6.861990988838726935
0.399000000000000188,-6.838633711390569303
0.400000000000000189,-6.814442694159899006
0.401000000000000190,-6.789435394723708050
0.402000000000000191,-6.763629208224530842
0.403000000000000191,-6.737041472859397473
0.404000000000000192,-6.709689474556649103
0.405000000000000193,-6.681590450878438503
0.406000000000000194,-6.652761594186754834
0.407000000000000195,-6.623220054110349864
0.408000000000000196,-6.592982939349617766
0.409000000000000197,-6.562067318856101394
0.410000000000000198,-6.530490222422703717
0.411000000000000199,-6.498268640720020528
0.412000000000000199,-6.465419524813704300
0.413000000000000200,-6.431959785196899482
0.414000000000000201,-6.397906290371151883
0.415000000000000202,-6.363275865008226617
0.416000000000000203,-6.328085287724626973
0.417000000000000204,-6.292351288499541617
0.418000000000000205,-6.256090545766108235
0.419000000000000206,-6.219319683205058347
0.420000000000000207,-6.182055266268594806
0.421000000000000207,-6.144313798461761067
0.422000000000000208,-6.106111717407147310
0.423000000000000209,-6.067465390718247420
0.424000000000000210,-6.028391111705476924
0.425000000000000211,-5.988905094937939211
0.426000000000000212,-5.949023471683244857
0.427000000000000213,-5.908762285246339729
0.428000000000000214,-5.868137486227764654
0.429000000000000214,-5.827164927720398069
0.430000000000000215,-5.785860360463064289
0.431000000000000216,-5.744239427968386380
0.432000000000000217,-5.702317661641208346
0.433000000000000218,-5.660110475903198157
0.434000000000000219,-5.617633163338226154
0.435000000000000220,-5.574900889872322018
0.436000000000000221,-5.531928690001078230
0.437000000000000222,-5.488731462076612111
0.438000000000000222,-5.445323963665370748
0.439000000000000223,-5.401720806987291290
0.440000000000000224,-5.357936454446010188
0.441000000000000225,-5.313985214259110634
0.442000000000000226,-5.269881236196782837
0.443000000000000227,-5.225638507436316971
0.444000000000000228,-5.181270848539521801
0.445000000000000229,-5.136791909559230263
0.446000000000000230,-5.092215166280530170
0.447000000000000230,-5.047553916601893675
0.448000000000000231,-5.002821277060580663
0.449000000000000232,-4.958030179506244473
0.450000000000000233,-4.913193367926275812
0.451000000000000234,-4.868323395425598221
0.452000000000000235,-4.823432621363541450
0.453000000000000236,-4.778533208649561104
0.454000000000000237,-4.733637121199544495
0.455000000000000238,-4.688756121553628198
0.456000000000000238,-4.643901768656399476
0.457000000000000239,-4.599085415799742727
0.458000000000000240,-4.554318208728423301
0.459000000000000241,-4.509611083907961060
0.460000000000000242,-4.464974766954318497
0.461000000000000243,-4.420419771224283423
0.462000000000000244,-4.375956396565563900
0.463000000000000245,-4.331594728224867019
0.464000000000000246,-4.287344635912523572
0.465000000000000246,-4.243215773021555393
0.466000000000000247,-4.199217575999120378
0.467000000000000248,-4.155359263868006359
0.468000000000000249,-4.111649837895684279
0.469000000000000250,-4.068098081408232147
0.470000000000000251,-4.024712559746366658
0.471000000000000252,-3.981501620360544447
0.472000000000000253,-3.938473393042246418
0.473000000000000254,-3.895635790288046074
0.474000000000000254,-3.852996507793393643
0.475000000000000255,-3.810563025072615240
0.476000000000000256,-3.768342606201766642
0.477000000000000257,-3.726342300680860031
0.478000000000000258,-3.684568944411818592
0.479000000000000259,-3.643029160788663567
0.480000000000000260,-3.601729361896266024
0.481000000000000261,-3.560675749813929425
0.482000000000000262,-3.519874318020228543
0.483000000000000262,-3.479330852895352599
0.484000000000000263,-3.439050935317205848
0.485000000000000264,-3.399039942347655163
0.486000000000000265,-3.359303049005169406
0.487000000000000266,-3.319845230120147761
0.488000000000000267,-3.280671262269334143
0.489000000000000268,-3.241785725785642391
0.490000000000000269,-3.203193006839756940
0.491000000000000270,-3.164897299590002877
0.492000000000000270,-3.126902608396842087
0.493000000000000271,-3.089212750098598637
0.494000000000000272,-3.051831356344902879
0.495000000000000273,-3.014761875984420580
0.496000000000000274,-2.978007577503611891
0.497000000000000275,-2.941571551513098903
0.498000000000000276,-2.905456713278494085
0.499000000000000277,-2.869665805292469507
0.500000000000000222,-2.834201399884905825
0.501000000000000334,-2.799065901868137196
0.502000000000000224,-2.764261551214263424
0.503000000000000336,-2.729790425761534411
0.504000000000000226,-2.695654443947108625
0.505000000000000338,-2.661855367563162211
0.506000000000000227,-2.628394804533903617
0.507000000000000339,-2.595274211710543177
0.508000000000000229,-2.562494897681913297
0.509000000000000341,-2.530058025597968108
0.510000000000000231,-2.497964616004013649
0.511000000000000343,-2.466215549682971631
0.512000000000000233,-2.434811570503686795
0.513000000000000345,-2.403753288272802546
0.514000000000000234,-2.373041181588303239
0.515000000000000346,-2.342675600692337046
0.516000000000000236,-2.312656770321631416
0.517000000000000348,-2.282984792553290454
0.518000000000000238,-2.253659649644307983
0.519000000000000350,-2.224681206862822336
0.520000000000000240,-2.196049215309529679
0.521000000000000352,-2.167763314727485291
0.522000000000000242,-2.139823036298761583
0.523000000000000353,-2.112227805426371674
0.524000000000000243,-2.084976944500050777
0.525000000000000355,-2.058069675644440544
0.526000000000000245,-2.031505123448399619
0.527000000000000357,-2.005282317674058401
0.528000000000000247,-1.979400195944551299
0.529000000000000359,-1.953857606409100001
0.530000000000000249,-1.928653310384505826
0.531000000000000361,-1.903785984971883227
0.532000000000000250,-1.879254225647760901
0.533000000000000362,-1.855056548828514895
0.534000000000000252,-1.831191394407345685
0.535000000000000364,-1.807657128262916801
0.536000000000000254,-1.784452044738954246
0.537000000000000366,-1.761574369093950043
0.538000000000000256,-1.739022259920503855
0.539000000000000368,-1.716793811533440017
0.540000000000000258,-1.694887056326362496
0.541000000000000369,-1.673299967095871255
0.542000000000000259,-1.652030459333188706
0.543000000000000371,-1.631076393482546294
0.544000000000000261,-1.610435577166059229
0.545000000000000373,-1.590105767374659251
0.546000000000000263,-1.570084672624804556
0.547000000000000375,-1.550369955080569628
0.548000000000000265,-1.530959232641077250
0.549000000000000377,-1.511850080992768408
0.550000000000000266,-1.493040035626600703
0.551000000000000378,-1.474526593819819098
0.552000000000000268,-1.456307216582309660
0.553000000000000380,-1.438379330567363112
0.554000000000000270,-1.420740329946873493
0.555000000000000382,-1.403387578250817169
0.556000000000000272,-1.386318410171186510
0.557000000000000384,-1.369530133330174149
0.558000000000000274,-1.353020030012908048
0.559000000000000385,-1.336785358864561513
0.560000000000000275,-1.320823356552143890
0.561000000000000387,-1.305131239390939557
0.562000000000000277,-1.289706204935808120
0.563000000000000389,-1.274545433537482397
0.564000000000000279,-1.259646089864053353
0.565000000000000391,-1.245005324387810086
0.566000000000000281,-1.230620274837685768
0.567000000000000393,-1.216488067617492508
0.568000000000000282,-1.202605819190265990
0.569000000000000394,-1.188970637428870436
0.570000000000000284,-1.175579622933250246
0.571000000000000396,-1.162429870314533042
0.572000000000000286,-1.149518469446363822
0.573000000000000398,-1.136842506683667153
0.574000000000000288,-1.124399066049289519
0.575000000000000400,-1.112185230388780477
0.576000000000000290,-1.100198082493661689
0.577000000000000401,-1.088434706193557755
0.578000000000000291,-1.076892187417549440
0.579000000000000403,-1.065567615225083919
0.580000000000000293,-1.054458082806883024
0.581000000000000405,-1.043560688456152352
0.582000000000000295,-1.032872536510568207
0.583000000000000407,-1.022390738265352095
0.584000000000000297,-1.012112412857899768
0.585000000000000409,-1.002034688124331385
0.586000000000000298,-0.992154701428391683
0.587000000000000410,-0.982469600463095616
0.588000000000000300,-0.972976544025562107
0.589000000000000412,-0.963672702765405953
0.590000000000000302,-0.954555259907163389
0.591000000000000414,-0.945621411947152213
0.592000000000000304,-0.936868369325174144
0.593000000000000416,-0.928293357071490854
0.594000000000000306,-0.919893615429543288
0.595000000000000417,-0.911666400454765880
0.596000000000000307,-0.903608984589979292
0.597000000000000419,-0.895718657217765779
0.598000000000000309,-0.887992725190276055
0.599000000000000421,-0.880428513336827145
0.600000000000000311,-0.873023364949819247
0.601000000000000423,-0.865774642249287907
0.602000000000000313,-0.858679726826604650
0.603000000000000425,-0.851736020067648369
0.604000000000000314,-0.844940943555985591
0.605000000000000426,-0.838291939456339952
0.606000000000000316,-0.831786470878882356
0.607000000000000428,-0.825422022224659324
0.608000000000000318,-0.819196099512643494
0.609000000000000430,-0.813106230688735998
0.610000000000000320,-0.807149965917192680
0.611000000000000432,-0.801324877854807882
0.612000000000000322,-0.795628561908293119
0.613000000000000433,-0.790058636475223564
0.614000000000000323,-0.784612743168937365
0.615000000000000435,-0.779288547027781164
0.616000000000000325,-0.774083736709060055
0.617000000000000437,-0.768996024668085587
0.618000000000000327,-0.764023147322695495
0.619000000000000439,-0.759162865203570791
0.620000000000000329,-0.754412963090770439
0.621000000000000441,-0.749771250136797129
0.622000000000000330,-0.745235559976560991
0.623000000000000442,-0.740803750824591045
0.624000000000000332,-0.736473705559828717
0.625000000000000444,-0.732243331798354768
0.626000000000000334,-0.728110561954374402
0.627000000000000446,-0.724073353289786281
0.628000000000000336,-0.720129687952670516
0.629000000000000448,-0.716277573005004609
0.630000000000000338,-0.712515040439930303
0.631000000000000449,-0.708840147188873226
0.632000000000000339,-0.705250975118821621
0.633000000000000451,-0.701745631020069038
0.634000000000000341,-0.698322246584708206
0.635000000000000453,-0.694978978376180501
0.636000000000000343,-0.691714007790128593
0.637000000000000455,-0.688525541006894559
0.638000000000000345,-0.685411808935877831
0.639000000000000457,-0.682371067152047095
0.640000000000000346,-0.679401595824893678
0.641000000000000458,-0.676501699640039256
0.642000000000000348,-0.673669707713799193
0.643000000000000460,-0.670903973500922790
0.644000000000000350,-0.668202874695768001
0.645000000000000462,-0.665564813127153210
0.646000000000000352,-0.662988214647114438
0.647000000000000464,-0.660471529013803016
0.648000000000000353,-0.658013229768765973
0.649000000000000465,-0.655611814108794988
0.650000000000000355,-0.653265802752607594
0.651000000000000467,-0.650973739802526929
0.652000000000000357,-0.648734192601419624
0.653000000000000469,-0.646545751585037465
0.654000000000000359,-0.644407030130027314
0.655000000000000471,-0.642316664397735937
0.656000000000000361,-0.640273313174066439
0.657000000000000473,-0.638275657705518973
0.658000000000000362,-0.636322401531640658
0.659000000000000474,-0.634412270314022697
0.660000000000000364,-0.632544011662061312
0.661000000000000476,-0.630716394955615378
0.662000000000000366,-0.628928211164742734
0.663000000000000478,-0.627178272666687908
