# SiO2-Quartz_CS-5439-AC
# h[nm],U(h)[kJ/mol]
0.149999999999999994,118.524748735158055979
0.150999999999999995,116.321270753987533908
0.151999999999999996,114.506997938676335025
0.152999999999999997,112.804231242776424438
0.153999999999999998,111.105682044147513921
0.154999999999999999,109.386762143150761517
0.156000000000000000,107.657055488743793603
0.157000000000000001,105.935308257437057478
0.158000000000000002,104.238016481607616015
0.159000000000000002,102.575464675511312862
0.160000000000000003,100.951515114502413439
0.161000000000000004,99.365005866843176818
0.162000000000000005,97.811587188297238527
0.163000000000000006,96.285414495758885778
0.164000000000000007,94.780459013389503298
0.165000000000000008,93.291385612365118618
0.166000000000000009,91.814041328726744950
0.167000000000000010,90.345636362224155391
0.168000000000000010,88.884706671852896420
0.169000000000000011,87.430938839416000974
0.170000000000000012,85.984922786872928668
0.171000000000000013,84.547881388007709802
0.172000000000000014,83.121410724431981976
0.173000000000000015,81.707251914383519420
0.174000000000000016,80.307105431707086041
0.175000000000000017,78.922491499441576934
0.176000000000000018,77.554655128156326782
0.177000000000000018,76.204511234231716799
0.178000000000000019,74.872623581242834234
0.179000000000000020,73.559210647397890170
0.180000000000000021,72.264171605580017399
0.181000000000000022,70.987126148262248648
0.182000000000000023,69.727462697637704991
0.183000000000000024,68.484390465635542000
0.184000000000000025,67.256991767309472152
0.185000000000000026,66.044271877713882191
0.186000000000000026,64.845204516950261109
0.187000000000000027,63.658771730440875558
0.188000000000000028,62.483997495484047136
0.189000000000000029,61.319974833959769001
0.190000000000000030,60.165886553766924294
0.191000000000000031,59.021019990525886101
0.192000000000000032,57.884776290045806491
0.193000000000000033,56.756674874910153505
0.194000000000000034,55.636353788459679492
0.195000000000000034,54.523566618403627615
0.196000000000000035,53.418176680750413254
0.197000000000000036,52.320149101645391454
0.198000000000000037,51.229541377418819081
0.199000000000000038,50.146492927643613768
0.200000000000000039,49.071214086947279043
0.201000000000000040,48.003974912261320185
0.202000000000000041,46.945094115712620919
0.203000000000000042,45.894928371261478617
0.204000000000000042,44.853862186614868790
0.205000000000000043,43.822298481535376879
0.206000000000000044,42.800649969663098204
0.207000000000000045,41.789331403322890424
0.208000000000000046,40.788752709235893690
0.209000000000000047,39.799313017182619490
0.210000000000000048,38.821395562974700510
0.211000000000000049,37.855363431037162059
0.212000000000000050,36.901556089911352387
0.213000000000000050,35.960286665511695503
0.214000000000000051,35.031839891465658354
0.215000000000000052,34.116470672844805279
0.216000000000000053,33.214403198600471967
0.217000000000000054,32.325830538643415935
0.218000000000000055,31.450914663394691217
0.219000000000000056,30.589786826475812376
0.220000000000000057,29.742548254728387036
0.221000000000000058,28.909271093741313763
0.222000000000000058,28.089999561320023957
0.223000000000000059,27.284751265717382296
0.224000000000000060,26.493518649829201905
0.225000000000000061,25.716270526849775990
0.226000000000000062,24.952953677010878408
0.227000000000000063,24.203494478939212797
0.228000000000000064,23.467800552827526417
0.229000000000000065,22.745762395998788463
0.230000000000000066,22.037254994543040709
0.231000000000000066,21.342139397516238120
0.232000000000000067,20.660264242716642968
0.233000000000000068,19.991467225304738520
0.234000000000000069,19.335576502520762432
0.235000000000000070,18.692412029495539372
0.236000000000000071,18.061786822663368213
0.237000000000000072,17.443508148586495565
0.238000000000000073,16.837378637110727908
0.239000000000000073,16.243197318708588739
0.240000000000000074,15.660760586644954628
0.241000000000000075,15.089863085243848673
0.242000000000000076,14.530298526054206576
0.243000000000000077,13.981860434124897097
0.244000000000000078,13.444342826919761791
0.245000000000000079,12.917540828641895345
0.246000000000000080,12.401251222907914595
0.247000000000000081,11.895272946824109184
0.248000000000000081,11.399407529579917764
0.249000000000000082,10.913459478696097449
0.250000000000000111,10.437236617053052612
0.251000000000000112,9.970550373785899367
0.252000000000000113,9.513216032070779704
0.253000000000000114,9.065052936749989243
0.254000000000000115,8.625884664650085298
0.255000000000000115,8.195539160346868357
0.256000000000000116,7.773848840021858386
0.257000000000000117,7.360650665941674831
0.258000000000000118,6.955786193976612353
0.259000000000000119,6.559101596457386663
0.260000000000000120,6.170447662552623669
0.261000000000000121,5.789679778234959606
0.262000000000000122,5.416657887790180759
0.263000000000000123,5.051246438714181330
0.264000000000000123,4.693314311735167443
0.265000000000000124,4.342734737595404404
0.266000000000000125,3.999385202127162753
0.267000000000000126,3.663147341061919526
0.268000000000000127,3.333906825919773276
0.269000000000000128,3.011553242238726114
0.270000000000000129,2.695979961319463492
0.271000000000000130,2.387084006580908468
0.272000000000000131,2.084765915546124226
0.273000000000000131,1.788929598404942256
0.274000000000000132,1.499482194030986815
0.275000000000000133,1.216333924264725086
0.276000000000000134,0.939397947211468631
0.277000000000000135,0.668590210244542349
0.278000000000000136,0.403829303346404267
0.279000000000000137,0.145036313367550740
0.280000000000000138,-0.107865320267944667
0.281000000000000139,-0.354949947929955267
0.282000000000000139,-0.596289849788044002
0.283000000000000140,-0.831955373064180437
0.284000000000000141,-1.062015066182124823
0.285000000000000142,-1.286535809502122873
0.286000000000000143,-1.505582942366341825
0.287000000000000144,-1.719220386214924901
0.288000000000000145,-1.927510763565867480
0.289000000000000146,-2.130515512681898649
0.290000000000000147,-2.328294997777548669
0.291000000000000147,-2.520908614645974932
0.292000000000000148,-2.708414891611462760
0.293000000000000149,-2.890871585736809468
0.294000000000000150,-3.068335774237596514
0.295000000000000151,-3.240863941076018051
0.296000000000000152,-3.408512058726357985
0.297000000000000153,-3.571335665122068015
0.298000000000000154,-3.729389935811196377
0.299000000000000155,-3.882729751361991166
0.300000000000000155,-4.031409760074690318
0.301000000000000156,-4.175484436068147787
0.302000000000000157,-4.315008132821856357
0.303000000000000158,-4.450035132264171800
0.304000000000000159,-4.580619689507285486
0.305000000000000160,-4.706816073337682482
0.306000000000000161,-4.828678602578547085
0.307000000000000162,-4.946261678447021026
0.308000000000000163,-5.059619813034838209
0.309000000000000163,-5.168807654045821209
0.310000000000000164,-5.273880005927741976
0.311000000000000165,-5.374891847539229772
0.312000000000000166,-5.471898346495273735
0.313000000000000167,-5.564954870336544346
0.314000000000000168,-5.654116994669196927
0.315000000000000169,-5.739440508422537945
0.316000000000000170,-5.820981416372239536
0.317000000000000171,-5.898795939076252992
0.318000000000000171,-5.972940510369954659
0.319000000000000172,-6.043471772565960798
0.320000000000000173,-6.110446569502189007
0.321000000000000174,-6.173921937579939012
0.322000000000000175,-6.233955094931570962
0.323000000000000176,-6.290603428854535828
0.324000000000000177,-6.343924481645955460
0.325000000000000178,-6.393975934968462838
0.326000000000000179,-6.440815592875250850
0.327000000000000179,-6.484501363618237590
0.328000000000000180,-6.525091240359927269
0.329000000000000181,-6.562643280905827048
0.330000000000000182,-6.597215586569936008
0.331000000000000183,-6.628866280282467827
0.332000000000000184,-6.657653484044267600
0.333000000000000185,-6.683635295828722178
0.334000000000000186,-6.706869766027502067
0.335000000000000187,-6.727414873532437056
0.336000000000000187,-6.745328501541644428
0.337000000000000188,-6.760668413173583247
0.338000000000000189,-6.773492226968924612
0.339000000000000190,-6.783857392355758797
0.340000000000000191,-6.791821165149400485
0.341000000000000192,-6.797440583154445548
0.342000000000000193,-6.800772441932275925
0.343000000000000194,-6.801873270793717730
0.344000000000000195,-6.800799309072194099
0.345000000000000195,-6.797606482729622535
0.346000000000000196,-6.792350381342977528
0.347000000000000197,-6.785086235516279096
0.348000000000000198,-6.775868894759197403
0.349000000000000199,-6.764752805869926888
0.350000000000000200,-6.751791991856970654
0.351000000000000201,-6.737040031431087428
0.352000000000000202,-6.720550039095660289
0.353000000000000203,-6.702374645860902369
0.354000000000000203,-6.682565980604360689
0.355000000000000204,-6.661175652097421462
0.356000000000000205,-6.638254731715062640
0.357000000000000206,-6.613853736843580577
0.358000000000000207,-6.588022614998354065
0.359000000000000208,-6.560810728661889968
0.360000000000000209,-6.532266840849861644
0.361000000000000210,-6.502439101410976363
0.362000000000000210,-6.471375034064488219
0.363000000000000211,-6.439121524177354949
0.364000000000000212,-6.405724807281349520
0.365000000000000213,-6.371230458328666302
0.366000000000000214,-6.335683381683180571
0.367000000000000215,-6.299127801842930197
0.368000000000000216,-6.261607254888197360
0.369000000000000217,-6.223164580648132826
0.370000000000000218,-6.183841915577906967
0.371000000000000218,-6.143680686337022578
0.372000000000000219,-6.102721604058706895
0.373000000000000220,-6.061004659299211283
0.374000000000000221,-6.018569117655056644
0.375000000000000222,-5.975453516035395651
0.376000000000000223,-5.931695659576226021
0.377000000000000224,-5.887332619182275906
0.378000000000000225,-5.842400729681978433
0.379000000000000226,-5.796935588580381271
0.380000000000000226,-5.750972055394588445
0.381000000000000227,-5.704544251555548229
0.382000000000000228,-5.657685560860221230
0.383000000000000229,-5.610428630457406918
0.384000000000000230,-5.562805372350499766
0.385000000000000231,-5.514846965400397316
0.386000000000000232,-5.466583857811320613
0.387000000000000233,-5.418045770082541068
0.388000000000000234,-5.369261698408728911
0.389000000000000234,-5.320259918511802688
0.390000000000000235,-5.271067989887010974
0.391000000000000236,-5.221712760446217239
0.392000000000000237,-5.172220371541214945
0.393000000000000238,-5.122616263350320054
0.394000000000000239,-5.072925180611244755
0.395000000000000240,-5.023171178683804250
0.396000000000000241,-4.973377629925964882
0.397000000000000242,-4.923567230366909797
0.398000000000000242,-4.873762006661302770
0.399000000000000243,-4.823983323308843829
0.400000000000000244,-4.774251890123645481
0.401000000000000245,-4.724587769938318971
0.402000000000000246,-4.675010386527697293
0.403000000000000247,-4.625538532737618169
0.404000000000000248,-4.576190378804485093
0.405000000000000249,-4.526983480851564323
0.406000000000000250,-4.477934789548315919
0.407000000000000250,-4.429060658919488525
0.408000000000000251,-4.380376855290910143
0.409000000000000252,-4.331898566359354774
0.410000000000000253,-4.283640410374162322
0.411000000000000254,-4.235616445418655118
0.412000000000000255,-4.187840178779732803
0.413000000000000256,-4.140324576394453615
0.414000000000000257,-4.093082072362559387
0.415000000000000258,-4.046124578514628034
0.416000000000000258,-3.999463494025412125
0.417000000000000259,-3.953109715062728124
0.418000000000000260,-3.907073644462299544
0.419000000000000261,-3.861365201419433735
0.420000000000000262,-3.815993831188759344
0.421000000000000263,-3.770968514783563652
0.422000000000000264,-3.726297778666577187
0.423000000000000265,-3.681989704424425636
0.424000000000000266,-3.638051938418389142
0.425000000000000266,-3.594491701404156636
0.426000000000000267,-3.551315798113909405
0.427000000000000268,-3.508530626794170271
0.428000000000000269,-3.466142188693180692
0.429000000000000270,-3.424156097492020656
0.430000000000000271,-3.382577588673709279
0.431000000000000272,-3.341411528825132482
0.432000000000000273,-3.300662424866628530
0.433000000000000274,-3.260334433204589377
0.434000000000000274,-3.220431368802467720
0.435000000000000275,-3.180956714166079724
0.436000000000000276,-3.141913628239161760
0.437000000000000277,-3.103304955205453464
0.438000000000000278,-3.065133233193859219
0.439000000000000279,-3.027400702883455974
0.440000000000000280,-2.990109316005256979
0.441000000000000281,-2.953260743737987415
0.442000000000000282,-2.916856384995335283
0.443000000000000282,-2.880897374602156447
0.444000000000000283,-2.845384591357651871
0.445000000000000284,-2.810318665983394304
0.446000000000000285,-2.775699988954424935
0.447000000000000286,-2.741528718211960758
0.448000000000000287,-2.707804786756033089
0.449000000000000288,-2.674527910117057594
0.450000000000000289,-2.641697593705009339
0.451000000000000290,-2.609313140035395495
0.452000000000000290,-2.577373655831208588
0.453000000000000291,-2.545878059000144411
0.454000000000000292,-2.514825085486671608
0.455000000000000293,-2.484213295998485727
0.456000000000000294,-2.454041082607149260
0.457000000000000295,-2.424306675222797747
0.458000000000000296,-2.395008147942826238
0.459000000000000297,-2.366143425274762180
0.460000000000000298,-2.337710288233416200
0.461000000000000298,-2.309706380312720686
0.462000000000000299,-2.282129213332586559
0.463000000000000300,-2.254976173161276520
0.464000000000000301,-2.228244525313928470
0.465000000000000302,-2.201931420427845065
0.466000000000000303,-2.176033899615276823
0.467000000000000304,-2.150548899694554539
0.468000000000000305,-2.125473258300443646
0.469000000000000306,-2.100803718874619364
0.470000000000000306,-2.076536935537381279
0.471000000000000307,-2.052669477841525314
0.472000000000000308,-2.029197835409645823
0.473000000000000309,-2.006118422455928307
0.474000000000000310,-1.983427582193707295
0.475000000000000311,-1.961121591130022823
0.476000000000000312,-1.939196663248546004
0.477000000000000313,-1.917648954082099122
0.478000000000000314,-1.896474564676232877
0.479000000000000314,-1.875669545445280750
0.480000000000000315,-1.855229899922224091
0.481000000000000316,-1.835151588403970191
0.482000000000000317,-1.815430531493393618
0.483000000000000318,-1.796062613539747499
0.484000000000000319,-1.777043685978915377
0.485000000000000320,-1.758369570575072816
0.486000000000000321,-1.740036062565306851
0.487000000000000322,-1.722038933708761821
0.488000000000000322,-1.704373935241856985
0.489000000000000323,-1.687036800741263054
0.490000000000000324,-1.670023248896104651
0.491000000000000325,-1.653328986191091143
0.492000000000000326,-1.636949709502089734
0.493000000000000327,-1.620881108605835008
0.494000000000000328,-1.605118868605311278
0.495000000000000329,-1.589658672272429296
0.496000000000000330,-1.574496202309601856
0.497000000000000330,-1.559627143531830518
0.498000000000000331,-1.545047184970823828
0.499000000000000332,-1.530752021902838322
0.500000000000000333,-1.516737357801736685
0.501000000000000334,-1.502998906218831587
0.502000000000000335,-1.489532392591132126
0.503000000000000336,-1.476333555979483680
0.504000000000000337,-1.463398150738159709
0.505000000000000338,-1.450721948117427829
0.506000000000000338,-1.438300737800608520
0.507000000000000339,-1.426130329377094608
0.508000000000000340,-1.414206553752840323
0.509000000000000341,-1.402525264499807189
0.510000000000000342,-1.391082339145759850
0.511000000000000343,-1.379873680405899306
0.512000000000000344,-1.368895217357728900
0.513000000000000345,-1.358142906560558583
0.514000000000000346,-1.347612733121063666
0.515000000000000346,-1.337300711706198131
0.516000000000000347,-1.327202887504865370
0.517000000000000348,-1.317315337139702836
0.518000000000000349,-1.307634169530181634
0.519000000000000350,-1.298155526708446583
0.520000000000000351,-1.288875584589078027
0.521000000000000352,-1.279790553694079680
0.522000000000000353,-1.270896679834300658
0.523000000000000353,-1.262190244748503831
0.524000000000000354,-1.253667566701320624
0.525000000000000355,-1.245325001041208690
0.526000000000000356,-1.237158940719589983
0.527000000000000357,-1.229165816772354702
0.528000000000000358,-1.221342098764728323
0.529000000000000359,-1.213684295200752938
0.530000000000000360,-1.206188953898309046
0.531000000000000361,-1.198852662330845309
0.532000000000000361,-1.191672047936777501
0.533000000000000362,-1.184643778397637570
0.534000000000000363,-1.177764561885895178
0.535000000000000364,-1.171031147283503326
0.536000000000000365,-1.164440324372061797
0.537000000000000366,-1.157988923995591390
0.538000000000000367,-1.151673818196766286
0.539000000000000368,-1.145491920327606383
0.540000000000000369,-1.139440185135387251
0.541000000000000369,-1.133515608824747112
0.542000000000000370,-1.127715229096734273
0.543000000000000371,-1.122036125165677189
0.544000000000000372,-1.116475417754677846
0.545000000000000373,-1.111030269070494514
0.546000000000000374,-1.105697882758589490
0.547000000000000375,-1.100475503839094760
0.548000000000000376,-1.095360418624461207
0.549000000000000377,-1.090349954619442840
0.550000000000000377,-1.085441480404171655
0.551000000000000378,-1.080632405500978832
0.552000000000000379,-1.075920180225643730
0.553000000000000380,-1.071302295523703485
0.554000000000000381,-1.066776282792460950
0.555000000000000382,-1.062339713689340659
0.556000000000000383,-1.057990199927115293
0.557000000000000384,-1.053725393056698101
0.558000000000000385,-1.049542984237963106
0.559000000000000385,-1.045440703999237497
0.560000000000000386,-1.041416321985942250
0.561000000000000387,-1.037467646698957413
0.562000000000000388,-1.033592525223174352
0.563000000000000389,-1.029788842946798511
0.564000000000000390,-1.026054523271810570
0.565000000000000391,-1.022387527316120703
0.566000000000000392,-1.018785853607838465
0.567000000000000393,-1.015247537772121067
0.568000000000000393,-1.011770652211014365
0.569000000000000394,-1.008353305776721109
0.570000000000000395,-1.004993643438702344
0.571000000000000396,-1.001689845944981005
0.572000000000000397,-0.998440129478093574
0.573000000000000398,-0.995242745305967902
0.574000000000000399,-0.992095979428188834
0.575000000000000400,-0.988998152217911430
0.576000000000000401,-0.985947618059811903
0.577000000000000401,-0.982942764984411133
0.578000000000000402,-0.979982014299040527
0.579000000000000403,-0.977063820215780643
0.580000000000000404,-0.974186669476705069
0.581000000000000405,-0.971349080976647405
0.582000000000000406,-0.968549605383826950
0.583000000000000407,-0.965786824758569695
0.584000000000000408,-0.963059352170392513
0.585000000000000409,-0.960365831313699680
0.586000000000000409,-0.957704936122337314
0.587000000000000410,-0.955075370383236311
0.588000000000000411,-0.952475867349346528
0.589000000000000412,-0.949905189352134194
0.590000000000000413,-0.947362127413775013
0.591000000000000414,-0.944845500859302745
0.592000000000000415,-0.942354156928896680
0.593000000000000416,-0.939886970390453769
0.594000000000000417,-0.937442843152668459
0.595000000000000417,-0.935020703878796988
0.596000000000000418,-0.932619507601199715
0.597000000000000419,-0.930238235336923625
0.598000000000000420,-0.927875893704379728
0.599000000000000421,-0.925531514541329869
0.600000000000000422,-0.923204154524280951
0.601000000000000423,-0.920892894789437144
0.602000000000000424,-0.918596840555331418
0.603000000000000425,-0.916315120747272838
0.604000000000000425,-0.914046887623692128
0.605000000000000426,-0.911791316404522711
0.606000000000000427,-0.909547604901752238
0.607000000000000428,-0.907314973152122173
0.608000000000000429,-0.905092663052285418
0.609000000000000430,-0.902879937996246773
0.610000000000000431,-0.900676082515431853
0.611000000000000432,-0.898480401921269989
0.612000000000000433,-0.896292221950457546
0.613000000000000433,-0.894110888412993576
