# SiO2-Quartz_CS-19489-AC
# h[nm],U(h)[kJ/mol]
0.200000000000000011,81.758299076857781529
0.201000000000000012,80.660271464684143439
0.202000000000000013,79.368158646315478677
0.203000000000000014,77.990805083132045183
0.204000000000000015,76.588951297245898786
0.205000000000000016,75.193380561233510662
0.206000000000000016,73.817067838043953998
0.207000000000000017,72.463112661877602250
0.208000000000000018,71.129751408892659015
0.209000000000000019,69.813382300511378276
0.210000000000000020,68.510268428117726103
0.211000000000000021,67.217387005344306772
0.212000000000000022,65.932749284409197799
0.213000000000000023,64.655411647631126471
0.214000000000000024,63.385324066864619397
0.215000000000000024,62.123109660329610904
0.216000000000000025,60.869832623537014626
0.217000000000000026,59.626786983325608560
0.218000000000000027,58.395322148864991618
0.219000000000000028,57.176710684005307428
0.220000000000000029,55.972057314835353736
0.221000000000000030,54.782244610348257652
0.222000000000000031,53.607909089901930599
0.223000000000000032,52.449441045380183368
0.224000000000000032,51.307001644804891782
0.225000000000000033,50.180551580360727826
0.226000000000000034,49.069886416761882231
0.227000000000000035,47.974674741779594456
0.228000000000000036,46.894496130219955887
0.229000000000000037,45.828876754417805728
0.230000000000000038,44.777321183101875590
0.231000000000000039,43.739339498226861735
0.232000000000000040,42.714469328953882155
0.233000000000000040,41.702292762795522663
0.234000000000000041,40.702448358870881862
0.235000000000000042,39.714638671449122853
0.236000000000000043,38.738633807708787060
0.237000000000000044,37.774271605291303899
0.238000000000000045,36.821455034852554888
0.239000000000000046,35.880147420966920890
0.240000000000000047,34.950366040362254694
0.241000000000000048,34.032174606988711218
0.242000000000000048,33.125675094836431356
0.243000000000000049,32.230999286442589380
0.244000000000000050,31.348300371283375654
0.245000000000000051,30.477744856396121520
0.246000000000000052,29.619504993517136171
0.247000000000000053,28.773751873987929883
0.248000000000000054,27.940649295417490094
0.249000000000000055,27.120348462920738086
0.250000000000000056,26.312983552716286084
0.251000000000000056,25.518668136762716614
0.252000000000000057,24.737492443594113922
0.253000000000000058,23.969521412124933590
0.254000000000000059,23.214793481415252785
0.255000000000000060,22.473320049676033250
0.256000000000000061,21.745085529602057761
0.257000000000000062,21.030047923916097119
0.258000000000000063,20.328139844288319438
0.259000000000000064,19.639269898095214728
0.260000000000000064,18.963324370378693118
0.261000000000000065,18.300169132484029433
0.262000000000000066,17.649651713859441315
0.263000000000000067,17.011603479110547710
0.264000000000000068,16.385841858370035595
0.265000000000000069,15.772172585167854919
0.266000000000000070,15.170391902101860282
0.267000000000000071,14.580288700578455163
0.268000000000000071,14.001646566615253420
0.269000000000000072,13.434245710092593384
0.270000000000000073,12.877864759852736043
0.271000000000000074,12.332282411637642383
0.272000000000000075,11.797278920006061043
0.273000000000000076,11.272637429072002391
0.274000000000000077,10.758145140160854325
0.275000000000000078,10.253594317298475147
0.276000000000000079,9.758783133851459013
0.277000000000000079,9.273516365643901693
0.278000000000000080,8.797605937518058639
0.279000000000000081,8.330871331607555774
0.280000000000000082,7.873139866586408964
0.281000000000000083,7.424246857872863536
0.282000000000000084,6.984035669236483557
0.283000000000000085,6.552357666508422440
0.284000000000000086,6.129072084156486966
0.285000000000000087,5.714045815387898131
0.286000000000000087,5.307153136205444710
0.287000000000000088,4.908275373493228066
0.288000000000000089,4.517300526766748980
0.289000000000000090,4.134122852707799112
0.290000000000000091,3.758642421036932912
0.291000000000000092,3.390764649667828312
0.292000000000000093,3.030399826455860257
0.293000000000000094,2.677462624207060493
0.294000000000000095,2.331871614965568718
0.295000000000000095,1.993548788954714102
0.296000000000000096,1.662419082919051494
0.297000000000000097,1.338409922005243224
0.298000000000000098,1.021450778736120002
0.299000000000000099,0.711472752076532822
0.300000000000000100,0.408408169066509785
0.301000000000000101,0.112190211006674104
0.302000000000000102,-0.177247434272841453
0.303000000000000103,-0.459970892948639687
0.304000000000000103,-0.736046397815640407
0.305000000000000104,-1.005540552591750458
0.306000000000000105,-1.268520567844727553
0.307000000000000106,-1.525054468747797376
0.308000000000000107,-1.775211275115351484
0.309000000000000108,-2.019061154382916001
0.310000000000000109,-2.256675548379508012
0.311000000000000110,-2.488127274894822882
0.312000000000000111,-2.713490605173941805
0.313000000000000111,-2.932841318575881040
0.314000000000000112,-3.146256735715078801
0.315000000000000113,-3.353815731466222250
0.316000000000000114,-3.555598729255713408
0.317000000000000115,-3.751687678088660327
0.318000000000000116,-3.942166013771023270
0.319000000000000117,-4.127118605783295813
0.320000000000000118,-4.306631691247103433
0.321000000000000119,-4.480792797400766858
0.322000000000000119,-4.649690653965028453
0.323000000000000120,-4.813415096737825749
0.324000000000000121,-4.972056963708536337
0.325000000000000122,-5.125707984927483807
0.326000000000000123,-5.274460667308288109
0.327000000000000124,-5.418408175478725219
0.328000000000000125,-5.557644209731565255
0.329000000000000126,-5.692262882060724394
0.330000000000000127,-5.822358591201331812
0.331000000000000127,-5.948025897524873429
0.332000000000000128,-6.069359398573636710
0.333000000000000129,-6.186453605952420887
0.334000000000000130,-6.299402824230019959
0.335000000000000131,-6.408301032439939426
0.336000000000000132,-6.513241768707215940
0.337000000000000133,-6.614318018469179883
0.338000000000000134,-6.711622106700343871
0.339000000000000135,-6.805245594496480699
0.340000000000000135,-6.895279180321187695
0.341000000000000136,-6.981812606168160684
0.342000000000000137,-7.064934568846013008
0.343000000000000138,-7.144732636548174476
0.344000000000000139,-7.221293170829769181
0.345000000000000140,-7.294701254074648311
0.346000000000000141,-7.365040622500617751
0.347000000000000142,-7.432393604717970170
0.348000000000000143,-7.496841065826705730
0.349000000000000143,-7.558462357010141019
0.350000000000000144,-7.617335270558112548
0.351000000000000145,-7.673536000230301468
0.352000000000000146,-7.727139106850491324
0.353000000000000147,-7.778217489004584095
0.354000000000000148,-7.826842358699788171
0.355000000000000149,-7.873083221828700573
0.356000000000000150,-7.917007863270415946
0.357000000000000151,-7.958682336451007089
0.358000000000000151,-7.998170957177539897
0.359000000000000152,-8.035536301553261040
0.360000000000000153,-8.070839207776739244
0.361000000000000154,-8.104138781623674959
0.362000000000000155,-8.135492405408172090
0.363000000000000156,-8.164955750218672037
0.364000000000000157,-8.192582791223671279
0.365000000000000158,-8.218425825843423738
0.366000000000000159,-8.242535494585045086
0.367000000000000159,-8.264960804341365375
0.368000000000000160,-8.285749153956892599
0.369000000000000161,-8.304946361868035254
0.370000000000000162,-8.322596695629325581
0.371000000000000163,-8.338742903142117413
0.372000000000000164,-8.353426245407584716
0.373000000000000165,-8.366686530631589847
0.374000000000000166,-8.378562149514959145
0.375000000000000167,-8.389090111568783925
0.376000000000000167,-8.398306082301052911
0.377000000000000168,-8.406244421127327726
0.378000000000000169,-8.412938219864846801
0.379000000000000170,-8.418419341676372625
0.380000000000000171,-8.422718460336714230
0.381000000000000172,-8.425865099701756122
0.382000000000000173,-8.427887673266539537
0.383000000000000174,-8.428813523705731114
0.384000000000000175,-8.428668962296368861
0.385000000000000175,-8.427479308129232294
0.386000000000000176,-8.425268927021949850
0.387000000000000177,-8.422061270052610737
0.388000000000000178,-8.417878911639466111
0.389000000000000179,-8.412743587097683218
0.390000000000000180,-8.406676229610205553
0.391000000000000181,-8.399697006555340906
0.392000000000000182,-8.391825355138909259
0.393000000000000183,-8.383080017284264329
0.394000000000000183,-8.373479073738206324
0.395000000000000184,-8.363039977355887444
0.396000000000000185,-8.351779585532133510
0.397000000000000186,-8.339714191751131267
0.398000000000000187,-8.326859556230594706
0.399000000000000188,-8.313230935640426367
0.400000000000000189,-8.298843111879589785
0.401000000000000190,-8.283710419898644872
0.402000000000000191,-8.267846774558554657
0.403000000000000191,-8.251265696519547888
0.404000000000000192,-8.233980337156907581
0.405000000000000193,-8.216003502503102851
0.406000000000000194,-8.197347676218484480
0.407000000000000195,-8.178025041594981559
0.408000000000000196,-8.158047502599544032
0.409000000000000197,-8.137426703966143648
0.410000000000000198,-8.116174050347018110
0.411000000000000199,-8.094300724535480995
0.412000000000000199,-8.071817704774440827
0.413000000000000200,-8.048735781165913039
0.414000000000000201,-8.025065571198421566
0.415000000000000202,-8.000817534409991438
0.416000000000000203,-7.976001986205870864
0.417000000000000204,-7.950629110850717218
0.418000000000000205,-7.924708973655934408
0.419000000000000206,-7.898251532383582685
0.420000000000000207,-7.871266647888671919
0.421000000000000207,-7.843764094022494859
0.422000000000000208,-7.815753566819584996
0.423000000000000209,-7.787244692991708739
0.424000000000000210,-7.758247037752139974
0.425000000000000211,-7.728770111993777725
0.426000000000000212,-7.698823378844879883
0.427000000000000213,-7.668416259625862708
0.428000000000000214,-7.637558139231011012
0.429000000000000214,-7.606258370958448367
0.430000000000000215,-7.574526280811847201
0.431000000000000216,-7.542371171297030052
0.432000000000000217,-7.509802324736355672
0.433000000000000218,-7.476829006123563381
0.434000000000000219,-7.443460465541411608
0.435000000000000220,-7.409705940164047711
0.436000000000000221,-7.375574655865712259
0.437000000000000222,-7.341075828456906649
0.438000000000000222,-7.306218664568798538
0.439000000000000223,-7.271012362206102253
0.440000000000000224,-7.235466110988238775
0.441000000000000225,-7.199589092097999021
0.442000000000000226,-7.163390477956667723
0.443000000000000227,-7.126879431643615703
0.444000000000000228,-7.090065106078358603
0.445000000000000229,-7.052956642982097790
0.446000000000000230,-7.015563171635437634
0.447000000000000230,-6.977893807448447561
0.448000000000000231,-6.939957650358580921
0.449000000000000232,-6.901763783071399594
0.450000000000000233,-6.863321269158722870
0.451000000000000234,-6.824639151027916739
0.452000000000000235,-6.785726447775880743
0.453000000000000236,-6.746592152940368514
0.454000000000000237,-6.707245232161156423
0.455000000000000238,-6.667694620762596003
0.456000000000000238,-6.627949221268973012
0.457000000000000239,-6.588017900863313514
0.458000000000000240,-6.547909488799914079
0.459000000000000241,-6.507632773780223090
0.460000000000000242,-6.467196501301502920
0.461000000000000243,-6.426609370986819947
0.462000000000000244,-6.385880033904898667
0.463000000000000245,-6.345017089887408979
0.464000000000000246,-6.304029084851394238
0.465000000000000246,-6.262924508133578705
0.466000000000000247,-6.221711789843213936
0.467000000000000248,-6.180399298239565908
0.468000000000000249,-6.138995337139848907
0.469000000000000250,-6.097508143362882826
0.470000000000000251,-6.055945884213551622
0.471000000000000252,-6.014316655012551749
0.472000000000000253,-5.972628476675966525
0.473000000000000254,-5.930889293348291957
0.474000000000000254,-5.889106970092812254
0.475000000000000255,-5.847289290642443405
0.476000000000000256,-5.805443955214174778
0.477000000000000257,-5.763578578389781271
0.478000000000000258,-5.721700687065220947
0.479000000000000259,-5.679817718470979493
0.480000000000000260,-5.637937018265210654
0.481000000000000261,-5.596065838701386852
0.482000000000000262,-5.554211336871888172
0.483000000000000262,-5.512380573028839770
0.484000000000000263,-5.470580508983066359
0.485000000000000264,-5.428818006582137201
0.486000000000000265,-5.387099826268036296
0.487000000000000266,-5.345432625714904518
0.488000000000000267,-5.303822958547162791
0.489000000000000268,-5.262277273138137978
0.490000000000000269,-5.220801911489060032
0.491000000000000270,-5.179403108188395777
0.492000000000000270,-5.138086989451005060
0.493000000000000271,-5.096859572236850155
0.494000000000000272,-5.055726763448585181
0.495000000000000273,-5.014694359207335417
0.496000000000000274,-4.973768044205955086
0.497000000000000275,-4.932953391138774180
0.498000000000000276,-4.892255860206964790
0.499000000000000277,-4.851680798698393637
0.500000000000000222,-4.811233440640803494
0.501000000000000334,-4.770918906527223058
0.502000000000000224,-4.730742203112211719
0.503000000000000336,-4.690708223277624711
0.504000000000000226,-4.650821745966629450
0.505000000000000338,-4.611087436184301502
0.506000000000000227,-4.571509845063603805
0.507000000000000339,-4.532093409994937261
0.508000000000000229,-4.492842454817969511
0.509000000000000341,-4.453761190073895371
0.510000000000000231,-4.414853713316821526
0.511000000000000343,-4.376124009482305510
0.512000000000000233,-4.337575951311682942
0.513000000000000345,-4.299213299830275226
0.514000000000000234,-4.261039704878092138
0.515000000000000346,-4.223058705690951875
0.516000000000000236,-4.185273731530721797
0.517000000000000348,-4.147688102362677043
0.518000000000000238,-4.110305029578536384
0.519000000000000350,-4.073127616763221326
0.520000000000000240,-4.036158860503904933
0.521000000000000352,-3.999401651239510525
0.522000000000000242,-3.962858774149076169
0.523000000000000353,-3.926532910077261906
0.524000000000000243,-3.890426636495440960
0.525000000000000355,-3.854542428496670059
0.526000000000000245,-3.818882659823044978
0.527000000000000357,-3.783449603923662696
0.528000000000000247,-3.748245435041873463
0.529000000000000359,-3.713272229330033980
0.530000000000000249,-3.678531965990430308
0.531000000000000361,-3.644026528440717616
0.532000000000000250,-3.609757705502556924
0.533000000000000362,-3.575727192611843464
0.534000000000000252,-3.541936593049217041
0.535000000000000364,-3.508387419189404000
0.536000000000000254,-3.475081093768090934
0.537000000000000366,-3.442018951164827367
0.538000000000000256,-3.409202238700911103
0.539000000000000368,-3.376632117950671308
0.540000000000000258,-3.344309666065210074
0.541000000000000369,-3.312235877107052140
0.542000000000000259,-3.280411663394856792
0.543000000000000371,-3.248837856856710893
0.544000000000000261,-3.217515210391109548
0.545000000000000373,-3.186444399234389380
0.546000000000000263,-3.155626022333648972
0.547000000000000375,-3.125060603723931685
0.548000000000000265,-3.094748593908978496
0.549000000000000377,-3.064690371244188416
0.550000000000000266,-3.034886243321196275
0.551000000000000378,-3.005336448352878165
0.552000000000000268,-2.976041156558071776
0.553000000000000380,-2.947000471545041300
0.554000000000000270,-2.918214431692976341
0.555000000000000382,-2.889683011530543411
0.556000000000000272,-2.861406123110976640
0.557000000000000384,-2.833383617382653874
0.558000000000000274,-2.805615285554773575
0.559000000000000385,-2.778100860457123567
0.560000000000000275,-2.750840017893577460
0.561000000000000387,-2.723832377988442577
0.562000000000000277,-2.697077506525215718
0.563000000000000389,-2.670574916277078437
0.564000000000000279,-2.644324068328631760
0.565000000000000391,-2.618324373388287718
0.566000000000000281,-2.592575193090860708
0.567000000000000393,-2.567075841289829352
0.568000000000000282,-2.541825585338898907
0.569000000000000394,-2.516823647362270489
0.570000000000000284,-2.492069205513411045
0.571000000000000396,-2.467561395221735232
0.572000000000000286,-2.443299310427019755
0.573000000000000398,-2.419282004800999086
0.574000000000000288,-2.395508492956015978
0.575000000000000400,-2.371977751640280463
0.576000000000000290,-2.348688720919532180
0.577000000000000401,-2.325640305344772507
0.578000000000000291,-2.302831375105891087
0.579000000000000403,-2.280260767170883884
0.580000000000000293,-2.257927286410530421
0.581000000000000405,-2.235829706708222453
0.582000000000000295,-2.213966772054924537
0.583000000000000407,-2.192337197628918766
0.584000000000000297,-2.170939670860351445
0.585000000000000409,-2.149772852480329455
0.586000000000000298,-2.128835377554551656
0.587000000000000410,-2.108125856501263051
0.588000000000000300,-2.087642876093566802
0.589000000000000412,-2.067385000445876475
0.590000000000000302,-2.047350771984587148
0.591000000000000414,-2.027538712402830789
0.592000000000000304,-2.007947323599296396
0.593000000000000416,-1.988575088601073348
0.594000000000000306,-1.969420472470574834
0.595000000000000417,-1.950481923196421663
0.596000000000000307,-1.931757872568399037
0.597000000000000419,-1.913246737036434109
0.598000000000000309,-1.894946918553678028
0.599000000000000421,-1.876856805403634310
0.600000000000000311,-1.858974773011521808
0.601000000000000423,-1.841299184739750405
0.602000000000000313,-1.823828392667760756
0.603000000000000425,-1.806560738356078222
0.604000000000000314,-1.789494553594914716
0.605000000000000426,-1.772628161137125513
0.606000000000000316,-1.755959875415861404
0.607000000000000428,-1.739488003246806302
0.608000000000000318,-1.723210844515287832
0.609000000000000430,-1.707126692848180749
0.610000000000000320,-1.691233836270904067
0.611000000000000432,-1.675530557849461699
0.612000000000000322,-1.660015136317789297
0.613000000000000433,-1.644685846690432385
0.614000000000000323,-1.629540960860766052
0.615000000000000435,-1.614578748184831269
0.616000000000000325,-1.599797476050979217
0.617000000000000437,-1.585195410435421781
0.618000000000000327,-1.570770816443902707
0.619000000000000439,-1.556521958839541808
0.620000000000000329,-1.542447102557112038
0.621000000000000441,-1.528544513203839550
0.622000000000000330,-1.514812457546905744
0.623000000000000442,-1.501249203987811143
0.624000000000000332,-1.487853023023773869
0.625000000000000444,-1.474622187696314368
0.626000000000000334,-1.461554974027214016
0.627000000000000446,-1.448649661441987480
0.628000000000000336,-1.435904533181071585
0.629000000000000448,-1.423317876698876550
0.630000000000000338,-1.410887984050906097
0.631000000000000449,-1.398613152269068127
0.632000000000000339,-1.386491683725406654
0.633000000000000451,-1.374521886484392441
0.634000000000000341,-1.362702074643968864
0.635000000000000453,-1.351030568665518405
0.636000000000000343,-1.339505695692928766
0.637000000000000455,-1.328125789860932660
0.638000000000000345,-1.316889192592928470
0.639000000000000457,-1.305794252888377027
0.640000000000000346,-1.294839327600074697
0.641000000000000458,-1.284022781701342986
0.642000000000000348,-1.273342988543434862
0.643000000000000460,-1.262798330103223288
0.644000000000000350,-1.252387197221447313
0.645000000000000462,-1.242107989831592763
0.646000000000000352,-1.231959117179677099
0.647000000000000464,-1.221938998034997725
0.648000000000000353,-1.212046060892163712
0.649000000000000465,-1.202278744164401170
0.650000000000000355,-1.192635496368481762
0.651000000000000467,-1.183114776301284810
0.652000000000000357,-1.173715053208294501
0.653000000000000469,-1.164434806944073975
0.654000000000000359,-1.155272528125001141
0.655000000000000471,-1.146226718274307999
0.656000000000000361,-1.137295889959705208
0.657000000000000473,-1.128478566923632576
0.658000000000000362,-1.119773284206410313
0.659000000000000474,-1.111178588262337508
0.660000000000000364,-1.102693037068998683
0.661000000000000476,-1.094315200229828866
0.662000000000000366,-1.086043659070173639
0.663000000000000478,-1.077877006726951192
