# SiO2-Quartz_PYRROLE-AC
# h[nm],U(h)[kJ/mol]
0.149999999999999994,112.251064748036782248
0.150999999999999995,109.435054095614219705
0.151999999999999996,107.540075559754541246
0.152999999999999997,105.890297103496507702
0.153999999999999998,104.225738622999870131
0.154999999999999999,102.486247903110509583
0.156000000000000000,100.693348150949802289
0.157000000000000001,98.890190496768099138
0.158000000000000002,97.114666804198492400
0.159000000000000002,95.390399757637851508
0.160000000000000003,93.726531079758800047
0.161000000000000004,92.121138924025473216
0.162000000000000005,90.565522319119779127
0.163000000000000006,89.048026282181012903
0.164000000000000007,87.556900927548056757
0.165000000000000008,86.082125745904761516
0.166000000000000009,84.616338531022236680
0.167000000000000010,83.155084575423046545
0.168000000000000010,81.696606660340492567
0.169000000000000011,80.241367043280632743
0.170000000000000012,78.791450692195539318
0.171000000000000013,77.349956274953697744
0.172000000000000014,75.920443733037245693
0.173000000000000015,74.506476936896518737
0.174000000000000016,73.111277226454930656
0.175000000000000017,71.737487848941555058
0.176000000000000018,70.387039246960199534
0.177000000000000018,69.061099555512981851
0.178000000000000019,67.760092355536059472
0.179000000000000020,66.483763690270521352
0.180000000000000021,65.231281761862661028
0.181000000000000022,64.001354961249461439
0.182000000000000023,62.792356485271284328
0.183000000000000024,61.602446442101154389
0.184000000000000025,60.429684832277359874
0.185000000000000026,59.272130996017857285
0.186000000000000026,58.127926978834715044
0.187000000000000027,56.995363771411668097
0.188000000000000028,55.872930540025812718
0.189000000000000029,54.759347812068313033
0.190000000000000030,53.653586158500203851
0.191000000000000031,52.554872265975902224
0.192000000000000032,51.462684460022693145
0.193000000000000033,50.376739768210065051
0.194000000000000034,49.296974535338549117
0.195000000000000034,48.223520452817822957
0.196000000000000035,47.156677667792074260
0.197000000000000036,46.096886415328206965
0.198000000000000037,45.044698385579820865
0.199000000000000038,44.000748809656464289
0.200000000000000039,42.965730031836315561
0.201000000000000040,41.940367137721224822
0.202000000000000041,40.925396031553333387
0.203000000000000042,39.921544202940211221
0.204000000000000042,38.929514294006906994
0.205000000000000043,37.949970471807105810
0.206000000000000044,36.983527526248494155
0.207000000000000045,36.030742548923953450
0.208000000000000046,35.092109000915058914
0.209000000000000047,34.168052945568398115
0.210000000000000048,33.258931203154865841
0.211000000000000049,32.365031176021567205
0.212000000000000050,31.486572093285161600
0.213000000000000050,30.623707431440937654
0.214000000000000051,29.776528279808871957
0.215000000000000052,28.945067436063652622
0.216000000000000053,28.129304035959016517
0.217000000000000054,27.329168541714857099
0.218000000000000055,26.544547934533948563
0.219000000000000056,25.775290977664347736
0.220000000000000057,25.021213436782808515
0.221000000000000058,24.282103163843387961
0.222000000000000058,23.557724968610983751
0.223000000000000059,22.847825218694687521
0.224000000000000060,22.152136123886560171
0.225000000000000061,21.470379673949466337
0.226000000000000062,20.802271210683642266
0.227000000000000063,20.147522625177558098
0.228000000000000064,19.505845179687348434
0.229000000000000065,18.876951960685129706
0.230000000000000066,18.260559975382104625
0.231000000000000066,17.656391908584183170
0.232000000000000067,17.064177560202498540
0.233000000000000068,16.483654986240143359
0.234000000000000069,15.914571367733255869
0.235000000000000070,15.356683633053881621
0.236000000000000071,14.809758859295570232
0.237000000000000072,14.273574478260002252
0.238000000000000073,13.747918311939802294
0.239000000000000073,13.232588461433744342
0.240000000000000074,12.727393072008348796
0.241000000000000075,12.232149995606544479
0.242000000000000076,11.746686370553984347
0.243000000000000077,11.270838136578561262
0.244000000000000078,10.804449501582942261
0.245000000000000079,10.347372374927203964
0.246000000000000080,9.899465780321483166
0.247000000000000081,9.460595259817813130
0.248000000000000081,9.030632278848189642
0.249000000000000082,8.609453640794738405
0.250000000000000111,8.196940918208564852
0.251000000000000112,7.792979906524779565
0.252000000000000113,7.397460104954002524
0.253000000000000114,7.010274228171248012
0.254000000000000115,6.631317751465935828
0.255000000000000115,6.260488491165164149
0.256000000000000116,5.897686221389026429
0.257000000000000117,5.542812327539558659
0.258000000000000118,5.195769496358655815
0.259000000000000119,4.856461441907933718
0.260000000000000120,4.524792666420312415
0.261000000000000121,4.200668254643010968
0.262000000000000122,3.883993700026590723
0.263000000000000123,3.574674760910807159
0.264000000000000123,3.272617344706958420
0.265000000000000124,2.977727417973766944
0.266000000000000125,2.689910940223007696
0.267000000000000126,2.409073819267256500
0.268000000000000127,2.135121885929455843
0.269000000000000128,1.867960885969039309
0.270000000000000129,1.607496487136391039
0.271000000000000130,1.353634299343014158
0.272000000000000131,1.106279906025951831
0.273000000000000131,0.865338904887133054
0.274000000000000132,0.630716956299775866
0.275000000000000133,0.402319837791163537
0.276000000000000134,0.180053503132258236
0.277000000000000135,-0.036175855311974023
0.278000000000000136,-0.246461742195047240
0.279000000000000137,-0.450897293865764937
0.280000000000000138,-0.649575213091585391
0.281000000000000139,-0.842587704695753059
0.282000000000000139,-1.030026412864082364
0.283000000000000140,-1.211982360771798550
0.284000000000000141,-1.388545893080605165
0.285000000000000142,-1.559806621762299228
0.286000000000000143,-1.725853375617575569
0.287000000000000144,-1.886774153777252661
0.288000000000000145,-2.042656083399005507
0.289000000000000146,-2.193585381703746506
0.290000000000000147,-2.339647322434808441
0.291000000000000147,-2.480926206766840725
0.292000000000000148,-2.617505338642469148
0.293000000000000149,-2.749467004470482312
0.294000000000000150,-2.876892457081593246
0.295000000000000151,-2.999861903804748486
0.296000000000000152,-3.118454498498987260
0.297000000000000153,-3.232748337352569390
0.298000000000000154,-3.342820458242079074
0.299000000000000155,-3.448746843429103759
0.300000000000000155,-3.550602425360816827
0.301000000000000156,-3.648461095332569126
0.302000000000000157,-3.742395714765832881
0.303000000000000158,-3.832478128852296884
0.304000000000000159,-3.918779182315377252
0.305000000000000160,-4.001368737042392709
0.306000000000000161,-4.080315691345235862
0.307000000000000162,-4.155688000613102062
0.308000000000000163,-4.227552699128144020
0.309000000000000163,-4.295975922823549453
0.310000000000000164,-4.361022932773079397
0.311000000000000165,-4.422758139211334871
0.312000000000000166,-4.481245125895289227
0.313000000000000167,-4.536546674628853637
0.314000000000000168,-4.588724789784263791
0.315000000000000169,-4.637840722666076054
0.316000000000000170,-4.683954995575800417
0.317000000000000171,-4.727127425447222642
0.318000000000000171,-4.767417146934642247
0.319000000000000172,-4.804882634848144818
0.320000000000000173,-4.839581725841573423
0.321000000000000174,-4.871571639270231735
0.322000000000000175,-4.900908997146340873
0.323000000000000176,-4.927649843130788909
0.324000000000000177,-4.951849660509838991
0.325000000000000178,-4.973563389114991296
0.326000000000000179,-4.992845441153623831
0.327000000000000179,-5.009749715926305136
0.328000000000000180,-5.024329613414977302
0.329000000000000181,-5.036638046733940222
0.330000000000000182,-5.046727453442172440
0.331000000000000183,-5.054649805722622347
0.332000000000000184,-5.060456619439611003
0.333000000000000185,-5.064198962091307266
0.334000000000000186,-5.065927459679065770
0.335000000000000187,-5.065692302519977375
0.336000000000000187,-5.063543250033063714
0.337000000000000188,-5.059529634532915487
0.338000000000000189,-5.053700364068030915
0.339000000000000190,-5.046103924343550595
0.340000000000000191,-5.036788379770454682
0.341000000000000192,-5.025801373685411022
0.342000000000000193,-5.013190127786707251
0.343000000000000194,-4.999001440833339416
0.344000000000000195,-4.983281686654762233
0.345000000000000195,-4.966076811520003353
0.346000000000000196,-4.947432330914610432
0.347000000000000197,-4.927393325774460209
0.348000000000000198,-4.906004438225025410
0.349000000000000199,-4.883309866874448346
0.350000000000000200,-4.859353361708241614
0.351000000000000201,-4.834178218632570356
0.352000000000000202,-4.807827273712311111
0.353000000000000203,-4.780342897148956993
0.354000000000000203,-4.751766987042323365
0.355000000000000204,-4.722140962978564893
0.356000000000000205,-4.691505759485880667
0.357000000000000206,-4.659901819397651579
0.358000000000000207,-4.627369087161097738
0.359000000000000208,-4.593947002128247803
0.360000000000000209,-4.559674491864099899
0.361000000000000210,-4.524589965505228406
0.362000000000000210,-4.488731307200436227
0.363000000000000211,-4.452135869663217171
0.364000000000000212,-4.414840467864165063
0.365000000000000213,-4.376881372889568134
0.366000000000000214,-4.338294305990825883
0.367000000000000215,-4.299114432847476408
0.368000000000000216,-4.259376358065042112
0.369000000000000217,-4.219114119927037443
0.370000000000000218,-4.178361185419027457
0.371000000000000218,-4.137150445540774157
0.372000000000000219,-4.095514210921128218
0.373000000000000220,-4.053484207748632606
0.374000000000000221,-4.011091574029401308
0.375000000000000222,-3.968366856182180324
0.376000000000000223,-3.925340005979438107
0.377000000000000224,-3.882040377841573076
0.378000000000000225,-3.838496726490325361
0.379000000000000226,-3.794737204965996202
0.380000000000000226,-3.750789363012147160
0.381000000000000227,-3.706680145829901019
0.382000000000000228,-3.662435893203348058
0.383000000000000229,-3.618082338996141178
0.384000000000000230,-3.573644611018496509
0.385000000000000231,-3.529147231263073170
0.386000000000000232,-3.484614116506969062
0.387000000000000233,-3.440068579276607696
0.388000000000000234,-3.395533329171207981
0.389000000000000234,-3.351030474540125592
0.390000000000000235,-3.306581524508346526
0.391000000000000236,-3.262207391344130514
0.392000000000000237,-3.217928393161913814
0.393000000000000238,-3.173764256953366392
0.394000000000000239,-3.129734121938705815
0.395000000000000240,-3.085856543230239613
0.396000000000000241,-3.042149495799483905
0.397000000000000242,-2.998630378738936564
0.398000000000000242,-2.955316019809363759
0.399000000000000243,-2.912222680263019114
0.400000000000000244,-2.869366059933038393
0.401000000000000245,-2.826761302579217983
0.402000000000000246,-2.784423001479896076
0.403000000000000247,-2.742365205259785554
0.404000000000000248,-2.700601423943423285
0.405000000000000249,-2.659144635223783304
0.406000000000000250,-2.618007290935552955
0.407000000000000250,-2.577201323722648763
0.408000000000000251,-2.536738153889391167
0.409000000000000252,-2.496628696424938010
0.410000000000000253,-2.456883368190488248
0.411000000000000254,-2.417512095258923743
0.412000000000000255,-2.378524320396597780
0.413000000000000256,-2.339929010677111343
0.414000000000000257,-2.301734665216946141
0.415000000000000258,-2.263949323023143556
0.416000000000000258,-2.226580570943108128
0.417000000000000259,-2.189635551707025396
0.418000000000000260,-2.153120972053373272
0.419000000000000261,-2.117043110928271243
0.420000000000000262,-2.081407827749594208
0.421000000000000263,-2.046220570726971388
0.422000000000000264,-2.011486385228971052
0.423000000000000265,-1.977209922188997382
0.424000000000000266,-1.943395446541759997
0.425000000000000266,-1.910046845682134231
0.426000000000000267,-1.877167637938764289
0.427000000000000268,-1.844760981054786031
0.428000000000000269,-1.812829680668349042
0.429000000000000270,-1.781376198785904919
0.430000000000000271,-1.750402662241348661
0.431000000000000272,-1.719910871134475938
0.432000000000000273,-1.689902307242342472
0.433000000000000274,-1.660378142397469059
0.434000000000000274,-1.631339246826933209
0.435000000000000275,-1.602786197446781857
0.436000000000000276,-1.574719286106338823
0.437000000000000277,-1.547138527777212058
0.438000000000000278,-1.520043668682118820
0.439000000000000279,-1.493434194358822076
0.440000000000000280,-1.467309337654679968
0.441000000000000281,-1.441668086647583280
0.442000000000000282,-1.416509192489318725
0.443000000000000282,-1.391831177167419664
0.444000000000000283,-1.367632341182102529
0.445000000000000284,-1.343910771134777082
0.446000000000000285,-1.320664347224978163
0.447000000000000286,-1.297890750652891390
0.448000000000000287,-1.275587470924511635
0.449000000000000288,-1.253751813057049747
0.450000000000000289,-1.232380904682075506
0.451000000000000290,-1.211471703044284753
0.452000000000000290,-1.191021001893860731
0.453000000000000291,-1.171025438270552943
0.454000000000000292,-1.151481499177882117
0.455000000000000293,-1.132385528145887221
0.456000000000000294,-1.113733731681138206
0.457000000000000295,-1.095522185602809007
0.458000000000000296,-1.077746841263753641
0.459000000000000297,-1.060403531655740306
0.460000000000000298,-1.043487977398051214
0.461000000000000298,-1.026995792608876856
0.462000000000000299,-1.010922490658999529
0.463000000000000300,-0.995263489807397428
0.464000000000000301,-0.980014118718575356
0.465000000000000302,-0.965169621861488913
0.466000000000000303,-0.950725164790025778
0.467000000000000304,-0.936675839305181390
0.468000000000000305,-0.923016668499138326
0.469000000000000306,-0.909742611681503832
0.470000000000000306,-0.896848569188181677
0.471000000000000307,-0.884329387073261031
0.472000000000000308,-0.872179861684594826
0.473000000000000309,-0.860394744123649580
0.474000000000000310,-0.848968744590381519
0.475000000000000311,-0.837896536613933263
0.476000000000000312,-0.827172761170058557
0.477000000000000313,-0.816792030686136372
0.478000000000000314,-0.806748932934829299
0.479000000000000314,-0.797038034817455054
0.480000000000000315,-0.787653886038102380
0.481000000000000316,-0.778591022669760990
0.482000000000000317,-0.769843970613565021
0.483000000000000318,-0.761407248952493565
0.484000000000000319,-0.753275373200756659
0.485000000000000320,-0.745442858450249934
0.486000000000000321,-0.737904222415410649
0.487000000000000322,-0.730653988377900965
0.488000000000000322,-0.723686688032504244
0.489000000000000323,-0.716996864235773912
0.490000000000000324,-0.710579073658829996
0.491000000000000325,-0.704427889345867975
0.492000000000000326,-0.698537903179854647
0.493000000000000327,-0.692903728257010076
0.494000000000000328,-0.687520001171578854
0.495000000000000329,-0.682381384212491726
0.496000000000000330,-0.677482567473478015
0.497000000000000330,-0.672818270878251856
0.498000000000000331,-0.668383246122301711
0.499000000000000332,-0.664172278532970561
0.500000000000000333,-0.660180188849378569
0.501000000000000334,-0.656401834923783234
0.502000000000000335,-0.652832113346032084
0.503000000000000336,-0.649465960992686275
0.504000000000000337,-0.646298356502413296
0.505000000000000338,-0.643324321679260125
0.506000000000000338,-0.640538922825411250
0.507000000000000339,-0.637937272004992062
0.508000000000000340,-0.635514528240508469
0.509000000000000341,-0.633265898643532110
0.510000000000000342,-0.631186639481120748
0.511000000000000343,-0.629272057179594446
0.512000000000000344,-0.627517509267155216
0.513000000000000345,-0.625918405256905563
0.514000000000000346,-0.624470207471793826
0.515000000000000346,-0.623168431812929913
0.516000000000000347,-0.622008648472800685
0.517000000000000348,-0.620986482594869771
0.518000000000000349,-0.620097614880947168
0.519000000000000350,-0.619337782147829863
0.520000000000000351,-0.618702777834596152
0.521000000000000352,-0.618188452461978066
0.522000000000000353,-0.617790714045164724
0.523000000000000353,-0.617505528461417930
0.524000000000000354,-0.617328919773857843
0.525000000000000355,-0.617256970512716996
0.526000000000000356,-0.617285821915370736
0.527000000000000357,-0.617411674126466692
0.528000000000000358,-0.617630786359357531
0.529000000000000359,-0.617939477020145622
0.530000000000000360,-0.618334123795501567
0.531000000000000361,-0.618811163705518696
0.532000000000000361,-0.619367093122738632
0.533000000000000362,-0.619998467758543614
0.534000000000000363,-0.620701902618025825
0.535000000000000364,-0.621474071924484561
0.536000000000000365,-0.622311709014618741
0.537000000000000366,-0.623211606205520185
0.538000000000000367,-0.624170614634480980
0.539000000000000368,-0.625185644072724589
0.540000000000000369,-0.626253662713972203
0.541000000000000369,-0.627371696938940349
0.542000000000000370,-0.628536831056657364
0.543000000000000371,-0.629746207023596183
0.544000000000000372,-0.630997024141550455
0.545000000000000373,-0.632286538735142956
0.546000000000000374,-0.633612063809865900
0.547000000000000375,-0.634970968691522808
0.548000000000000376,-0.636360678647934996
0.549000000000000377,-0.637778674493699071
0.550000000000000377,-0.639222492178851742
0.551000000000000378,-0.640689722362198455
0.552000000000000379,-0.642178009970085673
0.553000000000000380,-0.643685053741385405
0.554000000000000381,-0.645208605759370335
0.555000000000000382,-0.646746470971276022
0.556000000000000383,-0.648296506696139696
0.557000000000000384,-0.649856622121703920
0.558000000000000385,-0.651424777790937326
0.559000000000000385,-0.652998985078898642
0.560000000000000386,-0.654577305660503983
0.561000000000000387,-0.656157850969842693
0.562000000000000388,-0.657738781651599158
0.563000000000000389,-0.659318307005190674
0.564000000000000390,-0.660894684422124734
0.565000000000000391,-0.662466218817163499
0.566000000000000392,-0.664031262053783045
0.567000000000000393,-0.665588212364457754
0.568000000000000393,-0.667135513766237254
0.569000000000000394,-0.668671655472118820
0.570000000000000395,-0.670195171298657577
0.571000000000000396,-0.671704639070253462
0.572000000000000397,-0.673198680020591578
0.573000000000000398,-0.674675958191584324
0.574000000000000399,-0.676135179830290922
0.575000000000000400,-0.677575092784145072
0.576000000000000401,-0.678994485894904187
0.577000000000000401,-0.680392188391689356
0.578000000000000402,-0.681767069283433225
0.579000000000000403,-0.683118036751092839
0.580000000000000404,-0.684444037539984285
0.581000000000000405,-0.685744056352490361
0.582000000000000406,-0.687017115241507770
0.583000000000000407,-0.688262273004886849
0.584000000000000408,-0.689478624581153277
0.585000000000000409,-0.690665300446789421
0.586000000000000409,-0.691821466015326014
0.587000000000000410,-0.692946321038502400
0.588000000000000411,-0.694039099009709615
0.589000000000000412,-0.695099066569988766
0.590000000000000413,-0.696125522916753003
0.591000000000000414,-0.697117799215470457
0.592000000000000415,-0.698075258014523747
0.593000000000000416,-0.698997292663385950
0.594000000000000417,-0.699883326734345168
0.595000000000000417,-0.700732813447945135
0.596000000000000418,-0.701545235102256526
0.597000000000000419,-0.702320102506217792
0.598000000000000420,-0.703056954417120350
0.599000000000000421,-0.703755356982426639
0.600000000000000422,-0.704414903186040608
0.601000000000000423,-0.705035212299142677
0.602000000000000424,-0.705615929335736469
0.603000000000000425,-0.706156724513015144
0.604000000000000425,-0.706657292716618146
0.605000000000000426,-0.707117352970925594
0.606000000000000427,-0.707536647914481343
0.607000000000000428,-0.707914943280550935
0.608000000000000429,-0.708252027383061145
0.609000000000000430,-0.708547710607779546
0.610000000000000431,-0.708801824909024214
0.611000000000000432,-0.709014223311803748
0.612000000000000433,-0.709184779419511413
0.613000000000000433,-0.709313386927262868
