# SiO2-Quartz_ADENINE
# h[nm],U(h)[kJ/mol]
0.149999999999999994,141.735039732572488447
0.150999999999999995,139.299813367266636988
0.151999999999999996,136.998693626660752898
0.152999999999999997,134.758002553305772153
0.153999999999999998,132.536008402660115735
0.154999999999999999,130.315350317568459104
0.156000000000000000,128.094351869820684442
0.157000000000000001,125.879569997603340425
0.158000000000000002,123.680361305693082841
0.159000000000000002,121.505454861178193937
0.160000000000000003,119.361175638341165950
0.161000000000000004,117.250864177897454965
0.162000000000000005,115.175063786966646262
0.163000000000000006,113.132125419842253677
0.164000000000000007,111.118972744778602646
0.165000000000000008,109.131855741790076308
0.166000000000000009,107.166991876496808800
0.167000000000000010,105.221047272252647531
0.168000000000000010,103.291447500512688862
0.169000000000000011,101.376531241871745692
0.170000000000000012,99.475573163759378303
0.171000000000000013,97.588707792217803672
0.172000000000000014,95.716786391709689497
0.173000000000000015,93.861195881277652120
0.174000000000000016,92.023664097006388829
0.175000000000000017,90.206070323430694202
0.176000000000000018,88.410274674011773755
0.177000000000000018,86.637975043538361319
0.178000000000000019,84.890596220264200156
0.179000000000000020,83.169212425219896545
0.180000000000000021,81.474502035897259589
0.181000000000000022,79.806731486428688527
0.182000000000000023,78.165764218239388583
0.183000000000000024,76.551089971711391513
0.184000000000000025,74.961869547485804333
0.185000000000000026,73.396990319800167413
0.186000000000000026,71.855128159914940511
0.187000000000000027,70.334811945669514444
0.188000000000000028,68.834487428674805187
0.189000000000000029,67.352577852778296119
0.190000000000000030,65.887539328120595883
0.191000000000000031,64.437909537258732939
0.192000000000000032,63.002348865634374420
0.193000000000000033,61.579673497771601376
0.194000000000000034,60.168880398548765243
0.195000000000000034,58.769164405675439866
0.196000000000000035,57.379927898309588841
0.197000000000000036,56.000783682928975793
0.198000000000000037,54.631551857830231711
0.199000000000000038,53.272251489356904131
0.200000000000000039,51.923087963732676542
0.201000000000000040,50.584436875590370164
0.202000000000000041,49.256825284898148709
0.203000000000000042,47.940911124345490180
0.204000000000000042,46.637461475006624312
0.205000000000000043,45.347330354160547472
0.206000000000000044,44.071436579668763045
0.207000000000000045,42.810742193744758310
0.208000000000000046,41.566231848068284194
0.209000000000000047,40.338893474171833020
0.210000000000000048,39.129700489491391124
0.211000000000000049,37.939595721588048605
0.212000000000000050,36.769477171572688690
0.213000000000000050,35.620185683133442467
0.214000000000000051,34.492494535923128751
0.215000000000000052,33.387100941349402206
0.216000000000000053,32.304619384787528702
0.217000000000000054,31.245576730542286015
0.218000000000000055,30.210408984070500793
0.219000000000000056,29.199459589529578096
0.220000000000000057,28.212979129091582564
0.221000000000000058,27.251126283111108961
0.222000000000000058,26.313969906592319603
0.223000000000000059,25.401492076946887266
0.224000000000000060,24.513591970250637075
0.225000000000000061,23.650090427624366640
0.226000000000000062,22.810735079545398918
0.227000000000000063,21.995205903444798423
0.228000000000000064,21.203121098508603382
0.229000000000000065,20.434043170863354533
0.230000000000000066,19.687485132019499900
0.231000000000000066,18.962916723331144198
0.232000000000000067,18.259770589114332040
0.233000000000000068,17.577448330780306662
0.234000000000000069,16.915326383753445327
0.235000000000000070,16.272761667948657305
0.236000000000000071,15.649096971099272224
0.237000000000000072,15.043666032191804760
0.238000000000000073,14.455798299641205773
0.239000000000000073,13.884823345602319122
0.240000000000000074,13.330074923949430499
0.241000000000000075,12.790894664970000605
0.242000000000000076,12.266635404718936542
0.243000000000000077,11.756664151285963982
0.244000000000000078,11.260364693965289717
0.245000000000000079,10.777139864513689105
0.246000000000000080,10.306413462372736589
0.247000000000000081,9.847631857947760636
0.248000000000000081,9.400265289818442227
0.249000000000000082,8.963808873139480937
0.250000000000000111,8.537783337511577031
0.251000000000000112,8.121735513300503584
0.252000000000000113,7.715238585788677383
0.253000000000000114,7.317892136696935168
0.254000000000000115,6.929321992540972808
0.255000000000000115,6.549179899023688911
0.256000000000000116,6.177143040234676974
0.257000000000000117,5.812913420860850167
0.258000000000000118,5.456217128931387883
0.259000000000000119,5.106803495846726548
0.260000000000000120,4.764444169596552925
0.261000000000000121,4.428932116174111755
0.262000000000000122,4.100080563257932909
0.263000000000000123,3.777721899274419037
0.264000000000000123,3.461706539985077935
0.265000000000000124,3.151901773774695492
0.266000000000000125,2.848190595858141272
0.267000000000000126,2.550470540683999587
0.268000000000000127,2.258652520897705074
0.269000000000000128,1.972659680342932376
0.270000000000000129,1.692426267730313016
0.271000000000000130,1.417896536791568352
0.272000000000000131,1.149023677968095569
0.273000000000000131,0.885768785956274507
0.274000000000000132,0.628099866750462588
0.275000000000000133,0.375990887187494127
0.276000000000000134,0.129420869405305561
0.277000000000000135,-0.111626967917971220
0.278000000000000136,-0.347166020180836365
0.279000000000000137,-0.577207058426201347
0.280000000000000138,-0.801758941372231804
0.281000000000000139,-1.020829277795207712
0.282000000000000139,-1.234425039490826492
0.283000000000000140,-1.442553125341563547
0.284000000000000141,-1.645220877283004146
0.285000000000000142,-1.842436549194961248
0.286000000000000143,-2.034209729944454814
0.287000000000000144,-2.220551721979648452
0.288000000000000145,-2.401475877019596528
0.289000000000000146,-2.576997890503640143
0.290000000000000147,-2.747136056561970907
0.291000000000000147,-2.911911485343394723
0.292000000000000148,-3.071348284592946065
0.293000000000000149,-3.225473707409451940
0.294000000000000150,-3.374318268135625409
0.295000000000000151,-3.517915828340689277
0.296000000000000152,-3.656303654850256546
0.297000000000000153,-3.789522451761290878
0.298000000000000154,-3.917616368353140643
0.299000000000000155,-4.040632984769738201
0.300000000000000155,-4.158623277304668520
0.301000000000000156,-4.271641565070585678
0.302000000000000157,-4.379745439779156868
0.303000000000000158,-4.482995680297154450
0.304000000000000159,-4.581456153580728774
0.305000000000000160,-4.675193703522653621
0.306000000000000161,-4.764278029178481866
0.307000000000000162,-4.848781553766819741
0.308000000000000163,-4.928779285767013185
0.309000000000000163,-5.004348673365723421
0.310000000000000164,-5.075569453431613809
0.311000000000000165,-5.142523496125614990
0.312000000000000166,-5.205294646183572738
0.313000000000000167,-5.263968561838249016
0.314000000000000168,-5.318632552279302317
0.315000000000000169,-5.369375414483320341
0.316000000000000170,-5.416287270181228131
0.317000000000000171,-5.459459403667541899
0.318000000000000171,-5.498984101095353516
0.319000000000000172,-5.534954491842890789
0.320000000000000173,-5.567464392481317859
0.321000000000000174,-5.596608153820005427
0.322000000000000175,-5.622480511454759800
0.323000000000000176,-5.645176440195655232
0.324000000000000177,-5.664791012705428841
0.325000000000000178,-5.681419262635637679
0.326000000000000179,-5.695156052507128308
0.327000000000000179,-5.706095946542458108
0.328000000000000180,-5.714333088621879497
0.329000000000000181,-5.719961085500929521
0.330000000000000182,-5.723072895395613813
0.331000000000000183,-5.723760722012579016
0.332000000000000184,-5.722115914073914844
0.333000000000000185,-5.718228870361571126
0.334000000000000186,-5.712188950283229261
0.335000000000000187,-5.704084389940272004
0.336000000000000187,-5.694002223659489381
0.337000000000000188,-5.682028210932182688
0.338000000000000189,-5.668246768689101600
0.339000000000000190,-5.652740908824958943
0.340000000000000191,-5.635592180873681301
0.341000000000000192,-5.616880619724439860
0.342000000000000193,-5.596684698258249213
0.343000000000000194,-5.575081284776705282
0.344000000000000195,-5.552145605086358238
0.345000000000000195,-5.527951209096575447
0.346000000000000196,-5.502569941782844865
0.347000000000000197,-5.476071918363474289
0.348000000000000198,-5.448525503534178860
0.349000000000000199,-5.419997294602310944
0.350000000000000200,-5.390552108360955330
0.351000000000000201,-5.360252971541727973
0.352000000000000202,-5.329161114684900724
0.353000000000000203,-5.297335969265597910
0.354000000000000203,-5.264835167915500769
0.355000000000000204,-5.231714547580670782
0.356000000000000205,-5.198028155457939725
0.357000000000000206,-5.163828257554325951
0.358000000000000207,-5.129165349716179989
0.359000000000000208,-5.094088170977912000
0.360000000000000209,-5.058643719082955847
0.361000000000000210,-5.022877268032901021
0.362000000000000210,-4.986832387524489540
0.363000000000000211,-4.950550964137590881
0.364000000000000212,-4.914073224141457530
0.365000000000000213,-4.877437757790225703
0.366000000000000214,-4.840681544983057805
0.367000000000000215,-4.803839982168250700
0.368000000000000216,-4.766946910375129853
0.369000000000000217,-4.730034644261605692
0.370000000000000218,-4.693134002069818678
0.371000000000000218,-4.656274336386400314
0.372000000000000219,-4.619483565608422104
0.373000000000000220,-4.582788206020255828
0.374000000000000221,-4.546213404390913482
0.375000000000000222,-4.509782971005503960
0.376000000000000223,-4.473519413048935078
0.377000000000000224,-4.437443968263707461
0.378000000000000225,-4.401576638807965125
0.379000000000000226,-4.365936225243723712
0.380000000000000226,-4.330540360589320237
0.381000000000000227,-4.295405544373512186
0.382000000000000228,-4.260547176632781152
0.383000000000000229,-4.225979591796662937
0.384000000000000230,-4.191716092409466299
0.385000000000000231,-4.157768982640321020
0.386000000000000232,-4.124149601536442944
0.387000000000000233,-4.090868355977986148
0.388000000000000234,-4.057934753295592500
0.389000000000000234,-4.025357433515084793
0.390000000000000235,-3.993144201196113130
0.391000000000000236,-3.961302056834786534
0.392000000000000237,-3.929837227802465804
0.393000000000000238,-3.898755198795853971
0.394000000000000239,-3.868060741775507516
0.395000000000000240,-3.837757945372529456
0.396000000000000241,-3.807850243745218854
0.397000000000000242,-3.778340444869512371
0.398000000000000242,-3.749230758249256557
0.399000000000000243,-3.720522822033988319
0.400000000000000244,-3.692217729533822101
0.401000000000000245,-3.664316055122871951
0.402000000000000246,-3.636817879523940977
0.403000000000000247,-3.609722814469042529
0.404000000000000248,-3.583030026731568451
0.405000000000000249,-3.556738261527408351
0.406000000000000250,-3.530845865283411378
0.407000000000000250,-3.505350807773025767
0.408000000000000251,-3.480250703619832908
0.409000000000000252,-3.455542833170937911
0.410000000000000253,-3.431224162742987804
0.411000000000000254,-3.407291364244652065
0.412000000000000255,-3.383740834180085422
0.413000000000000256,-3.360568712038889849
0.414000000000000257,-3.337770898078498583
0.415000000000000258,-3.315343070505972545
0.416000000000000258,-3.293280702066388788
0.417000000000000259,-3.271579076045921575
0.418000000000000260,-3.250233301697966315
0.419000000000000261,-3.229238329101252081
0.420000000000000262,-3.208588963459238386
0.421000000000000263,-3.188279878850568849
0.422000000000000264,-3.168305631440448522
0.423000000000000265,-3.148660672163374752
0.424000000000000266,-3.129339358887808231
0.425000000000000266,-3.110335968073417057
0.426000000000000267,-3.091644705932002690
0.427000000000000268,-3.073259719103174525
0.428000000000000269,-3.055175104855969437
0.429000000000000270,-3.037384920827855161
0.430000000000000271,-3.019883194312409369
0.431000000000000272,-3.002663931107237172
0.432000000000000273,-2.985721123933499310
0.433000000000000274,-2.969048760438625756
0.434000000000000274,-2.952640830793602511
0.435000000000000275,-2.936491334896262906
0.436000000000000276,-2.920594289192008919
0.437000000000000277,-2.904943733123149574
0.438000000000000278,-2.889533735218162924
0.439000000000000279,-2.874358398831953210
0.440000000000000280,-2.859411867548083741
0.441000000000000281,-2.844688330253860808
0.442000000000000282,-2.830182025899081744
0.443000000000000282,-2.815887247948888117
0.444000000000000283,-2.801798348541348904
0.445000000000000284,-2.787909742359913512
0.446000000000000285,-2.774215910230871440
0.447000000000000286,-2.760711402455883423
0.448000000000000287,-2.747390841889123525
0.449000000000000288,-2.734248926768832355
0.450000000000000289,-2.721280433312506020
0.451000000000000290,-2.708480218084979629
0.452000000000000290,-2.695843220148442576
0.453000000000000291,-2.683364463003091949
0.454000000000000292,-2.671039056327117578
0.455000000000000293,-2.658862197524356930
0.456000000000000294,-2.646829173087855036
0.457000000000000295,-2.634935359787318632
0.458000000000000296,-2.623176225688230723
0.459000000000000297,-2.611547331010255490
0.460000000000000298,-2.600044328832290752
0.461000000000000298,-2.588662965651360892
0.462000000000000299,-2.577399081802357550
0.463000000000000300,-2.566248611745358676
0.464000000000000301,-2.555207584227177975
0.465000000000000302,-2.544272122323504526
0.466000000000000303,-2.533438443367819204
0.467000000000000304,-2.522702858773124390
0.468000000000000305,-2.512061773752285454
0.469000000000000306,-2.501511686942602175
0.470000000000000306,-2.491049189940135022
0.471000000000000307,-2.480670966748899975
0.472000000000000308,-2.470373793150202779
0.473000000000000309,-2.460154535996889713
0.474000000000000310,-2.450010152437307909
0.475000000000000311,-2.439937689073549798
0.476000000000000312,-2.429934281058403478
0.477000000000000313,-2.419997151135210967
0.478000000000000314,-2.410123608624743063
0.479000000000000314,-2.400311048363073851
0.480000000000000315,-2.390556949594122127
0.481000000000000316,-2.380858874820634963
0.482000000000000317,-2.371214468616964943
0.483000000000000318,-2.361621456407091202
0.484000000000000319,-2.352077643211030189
0.485000000000000320,-2.342580912362760337
0.486000000000000321,-2.333129224202558305
0.487000000000000322,-2.323720614746622726
0.488000000000000322,-2.314353194336584263
0.489000000000000323,-2.305025146271602043
0.490000000000000324,-2.295734725425413902
0.491000000000000325,-2.286480256850710102
0.492000000000000326,-2.277260134373054079
0.493000000000000327,-2.268072819176515598
0.494000000000000328,-2.258916838382986292
0.495000000000000329,-2.249790783627152457
0.496000000000000330,-2.240693309628889018
0.497000000000000330,-2.231623132764911421
0.498000000000000331,-2.222579029641163828
0.499000000000000332,-2.213559835667678222
0.500000000000000333,-2.204564443637254012
0.501000000000000334,-2.195591802309353024
0.502000000000000335,-2.186640915000576335
0.503000000000000336,-2.177710838182893571
0.504000000000000337,-2.168800680090813948
0.505000000000000338,-2.159909599338561748
0.506000000000000338,-2.151036803548294962
0.507000000000000339,-2.142181547990297474
0.508000000000000340,-2.133343134236027616
0.509000000000000341,-2.124520908824901966
0.510000000000000342,-2.115714261945482288
0.511000000000000343,-2.106922626131886300
0.512000000000000344,-2.098145474975976921
0.513000000000000345,-2.089382321856008140
0.514000000000000346,-2.080632718682266180
0.515000000000000346,-2.071896254660170911
0.516000000000000347,-2.063172555071325576
0.517000000000000348,-2.054461280072986895
0.518000000000000349,-2.045762123516202013
0.519000000000000350,-2.037074811783073258
0.520000000000000351,-2.028399102643363427
0.521000000000000352,-2.019734784130769789
0.522000000000000353,-2.011081673439004014
0.523000000000000353,-2.002439615837945830
0.524000000000000354,-1.993808483610018500
0.525000000000000355,-1.985188175006863842
0.526000000000000356,-1.976578613226463998
0.527000000000000357,-1.967979745410805226
0.528000000000000358,-1.959391541664039949
0.529000000000000359,-1.950813994091292969
0.530000000000000360,-1.942247115857983930
0.531000000000000361,-1.933690940269765735
0.532000000000000361,-1.925145519872931699
0.533000000000000362,-1.916610925575308766
0.534000000000000363,-1.908087245787497110
0.535000000000000364,-1.899574585584402397
0.536000000000000365,-1.891073065886907045
0.537000000000000366,-1.882582822663594557
0.538000000000000367,-1.874104006152312207
0.539000000000000368,-1.865636780101529668
0.540000000000000369,-1.857181321031168508
0.541000000000000369,-1.848737817512881465
0.542000000000000370,-1.840306469469454642
0.543000000000000371,-1.831887487493210953
0.544000000000000372,-1.823481092183171892
0.545000000000000373,-1.815087513500766025
0.546000000000000374,-1.806706990143836622
0.547000000000000375,-1.798339768938723493
0.548000000000000376,-1.789986104250200327
0.549000000000000377,-1.781646257408973311
0.550000000000000377,-1.773320496156510773
0.551000000000000378,-1.765009094106942511
0.552000000000000379,-1.756712330225769447
0.553000000000000380,-1.748430488325105614
0.554000000000000381,-1.740163856575168255
0.555000000000000382,-1.731912727031809096
0.556000000000000383,-1.723677395179683103
0.557000000000000384,-1.715458159490935275
0.558000000000000385,-1.707255320998976700
0.559000000000000385,-1.699069182887178897
0.560000000000000386,-1.690900050092131846
0.561000000000000387,-1.682748228921230993
0.562000000000000388,-1.674614026684265955
0.563000000000000389,-1.666497751338784639
0.564000000000000390,-1.658399711148879963
0.565000000000000391,-1.650320214357181126
0.566000000000000392,-1.642259568869719022
0.567000000000000393,-1.634218081953435986
0.568000000000000393,-1.626196059945993255
0.569000000000000394,-1.618193807977666321
0.570000000000000395,-1.610211629705025072
0.571000000000000396,-1.602249827056085207
0.572000000000000397,-1.594308699986758615
0.573000000000000398,-1.586388546248210352
0.574000000000000399,-1.578489661164974134
0.575000000000000400,-1.570612337423453075
0.576000000000000401,-1.562756864870625595
0.577000000000000401,-1.554923530322679159
0.578000000000000402,-1.547112617383281208
0.579000000000000403,-1.539324406271251444
0.580000000000000404,-1.531559173657438988
0.581000000000000405,-1.523817192510459551
0.582000000000000406,-1.516098731951141421
0.583000000000000407,-1.508404057115372066
0.584000000000000408,-1.500733429025163712
0.585000000000000409,-1.493087104467663462
0.586000000000000409,-1.485465335881892779
0.587000000000000410,-1.477868371253019841
0.588000000000000411,-1.470296454013871656
0.589000000000000412,-1.462749822953564260
0.590000000000000413,-1.455228712132937696
0.591000000000000414,-1.447733350806654773
0.592000000000000415,-1.440263963351741783
0.593000000000000416,-1.432820769202334699
0.594000000000000417,-1.425403982790456769
0.595000000000000417,-1.418013813492680075
0.596000000000000418,-1.410650465582339974
0.597000000000000419,-1.403314138187296445
0.598000000000000420,-1.396005025252890830
0.599000000000000421,-1.388723315510038248
0.600000000000000422,-1.381469192448205430
0.601000000000000423,-1.374242834293132542
0.602000000000000424,-1.367044413989120244
0.603000000000000425,-1.359874099185732543
0.604000000000000425,-1.352732052228708293
0.605000000000000426,-1.345618430154970513
0.606000000000000427,-1.338533384691585670
0.607000000000000428,-1.331477062258407562
0.608000000000000429,-1.324449603974477974
0.609000000000000430,-1.317451145667759338
0.610000000000000431,-1.310481817888329736
0.611000000000000432,-1.303541745924703399
0.612000000000000433,-1.296631049823220749
0.613000000000000433,-1.289749844410414514
