# SiO2-Quartz_HIP-AC
# h[nm],U(h)[kJ/mol]
0.149999999999999994,136.102693183703138402
0.150999999999999995,133.257401971921211725
0.151999999999999996,131.770635471598041022
0.152999999999999997,130.671632942663080712
0.153999999999999998,129.547584165490150099
0.154999999999999999,128.275161219553012870
0.156000000000000000,126.864182438214953663
0.157000000000000001,125.371535241966967078
0.158000000000000002,123.857801311330234739
0.159000000000000002,122.368776676103692580
0.160000000000000003,120.930641231247747669
0.161000000000000004,119.551887421495621311
0.162000000000000005,118.227959035658471976
0.163000000000000006,116.946364566340022861
0.164000000000000007,115.691154495608131469
0.165000000000000008,114.446322616074368739
0.166000000000000009,113.198068633728823329
0.167000000000000010,111.936051484062161876
0.168000000000000010,110.653842533480911925
0.169000000000000011,109.348802666137771666
0.170000000000000012,108.021587629130934261
0.171000000000000013,106.675450854008474266
0.172000000000000014,105.315473551110443395
0.173000000000000015,103.947814448644706431
0.174000000000000016,102.579039207381427445
0.175000000000000017,101.215563423223031236
0.176000000000000018,99.863223238592553344
0.177000000000000018,98.526973319285076514
0.178000000000000019,97.210702444106431130
0.179000000000000020,95.917151258619668397
0.180000000000000021,94.647913965572627149
0.181000000000000022,93.403505071540294580
0.182000000000000023,92.183473118618579178
0.183000000000000024,90.986545068929231661
0.184000000000000025,89.810787266756761937
0.185000000000000026,88.653771372900990855
0.186000000000000026,87.512736131591182698
0.187000000000000027,86.384738147027661626
0.188000000000000028,85.266786925233276406
0.189000000000000029,84.155961230661617378
0.190000000000000030,83.049505300046504885
0.191000000000000031,81.944904653942870709
0.192000000000000032,80.839942169153758300
0.193000000000000033,79.732735751106190492
0.194000000000000034,78.621759406888969579
0.195000000000000034,77.505849800967936858
0.196000000000000035,76.384200509563711989
0.197000000000000036,75.256346207055543118
0.198000000000000037,74.122138946244831459
0.199000000000000038,72.981718558055291624
0.200000000000000039,71.835479015876273934
0.201000000000000040,70.684032402367407144
0.202000000000000041,69.528171895988236884
0.203000000000000042,68.368834971684890434
0.204000000000000042,67.207067793344606343
0.205000000000000043,66.043991570873529895
0.206000000000000044,64.880771466219371746
0.207000000000000045,63.718588462961328389
0.208000000000000046,62.558614464575740044
0.209000000000000047,61.401990757524536946
0.210000000000000048,60.249809866519250079
0.211000000000000049,59.103100739749699244
0.212000000000000050,57.962817130202004989
0.213000000000000050,56.829828983856216951
0.214000000000000051,55.704916604824155968
0.215000000000000052,54.588767339602398465
0.216000000000000053,53.481974505810590870
0.217000000000000054,52.385038283372509227
0.218000000000000055,51.298368286481490941
0.219000000000000056,50.222287541401456679
0.220000000000000057,49.157037606852149736
0.221000000000000058,48.102784589226835976
0.222000000000000058,47.059625823134240363
0.223000000000000059,46.027597007848534361
0.224000000000000060,45.006679611409630581
0.225000000000000061,43.996808375696993210
0.226000000000000062,42.997878777272219963
0.227000000000000063,42.009754319716037685
0.228000000000000064,41.032273553245076414
0.229000000000000065,40.065256736321664732
0.230000000000000066,39.108512071591533754
0.231000000000000066,38.161841464671411472
0.232000000000000067,37.225045768996054107
0.233000000000000068,36.297929493092553344
0.234000000000000069,35.380304958288817829
0.235000000000000070,34.471995905016967754
0.236000000000000071,33.572840554602912277
0.237000000000000072,32.682694140810312433
0.238000000000000073,31.801430931522123302
0.239000000000000073,30.928945765888972375
0.240000000000000074,30.065155136146721304
0.241000000000000075,29.209997846214474038
0.242000000000000076,28.363435281222706408
0.243000000000000077,27.525451323391859404
0.244000000000000078,26.696051950279859000
0.245000000000000079,25.875264551431609306
0.246000000000000080,25.063136998982724180
0.247000000000000081,24.259736506869153061
0.248000000000000081,23.465148312051681501
0.249000000000000082,22.679474209643618821
0.250000000000000111,21.902830972091813067
0.251000000000000112,21.135348680662406906
0.252000000000000113,20.377168995467034307
0.253000000000000114,19.628443388181999296
0.254000000000000115,18.889331359490658002
0.255000000000000115,18.159998661157708000
0.256000000000000116,17.440615540545014284
0.257000000000000117,16.731355023326717202
0.258000000000000118,16.032391248176587339
0.259000000000000119,15.343897865295238248
0.260000000000000120,14.666046508832570439
0.261000000000000121,13.999005351551016219
0.262000000000000122,13.342937748472312620
0.263000000000000123,12.698000974761020743
0.264000000000000123,12.064345061721869712
0.265000000000000124,11.442111733527303485
0.266000000000000125,10.831433446145121380
0.267000000000000126,10.232432528900980984
0.268000000000000127,9.645220428183936434
0.269000000000000128,9.069897051982664493
0.270000000000000129,8.506550213218593726
0.271000000000000130,7.955255169216085775
0.272000000000000131,7.416074254114842113
0.273000000000000131,6.889056600577364797
0.274000000000000132,6.374237946772014496
0.275000000000000133,5.871640524311645848
0.276000000000000134,5.381273022594312394
0.277000000000000135,4.903130624821537609
0.278000000000000136,4.437195110852112379
0.279000000000000137,3.983435021984006230
0.280000000000000138,3.541805882736379196
0.281000000000000139,3.112250474721990567
0.282000000000000139,2.694699157755871433
0.283000000000000140,2.289070233431053758
0.284000000000000141,1.895270346505078196
0.285000000000000142,1.513194919575965081
0.286000000000000143,1.142728616681131237
0.287000000000000144,0.783745831623546385
0.288000000000000145,0.436111197012138352
0.289000000000000146,0.099680110198166541
0.290000000000000147,-0.225700727510934673
0.291000000000000147,-0.540192761771391416
0.292000000000000148,-0.843965029459337712
0.293000000000000149,-1.137193599254596288
0.294000000000000150,-1.420061011333683565
0.295000000000000151,-1.692755718744670901
0.296000000000000152,-1.955471532831555947
0.297000000000000153,-2.208407074874284781
0.298000000000000154,-2.451765235914826313
0.299000000000000155,-2.685752646549353528
0.300000000000000155,-2.910579158283062462
0.301000000000000156,-3.126457337867597719
0.302000000000000157,-3.333601975872406253
0.303000000000000158,-3.532229610579798340
0.304000000000000159,-3.722558068140826126
0.305000000000000160,-3.904806019784034188
0.306000000000000161,-4.079192556732757602
0.307000000000000162,-4.245936783358397193
0.308000000000000163,-4.405257428977087386
0.309000000000000163,-4.557372478585274500
0.310000000000000164,-4.702498822726283834
0.311000000000000165,-4.840851926583414233
0.312000000000000166,-4.972645518307421852
0.313000000000000167,-5.098091296504764003
0.314000000000000168,-5.217398656739498541
0.315000000000000169,-5.330774436834611940
0.316000000000000170,-5.438422680698505651
0.317000000000000171,-5.540544420347737642
0.318000000000000171,-5.637337475749591320
0.319000000000000172,-5.728996272065296047
0.320000000000000173,-5.815711673837745010
0.321000000000000174,-5.897670835635457465
0.322000000000000175,-5.975057068637484647
0.323000000000000176,-6.048049722620899793
0.324000000000000177,-6.116824082794121153
0.325000000000000178,-6.181551280904156620
0.326000000000000179,-6.242398220035227041
0.327000000000000179,-6.299527512507767213
0.328000000000000180,-6.353097430282304003
0.329000000000000181,-6.403261867270761520
0.330000000000000182,-6.450170312957892449
0.331000000000000183,-6.493967836738987032
0.332000000000000184,-6.534795082384415643
0.333000000000000185,-6.572788272048846636
0.334000000000000186,-6.608079219251424163
0.335000000000000187,-6.640795350263259067
0.336000000000000187,-6.671059733350254817
0.337000000000000188,-6.698991115331430990
0.338000000000000189,-6.724703964927184252
0.339000000000000190,-6.748308522385949360
0.340000000000000191,-6.769910854893100627
0.341000000000000192,-6.789612917281867333
0.342000000000000193,-6.807512617582330172
0.343000000000000194,-6.823703886961347109
0.344000000000000195,-6.838276753623003579
0.345000000000000195,-6.851317420256988200
0.346000000000000196,-6.862908344638801061
0.347000000000000197,-6.873128323003832918
0.348000000000000198,-6.882052575834116226
0.349000000000000199,-6.889752835713965240
0.350000000000000200,-6.896297436927892655
0.351000000000000201,-6.901751406490726382
0.352000000000000202,-6.906176556316705906
0.353000000000000203,-6.909631576250548690
0.354000000000000203,-6.912172127699427904
0.355000000000000204,-6.913850937620319215
0.356000000000000205,-6.914717892632611829
0.357000000000000206,-6.914820133040552541
0.358000000000000207,-6.914202146564370821
0.359000000000000208,-6.912905861593091394
0.360000000000000209,-6.910970739785424755
0.361000000000000210,-6.908433867858057909
0.362000000000000210,-6.905330048413409472
0.363000000000000211,-6.901691889670732216
0.364000000000000212,-6.897549893976341551
0.365000000000000213,-6.892932544979562870
0.366000000000000214,-6.887866393371879781
0.367000000000000215,-6.882376141096669286
0.368000000000000216,-6.876484723946981958
0.369000000000000217,-6.870213392477557690
0.370000000000000218,-6.863581791166597945
0.371000000000000218,-6.856608035770578979
0.372000000000000219,-6.849308788823788241
0.373000000000000220,-6.841699333241441749
0.374000000000000221,-6.833793643992318145
0.375000000000000222,-6.825604457813446047
0.376000000000000223,-6.817143340945921004
0.377000000000000224,-6.808420754876307157
0.378000000000000225,-6.799446120073957545
0.379000000000000226,-6.790227877719469340
0.380000000000000226,-6.780773549424526259
0.381000000000000227,-6.771089794947464213
0.382000000000000228,-6.761182467913409155
0.383000000000000229,-6.751056669551367406
0.384000000000000230,-6.740716800464282343
0.385000000000000231,-6.730166610451378872
0.386000000000000232,-6.719409246404843827
0.387000000000000233,-6.708447298305976858
0.388000000000000234,-6.697282843347923453
0.389000000000000234,-6.685917488214842663
0.390000000000000235,-6.674352409548880871
0.391000000000000236,-6.662588392638556734
0.392000000000000237,-6.650625868363306381
0.393000000000000238,-6.638464948430788937
0.394000000000000239,-6.626105458944313575
0.395000000000000240,-6.613546972339247709
0.396000000000000241,-6.600788837727749936
0.397000000000000242,-6.587830209692183026
0.398000000000000242,-6.574670075568059602
0.399000000000000243,-6.561307281257798607
0.400000000000000244,-6.547740555616951674
0.401000000000000245,-6.533968533454908467
0.402000000000000246,-6.519989777191828928
0.403000000000000247,-6.505802797214076172
0.404000000000000248,-6.491406070969897080
0.405000000000000249,-6.476798060847268168
0.406000000000000250,-6.461977230875261213
0.407000000000000250,-6.446942062290327513
0.408000000000000251,-6.431691068008186463
0.409000000000000252,-6.416222806041753657
0.410000000000000253,-6.400535891905032138
0.411000000000000254,-6.384629010042187858
0.412000000000000255,-6.368500924320631640
0.413000000000000256,-6.352150487626197162
0.414000000000000257,-6.335576650597753101
0.415000000000000258,-6.318778469538068876
0.416000000000000258,-6.301755113536795072
0.417000000000000259,-6.284505870840872532
0.418000000000000260,-6.267030154506707973
0.419000000000000261,-6.249327507367818058
0.420000000000000262,-6.231397606350673968
0.421000000000000263,-6.213240266170840798
0.422000000000000264,-6.194855442440399429
0.423000000000000265,-6.176243234217069222
0.424000000000000266,-6.157403886024495065
0.425000000000000266,-6.138337789372134701
0.426000000000000267,-6.119045483802691976
0.427000000000000268,-6.099527657493854171
0.428000000000000269,-6.079785147440380122
0.429000000000000270,-6.059818939241853997
0.430000000000000271,-6.039630166520265853
0.431000000000000272,-6.019220109991177736
0.432000000000000273,-5.998590196210985326
0.433000000000000274,-5.977741996022318816
0.434000000000000274,-5.956677222718566256
0.435000000000000275,-5.935397729947910150
0.436000000000000276,-5.913905509376384373
0.437000000000000277,-5.892202688128675980
0.438000000000000278,-5.870291526024745465
0.439000000000000279,-5.848174412629544072
0.440000000000000280,-5.825853864132330528
0.441000000000000281,-5.803332520071514011
0.442000000000000282,-5.780613139920206756
0.443000000000000282,-5.757698599546844598
0.444000000000000283,-5.734591887564937984
0.445000000000000284,-5.711296101584945717
0.446000000000000285,-5.687814444380935974
0.447000000000000286,-5.664150219984095180
0.448000000000000287,-5.640306829714240244
0.449000000000000288,-5.616287768160414196
0.450000000000000289,-5.592096619120574097
0.451000000000000290,-5.567737051510234458
0.452000000000000290,-5.543212815249241920
0.453000000000000291,-5.518527737135262790
0.454000000000000292,-5.493685716712319866
0.455000000000000293,-5.468690722141975158
0.456000000000000294,-5.443546786084486833
0.457000000000000295,-5.418258001596788276
0.458000000000000296,-5.392828518053553566
0.459000000000000297,-5.367262537097509778
0.460000000000000298,-5.341564308624413115
0.461000000000000298,-5.315738126808048136
0.462000000000000299,-5.289788326169964527
0.463000000000000300,-5.263719277698497123
0.464000000000000301,-5.237535385021212520
0.465000000000000302,-5.211241080634642309
0.466000000000000303,-5.184840822194706433
0.467000000000000304,-5.158339088871179534
0.468000000000000305,-5.131740377769031802
0.469000000000000306,-5.105049200419310651
0.470000000000000306,-5.078270079342078525
0.471000000000000307,-5.051407544683318207
0.472000000000000308,-5.024466130927968344
0.473000000000000309,-4.997450373690603520
0.474000000000000310,-4.970364806585292783
0.475000000000000311,-4.943213958175855183
0.476000000000000312,-4.916002349007688288
0.477000000000000313,-4.888734488721886429
0.478000000000000314,-4.861414873252462243
0.479000000000000314,-4.834047982107240848
0.480000000000000315,-4.806638275732669996
0.481000000000000316,-4.779190192962967210
0.482000000000000317,-4.751708148553497324
0.483000000000000318,-4.724196530798514537
0.484000000000000319,-4.696659699232995422
0.485000000000000320,-4.669101982418320418
0.486000000000000321,-4.641527675811436993
0.487000000000000322,-4.613941039716968007
0.488000000000000322,-4.586346297321650667
0.489000000000000323,-4.558747632810546513
0.490000000000000324,-4.531149189564134261
0.491000000000000325,-4.503555068435502129
0.492000000000000326,-4.475969326106689294
0.493000000000000327,-4.448395973523273206
0.494000000000000328,-4.420838974406075650
0.495000000000000329,-4.393302243838943077
0.496000000000000330,-4.365789646931415469
0.497000000000000330,-4.338304997555174403
0.498000000000000331,-4.310852057152843919
0.499000000000000332,-4.283434533618125428
0.500000000000000333,-4.256056080245768314
0.501000000000000334,-4.228720294750042186
0.502000000000000335,-4.201430718350452231
0.503000000000000336,-4.174190834923224180
0.504000000000000337,-4.147004070217152893
0.505000000000000338,-4.119873791132400598
0.506000000000000338,-4.092803305060810359
0.507000000000000339,-4.065795859286245317
0.508000000000000340,-4.038854640443486410
0.509000000000000341,-4.011982774034341226
0.510000000000000342,-3.985183323999261340
0.511000000000000343,-3.958459292343218916
0.512000000000000344,-3.931813618814208322
0.513000000000000345,-3.905249180632970329
0.514000000000000346,-3.878768792272511146
0.515000000000000346,-3.852375205285821558
0.516000000000000347,-3.826071108180458147
0.517000000000000348,-3.799859126338530846
0.518000000000000349,-3.773741821980558520
0.519000000000000350,-3.747721694171917584
0.520000000000000351,-3.721801178870321358
0.521000000000000352,-3.695982649013094257
0.522000000000000353,-3.670268414642696264
0.523000000000000353,-3.644660723069228059
0.524000000000000354,-3.619161759068596496
0.525000000000000355,-3.593773645114905158
0.526000000000000356,-3.568498441645825636
0.527000000000000357,-3.543338147359710977
0.528000000000000358,-3.518294699543011550
0.529000000000000359,-3.493369974426972391
0.530000000000000360,-3.468565787572140291
0.531000000000000361,-3.443883894279688551
0.532000000000000361,-3.419325990028200035
0.533000000000000362,-3.394893710934888897
0.534000000000000363,-3.370588634239989112
0.535000000000000364,-3.346412278813296837
0.536000000000000365,-3.322366105681704429
0.537000000000000366,-3.298451518576704267
0.538000000000000367,-3.274669864500725058
0.539000000000000368,-3.251022434311439557
0.540000000000000369,-3.227510463322824652
0.541000000000000369,-3.204135131922216662
0.542000000000000370,-3.180897566202218307
0.543000000000000371,-3.157798838606651337
0.544000000000000372,-3.134839968589598236
0.545000000000000373,-3.112021923286662606
0.546000000000000374,-3.089345618197547605
0.547000000000000375,-3.066811917879173066
0.548000000000000376,-3.044421636648489304
0.549000000000000377,-3.022175539294192248
0.550000000000000377,-3.000074341796548083
0.551000000000000378,-2.978118712054624861
0.552000000000000379,-2.956309270620192553
0.553000000000000380,-2.934646591437554797
0.554000000000000381,-2.913131202588645330
0.555000000000000382,-2.891763587042796679
0.556000000000000383,-2.870544183410382200
0.557000000000000384,-2.849473386699910904
0.558000000000000385,-2.828551549077791272
0.559000000000000385,-2.807778980630325716
0.560000000000000386,-2.787155950127289117
0.561000000000000387,-2.766682685786599372
0.562000000000000388,-2.746359376039508859
0.563000000000000389,-2.726186170295908706
0.564000000000000390,-2.706163179709132116
0.565000000000000391,-2.686290477939915267
0.566000000000000392,-2.666568101918970868
0.567000000000000393,-2.646996052607843097
0.568000000000000393,-2.627574295757514555
0.569000000000000394,-2.608302762664459262
0.570000000000000395,-2.589181350923755787
0.571000000000000396,-2.570209925178811083
0.572000000000000397,-2.551388317867487210
0.573000000000000398,-2.532716329964147750
0.574000000000000399,-2.514193731717443647
0.575000000000000400,-2.495820263383412563
0.576000000000000401,-2.477595635953683928
0.577000000000000401,-2.459519531878531229
0.578000000000000402,-2.441591605784396268
0.579000000000000403,-2.423811485185750403
0.580000000000000404,-2.406178771191045840
0.581000000000000405,-2.388693039202445689
0.582000000000000406,-2.371353839609241287
0.583000000000000407,-2.354160698474653479
0.584000000000000408,-2.337113118215915719
0.585000000000000409,-2.320210578277411173
0.586000000000000409,-2.303452535796693734
0.587000000000000410,-2.286838426263306356
0.588000000000000411,-2.270367664170150235
0.589000000000000412,-2.254039643657387071
0.590000000000000413,-2.237853739148630616
0.591000000000000414,-2.221809305979399962
0.592000000000000415,-2.205905681017736875
0.593000000000000416,-2.190142183276781118
0.594000000000000417,-2.174518114519334411
0.595000000000000417,-2.159032759854333072
0.596000000000000418,-2.143685388324994889
0.597000000000000419,-2.128475253488837371
0.598000000000000420,-2.113401593989256089
0.599000000000000421,-2.098463634118794552
0.600000000000000422,-2.083660584373971059
0.601000000000000423,-2.068991642001653197
0.602000000000000424,-2.054455991536967119
0.603000000000000425,-2.040052805332686070
0.604000000000000425,-2.025781244080105292
0.605000000000000426,-2.011640457321381525
0.606000000000000427,-1.997629583953381527
0.607000000000000428,-1.983747752722877511
0.608000000000000429,-1.969994082713399042
0.609000000000000430,-1.956367683823358350
0.610000000000000431,-1.942867657235849421
0.611000000000000432,-1.929493095879863729
0.612000000000000433,-1.916243084883054948
0.613000000000000433,-1.903116702016116601
