# SiO2-Quartz_FLUORANE-AC
# h[nm],U(h)[kJ/mol]
0.149999999999999994,45.708530548613794053
0.150999999999999995,44.768293575046683941
0.151999999999999996,44.177975836023634315
0.152999999999999997,43.614052825412763070
0.153999999999999998,42.981385732578949899
0.154999999999999999,42.282317916888025877
0.156000000000000000,41.549889047691358712
0.157000000000000001,40.817362035771047601
0.158000000000000002,40.107215858556351407
0.159000000000000002,39.429711169330524001
0.160000000000000003,38.785463345169254978
0.161000000000000004,38.169085141025469454
0.162000000000000005,37.572504814327814415
0.163000000000000006,36.987431689948955693
0.164000000000000007,36.406894041132495943
0.165000000000000008,35.825983360331825622
0.166000000000000009,35.242011204873207930
0.167000000000000010,34.654285281892981629
0.168000000000000010,34.063679176407070770
0.169000000000000011,33.472127179868607527
0.170000000000000012,32.882133671329498270
0.171000000000000013,32.296350806652000642
0.172000000000000014,31.717250654478540639
0.173000000000000015,31.146898222900198050
0.174000000000000016,30.586818973914866149
0.175000000000000017,30.037947025379516219
0.176000000000000018,29.500636894390005693
0.177000000000000018,28.974721105254666043
0.178000000000000019,28.459597256930770470
0.179000000000000020,27.954330438182658725
0.180000000000000021,27.457759623955563910
0.181000000000000022,26.968599491451801242
0.182000000000000023,26.485531708683829777
0.183000000000000024,26.007282028943016883
0.184000000000000025,25.532681406708011451
0.185000000000000026,25.060710822727884306
0.186000000000000026,24.590530591632905555
0.187000000000000027,24.121495667902369320
0.188000000000000028,23.653158918539403999
0.189000000000000029,23.185264549045392357
0.190000000000000030,22.717733906696356172
0.191000000000000031,22.250645790058719342
0.192000000000000032,21.784213207946748980
0.193000000000000033,21.318758289348423318
0.194000000000000034,20.854686776023317663
0.195000000000000034,20.392463252874733826
0.196000000000000035,19.932588003521992448
0.197000000000000036,19.475576130616712334
0.198000000000000037,19.021939359250609414
0.199000000000000038,18.572170751006865430
0.200000000000000039,18.126732397082040649
0.201000000000000040,17.686046030905785642
0.202000000000000041,17.250486401990620777
0.203000000000000042,16.820377180695604835
0.204000000000000042,16.395989115041537332
0.205000000000000043,15.977540132315311894
0.206000000000000044,15.565197066579994356
0.207000000000000045,15.159078695137258919
0.208000000000000046,14.759259779477201135
0.209000000000000047,14.365775826603918830
0.210000000000000048,13.978628312479150608
0.211000000000000049,13.597790138658421455
0.212000000000000050,13.223211124311452735
0.213000000000000050,12.854823367348108931
0.214000000000000051,12.492546339223199681
0.215000000000000052,12.136291607342233334
0.216000000000000053,11.785967106233947277
0.217000000000000054,11.441480903387788004
0.218000000000000055,11.102744427632794455
0.219000000000000056,10.769675147050536523
0.220000000000000057,10.442198699665819817
0.221000000000000058,10.120250493631036903
0.222000000000000058,9.803776804454011895
0.223000000000000059,9.492735405210122934
0.224000000000000060,9.187095771843040382
0.225000000000000061,8.886838909834199995
0.226000000000000062,8.591956850950870361
0.227000000000000063,8.302451869709546628
0.228000000000000064,8.018335468849262071
0.229000000000000065,7.739627181720256210
0.230000000000000066,7.466353237264672593
0.231000000000000066,7.198545130384848889
0.232000000000000067,6.936238137132898274
0.233000000000000068,6.679469810461297286
0.234000000000000069,6.428278488380735567
0.235000000000000070,6.182701842390062374
0.236000000000000071,5.942775490069292843
0.237000000000000072,5.708531691837901434
0.238000000000000073,5.479998148140998282
0.239000000000000073,5.257196909784595640
0.240000000000000074,5.040143410834306614
0.241000000000000075,4.828845630447654358
0.242000000000000076,4.623303387243788087
0.243000000000000077,4.423507767335612684
0.244000000000000078,4.229440684960256824
0.245000000000000079,4.041074572740068760
0.246000000000000080,3.858372196980943691
0.247000000000000081,3.681286592054256346
0.248000000000000081,3.509761106800246555
0.249000000000000082,3.343729555016153654
0.250000000000000111,3.183116461434389421
0.251000000000000112,3.027837394135758586
0.252000000000000113,2.877799374060002968
0.253000000000000114,2.732901352153166208
0.254000000000000115,2.593034744707364503
0.255000000000000115,2.458084017587268466
0.256000000000000116,2.327927310279962025
0.257000000000000117,2.202437091035009509
0.258000000000000118,2.081480834764237731
0.259000000000000119,1.964921715830843851
0.260000000000000120,1.852619308362555728
0.261000000000000121,1.744430287261670376
0.262000000000000122,1.640209123644704503
0.263000000000000123,1.539808769017202650
0.264000000000000123,1.443081323065926735
0.265000000000000124,1.349878680524398078
0.266000000000000125,1.260053153131799775
0.267000000000000126,1.173458063254622541
0.268000000000000127,1.089948306270254408
0.269000000000000128,1.009380879318823920
0.270000000000000129,0.931615374510702643
0.271000000000000130,0.856514435129992480
0.272000000000000131,0.783944173797848753
0.273000000000000131,0.713774551951924519
0.274000000000000132,0.645879720359593845
0.275000000000000133,0.580138320712317079
0.276000000000000134,0.516433748646945023
0.277000000000000135,0.454654378807597737
0.278000000000000136,0.394693752799242126
0.279000000000000137,0.336450731092895361
0.280000000000000138,0.279829610123212225
0.281000000000000139,0.224740205973446822
0.282000000000000139,0.171097906172061276
0.283000000000000140,0.118823691230771328
0.284000000000000141,0.067844127637399804
0.285000000000000142,0.018091334079876831
0.286000000000000143,-0.030497077278156360
0.287000000000000144,-0.077978082622789852
0.288000000000000145,-0.124403349558222187
0.289000000000000146,-0.169819359562936506
0.290000000000000147,-0.214267547994890478
0.291000000000000147,-0.257784459834193069
0.292000000000000148,-0.300401919389437166
0.293000000000000149,-0.342147212239955922
0.294000000000000150,-0.383043277740182264
0.295000000000000151,-0.423108910472504707
0.296000000000000152,-0.462358969100485795
0.297000000000000153,-0.500804591144286992
0.298000000000000154,-0.538453412273391274
0.299000000000000155,-0.575309788787642384
0.300000000000000155,-0.611375022035299809
0.301000000000000156,-0.646647583595601927
0.302000000000000157,-0.681123340132651189
0.303000000000000158,-0.714795776906470559
0.304000000000000159,-0.747656219005810807
0.305000000000000160,-0.779694049444561887
0.306000000000000161,-0.810896923339782694
0.307000000000000162,-0.841250977463536054
0.308000000000000163,-0.870741034532747760
0.309000000000000163,-0.899350801671158551
0.310000000000000164,-0.927063062544568717
0.311000000000000165,-0.953859862735004782
0.312000000000000166,-0.979722687981114726
0.313000000000000167,-1.004632634970627159
0.314000000000000168,-1.028570574426338258
0.315000000000000169,-1.051517306279580177
0.316000000000000170,-1.073453706774538885
0.317000000000000171,-1.094360867393040060
0.318000000000000171,-1.114220225532650543
0.319000000000000172,-1.133013686911122253
0.320000000000000173,-1.150723739707333548
0.321000000000000174,-1.167333560483128529
0.322000000000000175,-1.182827111961864075
0.323000000000000176,-1.197189232768049338
0.324000000000000177,-1.210405719258427215
0.325000000000000178,-1.222463399598141987
0.326000000000000179,-1.233350200256671636
0.327000000000000179,-1.243055205116529338
0.328000000000000180,-1.251568707404133507
0.329000000000000181,-1.258882254666414902
0.330000000000000182,-1.264988687028629100
0.331000000000000183,-1.269882168979315162
0.332000000000000184,-1.273558214936450828
0.333000000000000185,-1.276013708855785467
0.334000000000000186,-1.277246918147290078
0.335000000000000187,-1.277257502169427683
0.336000000000000187,-1.276046515573214801
0.337000000000000188,-1.273616406769005227
0.338000000000000189,-1.269971011788933568
0.339000000000000190,-1.265115543816676569
0.340000000000000191,-1.259056578654000891
0.341000000000000192,-1.251802036390647022
0.342000000000000193,-1.243361159540099958
0.343000000000000194,-1.233744487899408160
0.344000000000000195,-1.222963830385809914
0.345000000000000195,-1.211032234097412452
0.346000000000000196,-1.197963950838679681
0.347000000000000197,-1.183774401344924510
0.348000000000000198,-1.168480137432944321
0.349000000000000199,-1.152098802297474744
0.350000000000000200,-1.134649089165642000
0.351000000000000201,-1.116150698513621808
0.352000000000000202,-1.096624294041818048
0.353000000000000203,-1.076091457596728196
0.354000000000000203,-1.054574643219460039
0.355000000000000204,-1.032097130492642290
0.356000000000000205,-1.008682977349247833
0.357000000000000206,-0.984356972498673044
0.358000000000000207,-0.959144587617129951
0.359000000000000208,-0.933071929441524062
0.360000000000000209,-0.906165691897862779
0.361000000000000210,-0.878453108387460491
0.362000000000000210,-0.849961904346476560
0.363000000000000211,-0.820720250186782407
0.364000000000000212,-0.790756714718787057
0.365000000000000213,-0.760100219149616785
0.366000000000000214,-0.728779991743100375
0.367000000000000215,-0.696825523221176746
0.368000000000000216,-0.664266522979796270
0.369000000000000217,-0.631132876185997449
0.370000000000000218,-0.597454601816742814
0.371000000000000218,-0.563261811694109937
0.372000000000000219,-0.528584670565871328
0.373000000000000220,-0.493453357274916626
0.374000000000000221,-0.457898027055886725
0.375000000000000222,-0.421948774992246201
0.376000000000000223,-0.385635600662424194
0.377000000000000224,-0.348988373999012835
0.378000000000000225,-0.312036802380737388
0.379000000000000226,-0.274810398972849979
0.380000000000000226,-0.237338452327735455
0.381000000000000227,-0.199649997253811134
0.382000000000000228,-0.161773786957457644
0.383000000000000229,-0.123738266459425025
0.384000000000000230,-0.085571547284089958
0.385000000000000231,-0.047301383417238774
0.386000000000000232,-0.008955148525228713
0.387000000000000233,0.029440185573940653
0.388000000000000234,0.067858069199505974
0.389000000000000234,0.106272393870651349
0.390000000000000235,0.144657510158971742
0.391000000000000236,0.182988244348316037
0.392000000000000237,0.221239913921364245
0.393000000000000238,0.259388341893676211
0.394000000000000239,0.297409870017408484
0.395000000000000240,0.335281370878012963
0.396000000000000241,0.372980258908370665
0.397000000000000242,0.410484500345789205
0.398000000000000242,0.447772622158051248
0.399000000000000243,0.484823719965529309
0.400000000000000244,0.521617464987007784
0.401000000000000245,0.558134110037235676
0.402000000000000246,0.594354494604877104
0.403000000000000247,0.630260049039730097
0.404000000000000248,0.665832797878353699
0.405000000000000249,0.701055362337470456
0.406000000000000250,0.735910962004592273
0.407000000000000250,0.770383415755323653
0.408000000000000251,0.804457141926834374
0.409000000000000252,0.838117157776810062
0.410000000000000253,0.871349078257133369
0.411000000000000254,0.904139114131273458
0.412000000000000255,0.936474069464155456
0.413000000000000256,0.968341338512964556
0.414000000000000257,0.999728902047038459
0.415000000000000258,1.030625323124552351
0.416000000000000258,1.061019742353400686
0.417000000000000259,1.090901872663130323
0.418000000000000260,1.120261993614391605
0.419000000000000261,1.149090945271853625
0.420000000000000262,1.177380121665989154
0.421000000000000263,1.205121463868642051
0.422000000000000264,1.232307452706694839
0.423000000000000265,1.258931101137649833
0.424000000000000266,1.284985946310221117
0.425000000000000266,1.310466041332635667
0.426000000000000267,1.335365946770541878
0.427000000000000268,1.359680721895962563
0.428000000000000269,1.383405915708033840
0.429000000000000270,1.406537557745649147
0.430000000000000271,1.429072148711584278
0.431000000000000272,1.451006650926949693
0.432000000000000273,1.472338478634278136
0.433000000000000274,1.493065488166873900
0.434000000000000274,1.513185968001497406
0.435000000000000275,1.532698628710770894
0.436000000000000276,1.551602592831129890
0.437000000000000277,1.569897384661545159
0.438000000000000278,1.587582920007598819
0.439000000000000279,1.604659495884954268
0.440000000000000280,1.621127780195648738
0.441000000000000281,1.636988801390089732
0.442000000000000282,1.652243938127025746
0.443000000000000282,1.666894908943283848
0.444000000000000283,1.680943761944428072
0.445000000000000284,1.694392864527027642
0.446000000000000285,1.707244893142719322
0.447000000000000286,1.719502823113615575
0.448000000000000287,1.731169918508276284
0.449000000000000288,1.742249722086831598
0.450000000000000289,1.752746045323461344
0.451000000000000290,1.762662958513918854
0.452000000000000290,1.772004780975356297
0.453000000000000291,1.780776071345270939
0.454000000000000292,1.788981617985946126
0.455000000000000293,1.796626429500377542
0.456000000000000294,1.803715725365228284
0.457000000000000295,1.810254926686014398
0.458000000000000296,1.816249647079297036
0.459000000000000297,1.821705683686345001
0.460000000000000298,1.826629008322310899
0.461000000000000298,1.831025758764689204
0.462000000000000299,1.834902230184448202
0.463000000000000300,1.838264866722931101
0.464000000000000301,1.841120253217310987
0.465000000000000302,1.843475107077074071
0.466000000000000303,1.845336270313755467
0.467000000000000304,1.846710701725864823
0.468000000000000305,1.847605469240619414
0.469000000000000306,1.848027742413981711
0.470000000000000306,1.847984785090110993
0.471000000000000307,1.847483948221219752
0.472000000000000308,1.846532662848543227
0.473000000000000309,1.845138433244951859
0.474000000000000310,1.843308830219502870
0.475000000000000311,1.841051484584086406
0.476000000000000312,1.838374080782077868
0.477000000000000313,1.835284350678798360
0.478000000000000314,1.831790067513362485
0.479000000000000314,1.827899040011378817
0.480000000000000315,1.823619106657800915
0.481000000000000316,1.818958130129090689
0.482000000000000317,1.813923991883730213
0.483000000000000318,1.808524586909976861
0.484000000000000319,1.802767818629671170
0.485000000000000320,1.796661593956747849
0.486000000000000321,1.790213818509059251
0.487000000000000322,1.783432391971962350
0.488000000000000322,1.776325203612080461
0.489000000000000323,1.768900127939533551
0.490000000000000324,1.761165020516869406
0.491000000000000325,1.753127713912850494
0.492000000000000326,1.744796013799190693
0.493000000000000327,1.736177695188268144
0.494000000000000328,1.727280498809774967
0.495000000000000329,1.718112127624257468
0.496000000000000330,1.708680243471378146
0.497000000000000330,1.698992463850777623
0.498000000000000331,1.689056358833290972
0.499000000000000332,1.678879448100327965
0.500000000000000333,1.668469198109103768
0.501000000000000334,1.657833019381467210
0.502000000000000335,1.646978263913987606
0.503000000000000336,1.635912222706995989
0.504000000000000337,1.624642123410213301
0.505000000000000338,1.613175128082620535
0.506000000000000338,1.601518331064201162
0.507000000000000339,1.589678756957198846
0.508000000000000340,1.577663358714495034
0.509000000000000341,1.565479015832764942
0.510000000000000342,1.553132532648008102
0.511000000000000343,1.540630636731121994
0.512000000000000344,1.527979977381128673
0.513000000000000345,1.515187124213741354
0.514000000000000346,1.502258565842895965
0.515000000000000346,1.489200708652954397
0.516000000000000347,1.476019875659259295
0.517000000000000348,1.462722305454739580
0.518000000000000349,1.449314151240299609
0.519000000000000350,1.435801479936755998
0.520000000000000351,1.422190271376038151
0.521000000000000352,1.408486417569502658
0.522000000000000353,1.394695722051128906
0.523000000000000353,1.380823899293440515
0.524000000000000354,1.366876574194045180
0.525000000000000355,1.352859281630625521
0.526000000000000356,1.338777466082356149
0.527000000000000357,1.324636481315646375
0.528000000000000358,1.310441590132201295
0.529000000000000359,1.296197964177407957
0.530000000000000360,1.281910683807060192
0.531000000000000361,1.267584738010505196
0.532000000000000361,1.253225024388294973
0.533000000000000362,1.238836349182461216
0.534000000000000363,1.224423427357598015
0.535000000000000364,1.209990882730905160
0.536000000000000365,1.195543248149443460
0.537000000000000366,1.181084965712845936
0.538000000000000367,1.166620387039766227
0.539000000000000368,1.152153773576395590
0.540000000000000369,1.137689296945389339
0.541000000000000369,1.123231039333606462
0.542000000000000370,1.108782993917059478
0.543000000000000371,1.094349065321545966
0.544000000000000372,1.079933070117430782
0.545000000000000373,1.065538737347118792
0.546000000000000374,1.051169709083736192
0.547000000000000375,1.036829541019637313
0.548000000000000376,1.022521703083325129
0.549000000000000377,1.008249580083461217
0.550000000000000377,0.994016472378611793
0.551000000000000378,0.979825596571462398
0.552000000000000379,0.965680086226256229
0.553000000000000380,0.951582992608188016
0.554000000000000381,0.937537285443602486
0.555000000000000382,0.923545853699813235
0.556000000000000383,0.909611506383398938
0.557000000000000384,0.895736973355897748
0.558000000000000385,0.881924906165798661
0.559000000000000385,0.868177878895797228
0.560000000000000386,0.854498389024309191
0.561000000000000387,0.840888858300228748
0.562000000000000388,0.827351633629992866
0.563000000000000389,0.813888987976004286
0.564000000000000390,0.800503121265523809
0.565000000000000391,0.787196161309131726
0.566000000000000392,0.773970164727931120
0.567000000000000393,0.760827117888643323
0.568000000000000393,0.747768937845815662
0.569000000000000394,0.734797473290335068
0.570000000000000395,0.721914505503551296
0.571000000000000396,0.709121749316216077
0.572000000000000397,0.696420854071579720
0.573000000000000398,0.683813404591961493
0.574000000000000399,0.671300922148117096
0.575000000000000400,0.658884865430786171
0.576000000000000401,0.646566631523803226
0.577000000000000401,0.634347556878181118
0.578000000000000402,0.622228918286585997
0.579000000000000403,0.610211933857684796
0.580000000000000404,0.598297763989799281
0.581000000000000405,0.586487512343386475
0.582000000000000406,0.574782226811843655
0.583000000000000407,0.563182900490159843
0.584000000000000408,0.551690472640986806
0.585000000000000409,0.540305829657674042
0.586000000000000409,0.529029806023847082
0.587000000000000410,0.517863185269159199
0.588000000000000411,0.506806700920803710
0.589000000000000412,0.495861037450436026
0.590000000000000413,0.485026831216158694
0.591000000000000414,0.474304671399224997
0.592000000000000415,0.463695100935155924
0.593000000000000416,0.453198617438951623
0.594000000000000417,0.442815674124116931
0.595000000000000417,0.432546680715239273
0.596000000000000418,0.422392004353817296
0.597000000000000419,0.412351970497148446
0.598000000000000420,0.402426863809986046
0.599000000000000421,0.392616929048786978
0.600000000000000422,0.382922371938307693
0.601000000000000423,0.373343360040378047
0.602000000000000424,0.363880023614647885
0.603000000000000425,0.354532456471126800
0.604000000000000425,0.345300716814383180
0.605000000000000426,0.336184828079219178
0.606000000000000427,0.327184779757683453
0.607000000000000428,0.318300528217312362
0.608000000000000429,0.309531997510430090
0.609000000000000430,0.300879080174458580
0.610000000000000431,0.292341638023063788
0.611000000000000432,0.283919502928091094
0.612000000000000433,0.275612477592191318
0.613000000000000433,0.267420336312033602
0.614000000000000434,0.259342825732076787
0.615000000000000435,0.251379665588800427
0.616000000000000436,0.243530549445353406
0.617000000000000437,0.235795145416574481
0.618000000000000438,0.228173096884342341
0.619000000000000439,0.220664023203206938
