# SiO2-Quartz_PYRIMIDINE-AC
# h[nm],U(h)[kJ/mol]
0.149999999999999994,125.776881018211184937
0.150999999999999995,123.062623193931742094
0.151999999999999996,120.959158170006915611
0.152999999999999997,119.048090101615201775
0.153999999999999998,117.157810017300448635
0.154999999999999999,115.240052879469203617
0.156000000000000000,113.300420303745525530
0.157000000000000001,111.361667301677584874
0.158000000000000002,109.446211446711799908
0.159000000000000002,107.569390354687399736
0.160000000000000003,105.738302390306486700
0.161000000000000004,103.953192104636372051
0.162000000000000005,102.209681549880343709
0.163000000000000006,100.500970941631607047
0.164000000000000007,98.819619501703670039
0.165000000000000008,97.158791869393212437
0.166000000000000009,95.512998105716349073
0.167000000000000010,93.878418852078567625
0.168000000000000010,92.252925530004617372
0.169000000000000011,90.635899837835637527
0.170000000000000012,89.027940147450792097
0.171000000000000013,87.430522266710681834
0.172000000000000014,85.845662520601564438
0.173000000000000015,84.275614204688395148
0.174000000000000016,82.722614904020161930
0.175000000000000017,81.188691963431921295
0.176000000000000018,79.675526191456555125
0.177000000000000018,78.184369177316540345
0.178000000000000019,76.716006866492875815
0.179000000000000020,75.270760779627750026
0.180000000000000021,73.848518044409715344
0.181000000000000022,72.448781891066886374
0.182000000000000023,71.070735165891051111
0.183000000000000024,69.713310538887057533
0.184000000000000025,68.375262274079460667
0.185000000000000026,67.055235593968291141
0.186000000000000026,65.751830739487189703
0.187000000000000027,64.463659767575634874
0.188000000000000028,63.189394924226824912
0.189000000000000029,61.927808079715966016
0.190000000000000030,60.677801221993135528
0.191000000000000031,59.438428386913543022
0.192000000000000032,58.208909675997652755
0.193000000000000033,56.988638190743060363
0.194000000000000034,55.777180813890893774
0.195000000000000034,54.574273808140162600
0.196000000000000035,53.379814195714573088
0.197000000000000036,52.193847840219973477
0.198000000000000037,51.016555085838717787
0.199000000000000038,49.848234726734681033
0.200000000000000039,48.689286988568355241
0.201000000000000040,47.540196109719865092
0.202000000000000041,46.401513016359537289
0.203000000000000042,45.273838495945490479
0.204000000000000042,44.157807190188570701
0.205000000000000043,43.054072652378486907
0.206000000000000044,41.963293645969940826
0.207000000000000045,40.886121801780966223
0.208000000000000046,39.823190699992146335
0.209000000000000047,38.775106400034673015
0.210000000000000048,37.742439405913081885
0.211000000000000049,36.725718025908136610
0.212000000000000050,35.725423063258702427
0.213000000000000050,34.741983757621611062
0.214000000000000051,33.775774885141707671
0.215000000000000052,32.827114917150012730
0.216000000000000053,31.896265133199438679
0.217000000000000054,30.983429582749288045
0.218000000000000055,30.088755790780236765
0.219000000000000056,29.212336105478549086
0.220000000000000057,28.354209590440397903
0.221000000000000058,27.514364369251069320
0.222000000000000058,26.692740336460520467
0.223000000000000059,25.889232155646858757
0.224000000000000060,25.103692472199078622
0.225000000000000061,24.335935275480473194
0.226000000000000062,23.585739352002025981
0.227000000000000063,22.852851778024934504
0.228000000000000064,22.136991406531947746
0.229000000000000065,21.437852309690377695
0.230000000000000066,20.755107143730828767
0.231000000000000066,20.088410408551037989
0.232000000000000067,19.437401579309973698
0.233000000000000068,18.801708091795454436
0.234000000000000069,18.180948167434294760
0.235000000000000070,17.574733467476413296
0.236000000000000071,16.982671569141029266
0.237000000000000072,16.404368259381190143
0.238000000000000073,15.839429644427861277
0.239000000000000073,15.287464075440487576
0.240000000000000074,14.748083892439662890
0.241000000000000075,14.220906990260454350
0.242000000000000076,13.705558211563374726
0.243000000000000077,13.201670572999834263
0.244000000000000078,12.708886331476238141
0.245000000000000079,12.226857898115708778
0.246000000000000080,11.755248608003375566
0.247000000000000081,11.293733354137481584
0.248000000000000081,10.841999094216010491
0.249000000000000082,10.399745238982749385
0.250000000000000111,9.966683930853577067
0.251000000000000112,9.542540221459189453
0.252000000000000113,9.127052156584989362
0.253000000000000114,8.719970776778517063
0.254000000000000115,8.321060041634529725
0.255000000000000115,7.930096685472582507
0.256000000000000116,7.546870011796114497
0.257000000000000117,7.171181633574536640
0.258000000000000118,6.802845166027923440
0.259000000000000119,6.441685878220677175
0.260000000000000120,6.087540309393096649
0.261000000000000121,5.740255855581613886
0.262000000000000122,5.399690331701927803
0.263000000000000123,5.065711513899430862
0.264000000000000123,4.738196666608033958
0.265000000000000124,4.417032058406418216
0.266000000000000125,4.102112470419134738
0.267000000000000126,3.793340700681915756
0.268000000000000127,3.490627067575232445
0.269000000000000128,3.193888915130514761
0.270000000000000129,2.903050122727523608
0.271000000000000130,2.618040621430930859
0.272000000000000131,2.338795918959371001
0.273000000000000131,2.065256635039923516
0.274000000000000132,1.797368048676347696
0.275000000000000133,1.535079658648947465
0.276000000000000134,1.278344758368224365
0.277000000000000135,1.027120026023074839
0.278000000000000136,0.781365130795539264
0.279000000000000137,0.541042355759299598
0.280000000000000138,0.306116237936592317
0.281000000000000139,0.076553225857168256
0.282000000000000139,-0.147678645155911059
0.283000000000000140,-0.366610059857611081
0.284000000000000141,-0.580270712091229712
0.285000000000000142,-0.788689576008225535
0.286000000000000143,-0.991895159647404823
0.287000000000000144,-1.189915741093787949
0.288000000000000145,-1.382779587500942764
0.289000000000000146,-1.570515157314772425
0.290000000000000147,-1.753151286086039207
0.291000000000000147,-1.930717356299705312
0.292000000000000148,-2.103243451685632426
0.293000000000000149,-2.270760496504585113
0.294000000000000150,-2.433300380328874635
0.295000000000000151,-2.590896068856920031
0.296000000000000152,-2.743581701316879506
0.297000000000000153,-2.891392675026231540
0.298000000000000154,-3.034365717682466546
0.299000000000000155,-3.172538947964766098
0.300000000000000155,-3.305951925028497662
0.301000000000000156,-3.434645687473290909
0.302000000000000157,-3.558662782362426391
0.303000000000000158,-3.678047284865418654
0.304000000000000159,-3.792844809088600222
0.305000000000000160,-3.903102510648901902
0.306000000000000161,-4.008869081535777035
0.307000000000000162,-4.110194737793942288
0.308000000000000163,-4.207131200546486482
0.309000000000000163,-4.299731670863868871
0.310000000000000164,-4.388050798969334032
0.311000000000000165,-4.472144648255587995
0.312000000000000166,-4.552070654571537034
0.313000000000000167,-4.627887581221168389
0.314000000000000168,-4.699655470099743937
0.315000000000000169,-4.767435589375327964
0.316000000000000170,-4.831290378106504413
0.317000000000000171,-4.891283388169535229
0.318000000000000171,-4.947479223851118491
0.319000000000000172,-4.999943479445671635
0.320000000000000173,-5.048742675178854888
0.321000000000000174,-5.093944191762219909
0.322000000000000175,-5.135616203867384044
0.323000000000000176,-5.173827612791588315
0.324000000000000177,-5.208647978570672521
0.325000000000000178,-5.240147451779630039
0.326000000000000179,-5.268396705246024325
0.327000000000000179,-5.293466865886253814
0.328000000000000180,-5.315429446860493456
0.329000000000000181,-5.334356280228275793
0.330000000000000182,-5.350319450272714050
0.331000000000000183,-5.363391227648905968
0.332000000000000184,-5.373644004498965288
0.333000000000000185,-5.381150230664358602
0.334000000000000186,-5.385982351114452449
0.335000000000000187,-5.388212744699111489
0.336000000000000187,-5.387913664322558915
0.337000000000000188,-5.385157178625332719
0.338000000000000189,-5.380015115251806535
0.339000000000000190,-5.372559005771252671
0.340000000000000191,-5.362860032311617786
0.341000000000000192,-5.350988975957112537
0.342000000000000193,-5.337016166952524898
0.343000000000000194,-5.321011436750019641
0.344000000000000195,-5.303044071926735548
0.345000000000000195,-5.283182769995459438
0.346000000000000196,-5.261495597123824197
0.347000000000000197,-5.238049947772061010
0.348000000000000198,-5.212912506253770673
0.349000000000000199,-5.186149210218937711
0.350000000000000200,-5.157825216053961270
0.351000000000000201,-5.128004866188770272
0.352000000000000202,-5.096751658297181464
0.353000000000000203,-5.064128216372925095
0.354000000000000203,-5.030196263660195122
0.355000000000000204,-4.995016597414376314
0.356000000000000205,-4.958649065465876582
0.357000000000000206,-4.921152544557251041
0.358000000000000207,-4.882584920421278341
0.359000000000000208,-4.843003069565786411
0.360000000000000209,-4.802462842728908221
0.361000000000000210,-4.761019049966776606
0.362000000000000210,-4.718725447334206180
0.363000000000000211,-4.675634725117579826
0.364000000000000212,-4.631798497578070162
0.365000000000000213,-4.587267294162321818
0.366000000000000214,-4.542090552136999193
0.367000000000000215,-4.496316610602895558
0.368000000000000216,-4.449992705843955676
0.369000000000000217,-4.403164967966004539
0.370000000000000218,-4.355878418780003258
0.371000000000000218,-4.308176970884250778
0.372000000000000219,-4.260103427900266304
0.373000000000000220,-4.211699485816955857
0.374000000000000221,-4.163005735398035867
0.375000000000000222,-4.114061665607729346
0.376000000000000223,-4.064905668010543316
0.377000000000000224,-4.015575042100906877
0.378000000000000225,-3.966106001519293933
0.379000000000000226,-3.916533681111860066
0.380000000000000226,-3.866892144791428620
0.381000000000000227,-3.817214394158034541
0.382000000000000228,-3.767532377838358482
0.383000000000000229,-3.717877001503867351
0.384000000000000230,-3.668278138528288768
0.385000000000000231,-3.618764641246191793
0.386000000000000232,-3.569364352774840654
0.387000000000000233,-3.520104119362853279
0.388000000000000234,-3.471009803229688551
0.389000000000000234,-3.422106295861316649
0.390000000000000235,-3.373417531727992635
0.391000000000000236,-3.324966502391338619
0.392000000000000237,-3.276775270968615761
0.393000000000000238,-3.228864986923306812
0.394000000000000239,-3.181255901151843979
0.395000000000000240,-3.133967381337507074
0.396000000000000241,-3.087017927543368678
0.397000000000000242,-3.040425188017093827
0.398000000000000242,-2.994205975181560841
0.399000000000000243,-2.948376281785983544
0.400000000000000244,-2.902951297193259617
0.401000000000000245,-2.857945423780377858
0.402000000000000246,-2.813372293429293514
0.403000000000000247,-2.769244784086901667
0.404000000000000248,-2.725575036373505178
0.405000000000000249,-2.682374470220104890
0.406000000000000250,-2.639653801515621456
0.407000000000000250,-2.597423058746174185
0.408000000000000251,-2.555691599609207110
0.409000000000000252,-2.514468127586229507
0.410000000000000253,-2.473760708458610402
0.411000000000000254,-2.433576786751762366
0.412000000000000255,-2.393923202093712010
0.413000000000000256,-2.354806205474953451
0.414000000000000257,-2.316231475396972606
0.415000000000000258,-2.278204133897856032
0.416000000000000258,-2.240728762443759958
0.417000000000000259,-2.203809417675957505
0.418000000000000260,-2.167449647003665714
0.419000000000000261,-2.131652504033548112
0.420000000000000262,-2.096420563827396943
0.421000000000000263,-2.061755937980132902
0.422000000000000264,-2.027660289510707425
0.423000000000000265,-1.994134847559170920
0.424000000000000266,-1.961180421883754743
0.425000000000000266,-1.928797417152065652
0.426000000000000267,-1.896985847021338545
0.427000000000000268,-1.865745348002904480
0.428000000000000269,-1.835075193106619817
0.429000000000000270,-1.804974305261461520
0.430000000000000271,-1.775441270508786973
0.431000000000000272,-1.746474350965358413
0.432000000000000273,-1.718071497553454563
0.433000000000000274,-1.690230362495889427
0.434000000000000274,-1.662948311574019566
0.435000000000000275,-1.636222436147259929
0.436000000000000276,-1.610049564932898747
0.437000000000000277,-1.584426275545303797
0.438000000000000278,-1.559348905793970896
0.439000000000000279,-1.534813564740125091
0.440000000000000280,-1.510816143511799492
0.441000000000000281,-1.487352325877659309
0.442000000000000282,-1.464417598580078472
0.443000000000000282,-1.442007261428073450
0.444000000000000283,-1.420116437151152100
0.445000000000000284,-1.398740081015120484
0.446000000000000285,-1.377872990201150172
0.447000000000000286,-1.357509812949774686
0.448000000000000287,-1.337645057471281929
0.449000000000000288,-1.318273100624546501
0.450000000000000289,-1.299388196366165760
0.451000000000000290,-1.280984483972103849
0.452000000000000290,-1.263055996034123662
0.453000000000000291,-1.245596666233348637
0.454000000000000292,-1.228600336893533873
0.455000000000000293,-1.212060766316607197
0.456000000000000294,-1.195971635903224417
0.457000000000000295,-1.180326557061148085
0.458000000000000296,-1.165119077904294809
0.459000000000000297,-1.150342689745466052
0.460000000000000298,-1.135990833385740917
0.461000000000000298,-1.122056905203660859
0.462000000000000299,-1.108534263047320056
0.463000000000000300,-1.095416231932551332
0.464000000000000301,-1.082696109550470576
0.465000000000000302,-1.070367171587629285
0.466000000000000303,-1.058422676862064149
0.467000000000000304,-1.046855872278592781
0.468000000000000305,-1.035659997606706684
0.469000000000000306,-1.024828290084388138
0.470000000000000306,-1.014353988851304678
0.471000000000000307,-1.004230339214663648
0.472000000000000308,-0.994450596751214833
0.473000000000000309,-0.985008031248724492
0.474000000000000310,-0.975895930490333186
0.475000000000000311,-0.967107603885162148
0.476000000000000312,-0.958636385948588243
0.477000000000000313,-0.950475639635444125
0.478000000000000314,-0.942618759529570527
0.479000000000000314,-0.935059174893032030
0.480000000000000315,-0.927790352578224620
0.481000000000000316,-0.920805799806267311
0.482000000000000317,-0.914099066814808681
0.483000000000000318,-0.907663749378563645
0.484000000000000319,-0.901493491205711983
0.485000000000000320,-0.895581986213369041
0.486000000000000321,-0.889922980685217579
0.487000000000000322,-0.884510275314424277
0.488000000000000322,-0.879337727134848257
0.489000000000000323,-0.874399251343649708
0.490000000000000324,-0.869688823018187840
0.491000000000000325,-0.865200478730210776
0.492000000000000326,-0.860928318060197539
0.493000000000000327,-0.856866505014750479
0.494000000000000328,-0.853009269349821020
0.495000000000000329,-0.849350907802567945
0.496000000000000330,-0.845885785234545495
0.497000000000000330,-0.842608335688970533
0.498000000000000331,-0.839513063364603740
0.499000000000000332,-0.836594543508955235
0.500000000000000333,-0.833847423233308960
0.501000000000000334,-0.831266422252034287
0.502000000000000335,-0.828846333548729497
0.503000000000000336,-0.826582023971534019
0.504000000000000337,-0.824468434760019186
0.505000000000000338,-0.822500582005951109
0.506000000000000338,-0.820673557050224267
0.507000000000000339,-0.818982526818169854
0.508000000000000340,-0.817422734095420767
0.509000000000000341,-0.815989497746514525
0.510000000000000342,-0.814678212878243491
0.511000000000000343,-0.813484350949876700
0.512000000000000344,-0.812403459832194308
0.513000000000000345,-0.811431163817314394
0.514000000000000346,-0.810563163581249357
0.515000000000000346,-0.809795236100983473
0.516000000000000347,-0.809123234527958757
0.517000000000000348,-0.808543088019750611
0.518000000000000349,-0.808050801531599583
0.519000000000000350,-0.807642455569571593
0.520000000000000351,-0.807314205906948024
0.521000000000000352,-0.807062283265487457
0.522000000000000353,-0.806882992963090961
0.523000000000000353,-0.806772714529428336
0.524000000000000354,-0.806727901291012905
0.525000000000000355,-0.806745079927154274
0.526000000000000356,-0.806820849998200806
0.527000000000000357,-0.806951883447482587
0.528000000000000358,-0.807134924078217963
0.529000000000000359,-0.807366787006757569
0.530000000000000360,-0.807644358093353887
0.531000000000000361,-0.807964593351746196
0.532000000000000361,-0.808324518338692455
0.533000000000000362,-0.808721227524650366
0.534000000000000363,-0.809151883646686665
0.535000000000000364,-0.809613717044737391
0.536000000000000365,-0.810104024982238768
0.537000000000000366,-0.810620170952187857
0.538000000000000367,-0.811159583969563558
0.539000000000000368,-0.811719757851164792
0.540000000000000369,-0.812298250483669770
0.541000000000000369,-0.812892683080928991
0.542000000000000370,-0.813500739431285758
0.543000000000000371,-0.814120165135791773
0.544000000000000372,-0.814748766838144123
0.545000000000000373,-0.815384411447100832
0.546000000000000374,-0.816025025352155153
0.547000000000000375,-0.816668593633176343
0.548000000000000376,-0.817313159264771882
0.549000000000000377,-0.817956822315991872
0.550000000000000377,-0.818597739146073700
0.551000000000000378,-0.819234121596846832
0.552000000000000379,-0.819864236182413109
0.553000000000000380,-0.820486403276682985
0.554000000000000381,-0.821098996299326478
0.555000000000000382,-0.821700440900721807
0.556000000000000383,-0.822289214146344150
0.557000000000000384,-0.822863843701201803
0.558000000000000385,-0.823422907014694005
0.559000000000000385,-0.823965030506440099
0.560000000000000386,-0.824488888753461380
0.561000000000000387,-0.824993203679180942
0.562000000000000388,-0.825476743744609776
0.563000000000000389,-0.825938323142156428
0.564000000000000390,-0.826376800992378313
0.565000000000000391,-0.826791080544063917
0.566000000000000392,-0.827180108377973511
0.567000000000000393,-0.827542873614571683
0.568000000000000393,-0.827878407126027782
0.569000000000000394,-0.828185780752819012
0.570000000000000395,-0.828464106525186539
0.571000000000000396,-0.828712535889700619
0.572000000000000397,-0.828930258941237286
0.573000000000000398,-0.829116503660518034
0.574000000000000399,-0.829270535157533240
0.575000000000000400,-0.829391654920971333
0.576000000000000401,-0.829479200073915179
0.577000000000000401,-0.829532542635981862
0.578000000000000402,-0.829551088792062408
0.579000000000000403,-0.829534278167824768
0.580000000000000404,-0.829481583112189669
0.581000000000000405,-0.829392507986843164
0.582000000000000406,-0.829266588462989729
0.583000000000000407,-0.829103390825426834
0.584000000000000408,-0.828902511284086430
0.585000000000000409,-0.828663575293121846
0.586000000000000409,-0.828386236877668991
0.587000000000000410,-0.828070177968355692
0.588000000000000411,-0.827715107743622780
0.589000000000000412,-0.827320761979987163
0.590000000000000413,-0.826886902410236324
0.591000000000000414,-0.826413316089677275
0.592000000000000415,-0.825899814770474250
0.593000000000000416,-0.825346234284091040
0.594000000000000417,-0.824752433931913442
0.595000000000000417,-0.824118295884092467
0.596000000000000418,-0.823443724586569337
0.597000000000000419,-0.822728646176396849
0.598000000000000420,-0.821973007905284936
0.599000000000000421,-0.821176777571445471
0.600000000000000422,-0.820339942959701141
0.601000000000000423,-0.819462511289877682
0.602000000000000424,-0.818544508673461735
0.603000000000000425,-0.817585979578545285
0.604000000000000425,-0.816586986302987428
0.605000000000000426,-0.815547608455823969
0.606000000000000427,-0.814467942446916893
0.607000000000000428,-0.813348100984706113
0.608000000000000429,-0.812188212582240610
0.609000000000000430,-0.810988421071194177
0.610000000000000431,-0.809748885124088047
0.611000000000000432,-0.808469777784494914
0.612000000000000433,-0.807151286005246882
0.613000000000000433,-0.805793610194653231
