# SiO2-Quartz_SULFAMIDHYD-AC
# h[nm],U(h)[kJ/mol]
0.149999999999999994,103.535045030959096835
0.150999999999999995,101.011039169564952545
0.151999999999999996,99.434646726710255393
0.152999999999999997,98.072465469453632636
0.153999999999999998,96.655535330802095473
0.154999999999999999,95.133340423590937007
0.156000000000000000,93.540866306643167150
0.157000000000000001,91.932262871796268655
0.158000000000000002,90.352132308053938914
0.159000000000000002,88.826803409798316125
0.160000000000000003,87.365202291861947970
0.161000000000000004,85.963472754247803209
0.162000000000000005,84.610276517347386971
0.163000000000000006,83.291345060792608024
0.164000000000000007,81.992780131794731346
0.165000000000000008,80.703084558301128482
0.166000000000000009,79.414127107008113171
0.167000000000000010,78.121318115150671701
0.168000000000000010,76.823266892946222129
0.169000000000000011,75.521149811523329731
0.170000000000000012,74.217963953262696464
0.171000000000000013,72.917788317142978372
0.172000000000000014,71.625129067666307492
0.173000000000000015,70.344389387574935313
0.174000000000000016,69.079478116686772182
0.175000000000000017,67.833553406911633488
0.176000000000000018,66.608886541638497647
0.177000000000000018,65.406825249812698075
0.178000000000000019,64.227833830390494541
0.179000000000000020,63.071587962027237495
0.180000000000000021,61.937104228700569308
0.181000000000000022,60.822887405378970982
0.182000000000000023,59.727081886681013145
0.183000000000000024,58.647616943619127028
0.184000000000000025,57.582338530381534270
0.185000000000000026,56.529123006689943054
0.186000000000000026,55.485970336280082904
0.187000000000000027,54.451076063234118863
0.188000000000000028,53.422882682341366944
0.189000000000000029,52.400111953465092540
0.190000000000000030,51.381780318409212782
0.191000000000000031,50.367199919858208546
0.192000000000000032,49.355967851444020766
0.193000000000000033,48.347946236927619168
0.194000000000000034,47.343235589660707774
0.195000000000000034,46.342143678832542264
0.196000000000000035,45.345151857594245826
0.197000000000000036,44.352880514649818622
0.198000000000000037,43.366055014190891370
0.199000000000000038,42.385473202994170094
0.200000000000000039,41.411975297722001699
0.201000000000000040,40.446416726118400220
0.202000000000000041,39.489644286255710881
0.203000000000000042,38.542475809495556405
0.204000000000000042,37.605683365011230990
0.205000000000000043,36.679979925064202462
0.206000000000000044,35.766009318443295228
0.207000000000000045,34.864339231807356612
0.208000000000000046,33.975456972128121436
0.209000000000000047,33.099767674961952935
0.210000000000000048,32.237594629921154876
0.211000000000000049,31.389181393666852671
0.212000000000000050,30.554695369435030727
0.213000000000000050,29.734232548235404181
0.214000000000000051,28.927823128400440567
0.215000000000000052,28.135437755371931701
0.216000000000000053,27.356994151024316864
0.217000000000000054,26.592363930224969693
0.218000000000000055,25.841379430743689483
0.219000000000000056,25.103840410280021445
0.220000000000000057,24.379520490692023316
0.221000000000000058,23.668173254069252209
0.222000000000000058,22.969537917801307714
0.223000000000000059,22.283344536090872623
0.224000000000000060,21.609318693361569075
0.225000000000000061,20.947185670718429407
0.226000000000000062,20.296674080088070724
0.227000000000000063,19.657518971996179147
0.228000000000000064,19.029464432268429874
0.229000000000000065,18.412265690417186192
0.230000000000000066,17.805690768275525215
0.231000000000000066,17.209521701729308063
0.232000000000000067,16.623555371360108524
0.233000000000000068,16.047603979611800185
0.234000000000000069,15.481495212901119629
0.235000000000000070,14.925072127059802796
0.236000000000000071,14.378192793768965529
0.237000000000000072,13.840729744355138919
0.238000000000000073,13.312569245583759425
0.239000000000000073,12.793610440014919760
0.240000000000000074,12.283764381171106805
0.241000000000000075,11.782952991292205525
0.242000000000000076,11.291107966886830383
0.243000000000000077,10.808169654692267869
0.244000000000000078,10.334085918077636990
0.245000000000000079,9.868811011406743106
0.246000000000000080,9.412304477451991502
0.247000000000000081,8.964530080642482801
0.248000000000000081,8.525454786759073755
0.249000000000000082,8.095047797668851075
0.250000000000000111,7.673279647829865269
0.251000000000000112,7.260121367599467135
0.252000000000000113,6.855543716845528657
0.253000000000000114,6.459516490990563575
0.254000000000000115,6.072007900405862912
0.255000000000000115,5.692984023014545869
0.256000000000000116,5.322408329048537112
0.257000000000000117,4.960241276127761445
0.258000000000000118,4.606439972181585851
0.259000000000000119,4.260957903201779473
0.260000000000000120,3.923744722393974538
0.261000000000000121,3.594746096971539462
0.262000000000000122,3.273903608600472914
0.263000000000000123,2.961154703348777506
0.264000000000000123,2.656432686908017260
0.265000000000000124,2.359666760830856358
0.266000000000000125,2.070782095557345936
0.267000000000000126,1.789699936077369546
0.268000000000000127,1.516337736189011132
0.269000000000000128,1.250609317457506808
0.270000000000000129,0.992425049149285199
0.271000000000000130,0.741692045605616856
0.272000000000000131,0.498314377726290558
0.273000000000000131,0.262193295449709762
0.274000000000000132,0.033227458339294635
0.275000000000000133,-0.188686828387267275
0.276000000000000134,-0.403655374822055601
0.277000000000000135,-0.611785866534743761
0.278000000000000136,-0.813187625934031599
0.279000000000000137,-1.007971376597111002
0.280000000000000138,-1.196249012133909995
0.281000000000000139,-1.378133370954295556
0.282000000000000139,-1.553738018116906261
0.283000000000000140,-1.723177035259729761
0.284000000000000141,-1.886564819444408458
0.285000000000000142,-2.044015891589729961
0.286000000000000143,-2.195644715024350546
0.287000000000000144,-2.341565524554648725
0.288000000000000145,-2.481892166321389759
0.289000000000000146,-2.616737948606575603
0.290000000000000147,-2.746215503651719736
0.291000000000000147,-2.870436660457739375
0.292000000000000148,-2.989512328456823020
0.293000000000000149,-3.103552391875211480
0.294000000000000150,-3.212665614544440551
0.295000000000000151,-3.316959554865100301
0.296000000000000152,-3.416540490581950085
0.297000000000000153,-3.511513352991434633
0.298000000000000154,-3.601981670171807259
0.299000000000000155,-3.688047518801512492
0.300000000000000155,-3.769811484113023248
0.301000000000000156,-3.847372627515871724
0.302000000000000157,-3.920828461414522792
0.303000000000000158,-3.990274930742410131
0.304000000000000159,-4.055806400733753314
0.305000000000000160,-4.117515650457739262
0.306000000000000161,-4.175493871646620114
0.307000000000000162,-4.229830672358133370
0.308000000000000163,-4.280614085024227577
0.309000000000000163,-4.327930578451630872
0.310000000000000164,-4.371865073354928022
0.311000000000000165,-4.412500961019224732
0.312000000000000166,-4.449920124707326785
0.313000000000000167,-4.484202963444665180
0.314000000000000168,-4.515428417834392860
0.315000000000000169,-4.543673997574622092
0.316000000000000170,-4.569015810369724484
0.317000000000000171,-4.591528591947222182
0.318000000000000171,-4.611285736911886701
0.319000000000000172,-4.628359330188223097
0.320000000000000173,-4.642820178821841282
0.321000000000000174,-4.654737843929089181
0.322000000000000175,-4.664180672602968869
0.323000000000000176,-4.671215829601029768
0.324000000000000177,-4.675909328658368835
0.325000000000000178,-4.678326063285293657
0.326000000000000179,-4.678529836925409136
0.327000000000000179,-4.676583392364709546
0.328000000000000180,-4.672548440296798944
0.329000000000000181,-4.666485686963241619
0.330000000000000182,-4.658454860800330444
0.331000000000000183,-4.648514738036316984
0.332000000000000184,-4.636723167193859574
0.333000000000000185,-4.623137092463315945
0.334000000000000186,-4.607812575922153542
0.335000000000000187,-4.590804818584762970
0.336000000000000187,-4.572168180275351546
0.337000000000000188,-4.551956198323982683
0.338000000000000189,-4.530221605093034398
0.339000000000000190,-4.507016344347411163
0.340000000000000191,-4.482391586487448620
0.341000000000000192,-4.456397742668706030
0.342000000000000193,-4.429084477837024636
0.343000000000000194,-4.400500722711473855
0.344000000000000195,-4.370694684750747960
0.345000000000000195,-4.339713858142120628
0.346000000000000196,-4.307605032853883742
0.347000000000000197,-4.274414302794704135
0.348000000000000198,-4.240187073124761064
0.349000000000000199,-4.204968066764772416
0.350000000000000200,-4.168801330150095907
0.351000000000000201,-4.131730238277473433
0.352000000000000202,-4.093797499092483250
0.353000000000000203,-4.055045157265706024
0.354000000000000203,-4.015514597405448249
0.355000000000000204,-3.975246546754326538
0.356000000000000205,-3.934281077416584171
0.357000000000000206,-3.892657608162065852
0.358000000000000207,-3.850414905851724079
0.359000000000000208,-3.807591086528655744
0.360000000000000209,-3.764223616217223789
0.361000000000000210,-3.720349311471542020
0.362000000000000210,-3.676004339713179636
0.363000000000000211,-3.631224219396368191
0.364000000000000212,-3.586043820037519758
0.365000000000000213,-3.540497362144070959
0.366000000000000214,-3.494618417076154060
0.367000000000000215,-3.448439906872764915
0.368000000000000216,-3.401994104072494363
0.369000000000000217,-3.355312631557018754
0.370000000000000218,-3.308426462443995408
0.371000000000000218,-3.261365920054019707
0.372000000000000219,-3.214160677974899905
0.373000000000000220,-3.166839760244556601
0.374000000000000221,-3.119431541672329722
0.375000000000000222,-3.071963748316712817
0.376000000000000223,-3.024463458136126270
0.377000000000000224,-2.976957101827548247
0.378000000000000225,-2.929470463866461483
0.379000000000000226,-2.882028683760001986
0.380000000000000226,-2.834656257523894940
0.381000000000000227,-2.787377039392139544
0.382000000000000228,-2.740214243767383984
0.383000000000000229,-2.693190447418435163
0.384000000000000230,-2.646327591930117684
0.385000000000000231,-2.599646986409779092
0.386000000000000232,-2.553169310453269780
0.387000000000000233,-2.506914617372483445
0.388000000000000234,-2.460902337685291208
0.389000000000000234,-2.415151282868007065
0.390000000000000235,-2.369679649369349050
0.391000000000000236,-2.324505022884323147
0.392000000000000237,-2.279644382885353870
0.393000000000000238,-2.235114107407585315
0.394000000000000239,-2.190929978084262153
0.395000000000000240,-2.147107185427766574
0.396000000000000241,-2.103660334351094452
0.397000000000000242,-2.060603449924088615
0.398000000000000242,-2.017949983358322541
0.399000000000000243,-1.975712818213965605
0.400000000000000244,-1.933904276821583057
0.401000000000000245,-1.892536126911637862
0.402000000000000246,-1.851619588443818243
0.403000000000000247,-1.811165340628326792
0.404000000000000248,-1.771183529130865297
0.405000000000000249,-1.731683773452912023
0.406000000000000250,-1.692675174478613043
0.407000000000000250,-1.654166322179617454
0.408000000000000251,-1.616165303468899639
0.409000000000000252,-1.578679710194682784
0.410000000000000253,-1.541716647265392703
0.411000000000000254,-1.505282740896631610
0.412000000000000255,-1.469384146971079996
0.413000000000000256,-1.434026559502336040
0.414000000000000257,-1.399215219193596926
0.415000000000000258,-1.364954922082349142
0.416000000000000258,-1.331250028262064733
0.417000000000000259,-1.298104470672222899
0.418000000000000260,-1.265521763947915268
0.419000000000000261,-1.233505013320493005
0.420000000000000262,-1.202056923560851365
0.421000000000000263,-1.171179807957076324
0.422000000000000264,-1.140875597318331547
0.423000000000000265,-1.111145848997007191
0.424000000000000266,-1.081991755921509313
0.425000000000000266,-1.053414155631909876
0.426000000000000267,-1.025413539311262223
0.427000000000000268,-0.997990060805295287
0.428000000000000269,-0.971143545623551541
0.429000000000000270,-0.944873499915243165
0.430000000000000271,-0.919179119413205847
0.431000000000000272,-0.894059298339717423
0.432000000000000273,-0.869512638268012283
0.433000000000000274,-0.845537456933669107
0.434000000000000274,-0.822131796990175800
0.435000000000000275,-0.799293434703284067
0.436000000000000276,-0.777019888578948215
0.437000000000000277,-0.755308427919854530
0.438000000000000278,-0.734156081305831543
0.439000000000000279,-0.713559644993611908
0.440000000000000280,-0.693515691231628262
0.441000000000000281,-0.674020576485779066
0.442000000000000282,-0.655070449572355384
0.443000000000000282,-0.636661259694372372
0.444000000000000283,-0.618788764378027656
0.445000000000000284,-0.601448537305957265
0.446000000000000285,-0.584635976044286521
0.447000000000000286,-0.568346309660776150
0.448000000000000287,-0.552574606231292731
0.449000000000000288,-0.537315780232351825
0.450000000000000289,-0.522564599817385678
0.451000000000000290,-0.508315693974772387
0.452000000000000290,-0.494563559565768585
0.453000000000000291,-0.481302568240627671
0.454000000000000292,-0.468526973231463750
0.455000000000000293,-0.456230916020470834
0.456000000000000294,-0.444408432882362536
0.457000000000000295,-0.433053461300017872
0.458000000000000296,-0.422159846252456838
0.459000000000000297,-0.411721346374453290
0.460000000000000298,-0.401731639987215172
0.461000000000000298,-0.392184330999706177
0.462000000000000299,-0.383072954680332978
0.463000000000000300,-0.374390983298779623
0.464000000000000301,-0.366131831638036365
0.465000000000000302,-0.358288862376641037
0.466000000000000303,-0.350855391341341305
0.467000000000000304,-0.343824692630488926
0.468000000000000305,-0.337190003608599742
0.469000000000000306,-0.330944529772534135
0.470000000000000306,-0.325081449489986518
0.471000000000000307,-0.319593918610894256
0.472000000000000308,-0.314475074952632105
0.473000000000000309,-0.309718042659812787
0.474000000000000310,-0.305315936439657876
0.475000000000000311,-0.301261865673965512
0.476000000000000312,-0.297548938408777608
0.477000000000000313,-0.294170265222879534
0.478000000000000314,-0.291118962976366746
0.479000000000000314,-0.288388158440597231
0.480000000000000315,-0.285970991810787500
0.481000000000000316,-0.283860620102736494
0.482000000000000317,-0.282050220435021370
0.483000000000000318,-0.280532993198221670
0.484000000000000319,-0.279302165112638057
0.485000000000000320,-0.278350992176107648
0.486000000000000321,-0.277672762503486215
0.487000000000000322,-0.277260799059437901
0.488000000000000322,-0.277108462286157653
0.489000000000000323,-0.277209152627770627
0.490000000000000324,-0.277556312953054440
0.491000000000000325,-0.278143430878239895
0.492000000000000326,-0.278964040991619311
0.493000000000000327,-0.280011726981747588
0.494000000000000328,-0.281280123670988758
0.495000000000000329,-0.282762918956196097
0.496000000000000330,-0.284453855658324983
0.497000000000000330,-0.286346733282792865
0.498000000000000331,-0.288435409692348266
0.499000000000000332,-0.290713802694314349
0.500000000000000333,-0.293175891543991429
0.501000000000000334,-0.295815718366004177
0.502000000000000335,-0.298627389495449369
0.503000000000000336,-0.301605076740610656
0.504000000000000337,-0.304743018569057667
0.505000000000000338,-0.308035521218906427
0.506000000000000338,-0.311476959737047698
0.507000000000000339,-0.315061778946085669
0.508000000000000340,-0.318784494341769198
0.509000000000000341,-0.322639692922685462
0.510000000000000342,-0.326622033953902879
0.511000000000000343,-0.330726249666340677
0.512000000000000344,-0.334947145893538134
0.513000000000000345,-0.339279602647531320
0.514000000000000346,-0.343718574635535623
0.515000000000000346,-0.348259091719034686
0.516000000000000347,-0.352896259316970606
0.517000000000000348,-0.357625258754654118
0.518000000000000349,-0.362441347559952720
0.519000000000000350,-0.367339859708381788
0.520000000000000351,-0.372316205818649881
0.521000000000000352,-0.377365873300188948
0.522000000000000353,-0.382484426454187176
0.523000000000000353,-0.387667506529631611
0.524000000000000354,-0.392910831735823030
0.525000000000000355,-0.398210197212833350
0.526000000000000356,-0.403561474961280697
0.527000000000000357,-0.408960613732909650
0.528000000000000358,-0.414403638883271419
0.529000000000000359,-0.419886652187925979
0.530000000000000360,-0.425405831623445418
0.531000000000000361,-0.430957431114574241
0.532000000000000361,-0.436537780248796192
0.533000000000000362,-0.442143283959588018
0.534000000000000363,-0.447770422179574523
0.535000000000000364,-0.453415749464822215
0.536000000000000365,-0.459075894591432665
0.537000000000000366,-0.464747560125618631
0.538000000000000367,-0.470427521968369788
0.539000000000000368,-0.476112628875882293
0.540000000000000369,-0.481799801956751872
0.541000000000000369,-0.487486034147092906
0.542000000000000370,-0.493168389664539575
0.543000000000000371,-0.498844003442207584
0.544000000000000372,-0.504510080543580597
0.545000000000000373,-0.510163895559297975
0.546000000000000374,-0.515802791986791020
0.547000000000000375,-0.521424181593691194
0.548000000000000376,-0.527025543765920479
0.549000000000000377,-0.532604424841327528
0.550000000000000377,-0.538158437429735015
0.551000000000000378,-0.543685259720228631
0.552000000000000379,-0.549182634776502754
0.553000000000000380,-0.554648369821059473
0.554000000000000381,-0.560080335508999383
0.555000000000000382,-0.565476465192211952
0.556000000000000383,-0.570834754174611048
0.557000000000000384,-0.576153258959208214
0.558000000000000385,-0.581430096487635217
0.559000000000000385,-0.586663443372842042
0.560000000000000386,-0.591851535125565653
0.561000000000000387,-0.596992665375243092
0.562000000000000388,-0.602085185085926455
0.563000000000000389,-0.607127501767859679
0.564000000000000390,-0.612118078685201072
0.565000000000000391,-0.617055434060518104
0.566000000000000392,-0.621938140276548590
0.567000000000000393,-0.626764823075767086
0.568000000000000393,-0.631534160758230656
0.569000000000000394,-0.636244883378227488
0.570000000000000395,-0.640895771940149794
0.571000000000000396,-0.645485657594071949
0.572000000000000397,-0.650013420831474731
0.573000000000000398,-0.654477990681495814
0.574000000000000399,-0.658878343908157915
0.575000000000000400,-0.663213504208925775
0.576000000000000401,-0.667482541414983421
0.577000000000000401,-0.671684570693606986
0.578000000000000402,-0.675818751752943814
0.579000000000000403,-0.679884288049546481
0.580000000000000404,-0.683880425999005559
0.581000000000000405,-0.687806454189938576
0.582000000000000406,-0.691661702601672479
0.583000000000000407,-0.695445541825872149
0.584000000000000408,-0.699157382292396545
0.585000000000000409,-0.702796673499628710
0.586000000000000409,-0.706362903249541874
0.587000000000000410,-0.709855596887719598
0.588000000000000411,-0.713274316548546894
0.589000000000000412,-0.716618660405818231
0.590000000000000413,-0.719888261928913087
0.591000000000000414,-0.723082789144766647
0.592000000000000415,-0.726201943905820935
0.593000000000000416,-0.729245461164085507
0.594000000000000417,-0.732213108251515865
0.595000000000000417,-0.735104684166847155
0.596000000000000418,-0.737920018869001493
0.597000000000000419,-0.740658972577252550
0.598000000000000420,-0.743321435078226900
0.599000000000000421,-0.745907325039889768
0.600000000000000422,-0.748416589332620341
0.601000000000000423,-0.750849202357463441
0.602000000000000424,-0.753205165381673702
0.603000000000000425,-0.755484505881644397
0.604000000000000425,-0.757687276893260320
0.605000000000000426,-0.759813556369796084
0.606000000000000427,-0.761863446547427769
0.607000000000000428,-0.763837073318337056
0.608000000000000429,-0.765734585611624552
0.609000000000000430,-0.767556154781871669
0.610000000000000431,-0.769301974005601852
0.611000000000000432,-0.770972257685523354
0.612000000000000433,-0.772567240862653937
0.613000000000000433,-0.774087178636372886
