# SiO2-Quartz_METHYLFORMATE-AC
# h[nm],U(h)[kJ/mol]
0.149999999999999994,92.853697298793974824
0.150999999999999995,90.942062977997139228
0.151999999999999996,89.372004082184147933
0.152999999999999997,87.917101224895631617
0.153999999999999998,86.485556112484047731
0.154999999999999999,85.051486724551494945
0.156000000000000000,83.617089513878397611
0.157000000000000001,82.193152094556097609
0.158000000000000002,80.790077616153183726
0.159000000000000002,79.414621111006653109
0.160000000000000003,78.069483916287069292
0.161000000000000004,76.754135867815392658
0.162000000000000005,75.465987052360759435
0.163000000000000006,74.201479530157229192
0.164000000000000007,72.956926166722240623
0.165000000000000008,71.729061784130280444
0.166000000000000009,70.515338685586058887
0.167000000000000010,69.314024422243477375
0.168000000000000010,68.124163276933700217
0.169000000000000011,66.945455735456761204
0.170000000000000012,65.778098840667155400
0.171000000000000013,64.622618421423325685
0.172000000000000014,63.479713566982766793
0.173000000000000015,62.350125103636955259
0.174000000000000016,61.234533344076325534
0.175000000000000017,60.133485830567373398
0.176000000000000018,59.047352857144268512
0.177000000000000018,57.976306879181024101
0.178000000000000019,56.920321169222162894
0.179000000000000020,55.879182971688351245
0.180000000000000021,54.852516717227992160
0.181000000000000022,53.839813404852769452
0.182000000000000023,52.840462918712169937
0.183000000000000024,51.853786727815894153
0.184000000000000025,50.879069063656359617
0.185000000000000026,49.915585248534661389
0.186000000000000026,48.962626339642596918
0.187000000000000027,48.019519655745085629
0.188000000000000028,47.085645067654112950
0.189000000000000029,46.160447168380080996
0.190000000000000030,45.243443604200351160
0.191000000000000031,44.334229955146525981
0.192000000000000032,43.432481613711665602
0.193000000000000033,42.537953134254237852
0.194000000000000034,41.650475521820496283
0.195000000000000034,40.769951905784239443
0.196000000000000035,39.896352007341306489
0.197000000000000036,39.029705765741240953
0.198000000000000037,38.170096440279451144
0.199000000000000038,37.317653456588757876
0.200000000000000039,36.472545218878011042
0.201000000000000040,35.634972065982104539
0.202000000000000041,34.805159509356798253
0.203000000000000042,33.983351855980522771
0.204000000000000042,33.169806288680376838
0.205000000000000043,32.364787450609341590
0.206000000000000044,31.568562559221078345
0.207000000000000045,30.781397057764905867
0.208000000000000046,30.003550798640901576
0.209000000000000047,29.235274742467446174
0.210000000000000048,28.476808148977010404
0.211000000000000049,27.728376230442034256
0.212000000000000050,26.990188234838957015
0.213000000000000050,26.262435924027311529
0.214000000000000051,25.545292411524982867
0.215000000000000052,24.838911324722658946
0.216000000000000053,24.143426257361081610
0.217000000000000054,23.458950479589606886
0.218000000000000055,22.785576874770978151
0.219000000000000056,22.123378074260301673
0.220000000000000057,21.472406763556328713
0.221000000000000058,20.832696135425582185
0.222000000000000058,20.204260467763056397
0.223000000000000059,19.587095806042622570
0.224000000000000060,18.981180732188011717
0.225000000000000061,18.386477203545975811
0.226000000000000062,17.802931447355849315
0.227000000000000063,17.230474897680075230
0.228000000000000064,16.669025163191975025
0.229000000000000065,16.118487015512691585
0.230000000000000066,15.578753388960199899
0.231000000000000066,15.049706383625601092
0.232000000000000067,14.531218264638891213
0.233000000000000068,14.023152451335880286
0.234000000000000069,13.525364490802312289
0.235000000000000070,13.037703010959058147
0.236000000000000071,12.560010648973250369
0.237000000000000072,12.092124951341791217
0.238000000000000073,11.633879242504431062
0.239000000000000073,11.185103459309647889
0.240000000000000074,10.745624949081641120
0.241000000000000075,10.315269229429301134
0.242000000000000076,9.893860708298561235
0.243000000000000077,9.481223363102998292
0.244000000000000078,9.077181378076883078
0.245000000000000079,8.681559739281070165
0.246000000000000080,8.294184786958592071
0.247000000000000081,7.914884725182605330
0.248000000000000081,7.543490088968153096
0.249000000000000082,7.179834169229900809
0.250000000000000111,6.823753396161889029
0.251000000000000112,6.475087681793380234
0.252000000000000113,6.133680722636013272
0.253000000000000114,5.799380263484989584
0.254000000000000115,5.472038323567045559
0.255000000000000115,5.151511386345236865
0.256000000000000116,4.837660554392060774
0.257000000000000117,4.530351670830162547
0.258000000000000118,4.229455408914583714
0.259000000000000119,3.934847331391007064
0.260000000000000120,3.646407921312685207
0.261000000000000121,3.364022586035087414
0.262000000000000122,3.087581636131305096
0.263000000000000123,2.816980240985059947
0.264000000000000123,2.552118362820768649
0.265000000000000124,2.292900670923850193
0.266000000000000125,2.039236437788442657
0.267000000000000126,1.791039418906056779
0.268000000000000127,1.548227717876622611
0.269000000000000128,1.310723638485459031
0.270000000000000129,1.078453525344729158
0.271000000000000130,0.851347594647770878
0.272000000000000131,0.629339756530020944
0.273000000000000131,0.412367430471007546
0.274000000000000132,0.200371355109518923
0.275000000000000133,-0.006704606221378384
0.276000000000000134,-0.208913663000533850
0.277000000000000135,-0.406306296896117858
0.278000000000000136,-0.598930461915203494
0.279000000000000137,-0.786831784297435832
0.280000000000000138,-0.970053761195934783
0.281000000000000139,-1.148637957260115972
0.282000000000000139,-1.322624198305357934
0.283000000000000140,-1.492050761324324126
0.284000000000000141,-1.656954560162943180
0.285000000000000142,-1.817371326250980745
0.286000000000000143,-1.973335783842178559
0.287000000000000144,-2.124881819281672080
0.288000000000000145,-2.272042643879757406
0.289000000000000146,-2.414850950028733401
0.290000000000000147,-2.553339060256248683
0.291000000000000147,-2.687539068961310562
0.292000000000000148,-2.817482976630252711
0.293000000000000149,-2.943202816377486375
0.294000000000000150,-3.064730772701276695
0.295000000000000151,-3.182099292387060796
0.296000000000000152,-3.295341187530408611
0.297000000000000153,-3.404489730688515348
0.298000000000000154,-3.509578742203263602
0.299000000000000155,-3.610642669770219637
0.300000000000000155,-3.707716660356685345
0.301000000000000156,-3.800836624598073143
0.302000000000000157,-3.890039293825695577
0.303000000000000158,-3.975362269900075685
0.304000000000000159,-4.056844068043137241
0.305000000000000160,-4.134524152879006209
0.306000000000000161,-4.208442967908013976
0.307000000000000162,-4.278641958650896804
0.308000000000000163,-4.345163589710752561
0.309000000000000163,-4.408051356009129229
0.310000000000000164,-4.467349788459770821
0.311000000000000165,-4.523104454348695569
0.312000000000000166,-4.575361952693485890
0.313000000000000167,-4.624169904856968216
0.314000000000000168,-4.669576940691643863
0.315000000000000169,-4.711632680491210756
0.316000000000000170,-4.750387713024432301
0.317000000000000171,-4.785893569924168922
0.318000000000000171,-4.818202696701488819
0.319000000000000172,-4.847368420650647991
0.320000000000000173,-4.873444915906022246
0.321000000000000174,-4.896487165906544980
0.322000000000000175,-4.916550923517254645
0.323000000000000176,-4.933692669050891766
0.324000000000000177,-4.947969566425435062
0.325000000000000178,-4.959439417685901574
0.326000000000000179,-4.968160616111182648
0.327000000000000179,-4.974192098118270344
0.328000000000000180,-4.977593294168066507
0.329000000000000181,-4.978424078868613378
0.330000000000000182,-4.976744720462526139
0.331000000000000183,-4.972615829877243598
0.332000000000000184,-4.966098309507444242
0.333000000000000185,-4.957253301890545139
0.334000000000000186,-4.946142138427303436
0.335000000000000187,-4.932826288290859118
0.336000000000000187,-4.917367307659103126
0.337000000000000188,-4.899826789396433568
0.338000000000000189,-4.880266313303075698
0.339000000000000190,-4.858747397041558003
0.340000000000000191,-4.835331447842045272
0.341000000000000192,-4.810079715080534335
0.342000000000000193,-4.783053243816024924
0.343000000000000194,-4.754312829365706428
0.344000000000000195,-4.723918972989603837
0.345000000000000195,-4.691931838749680672
0.346000000000000196,-4.658411211601235280
0.347000000000000197,-4.623416456768258520
0.348000000000000198,-4.587006480448184043
0.349000000000000199,-4.549239691885375692
0.350000000000000200,-4.510173966847233373
0.351000000000000201,-4.469866612531166794
0.352000000000000202,-4.428374333925615858
0.353000000000000203,-4.385753201643427523
0.354000000000000203,-4.342058621241132066
0.355000000000000204,-4.297345304033258984
0.356000000000000205,-4.251667239406782706
0.357000000000000206,-4.205077668636794996
0.358000000000000207,-4.157629060200690674
0.359000000000000208,-4.109373086584985124
0.360000000000000209,-4.060360602575383560
0.361000000000000210,-4.010641625017898448
0.362000000000000210,-3.960265314035898765
0.363000000000000211,-3.909279955685499353
0.364000000000000212,-3.857732946029265975
0.365000000000000213,-3.805670776606015604
0.366000000000000214,-3.753139021272537512
0.367000000000000215,-3.700182324391190658
0.368000000000000216,-3.646844390335790997
0.369000000000000217,-3.593167974286564093
0.370000000000000218,-3.539194874283842385
0.371000000000000218,-3.484965924508751645
0.372000000000000219,-3.430520989758397032
0.373000000000000220,-3.375898961081964078
0.374000000000000221,-3.321137752543528165
0.375000000000000222,-3.266274299076620480
0.376000000000000223,-3.211344555395282185
0.377000000000000224,-3.156383495925729754
0.378000000000000225,-3.101425115722610037
0.379000000000000226,-3.046502432333576316
0.380000000000000226,-2.991647488575878810
0.381000000000000227,-2.936891356188506386
0.382000000000000228,-2.882264140323701263
0.383000000000000229,-2.827794984841658366
0.384000000000000230,-2.773512078372417200
0.385000000000000231,-2.719442661109458648
0.386000000000000232,-2.665613032299559038
0.387000000000000233,-2.612048558394104436
0.388000000000000234,-2.558773681827346103
0.389000000000000234,-2.505811930387733533
0.390000000000000235,-2.453185927148824774
0.391000000000000236,-2.400917400927052192
0.392000000000000237,-2.349027197234007325
0.393000000000000238,-2.297535289691816640
0.394000000000000239,-2.246460791880571239
0.395000000000000240,-2.195821969587730127
0.396000000000000241,-2.145636253429962892
0.397000000000000242,-2.095920251818661484
0.398000000000000242,-2.046689764241217180
0.399000000000000243,-1.997959794830772351
0.400000000000000244,-1.949744566197949780
0.401000000000000245,-1.902057533499064146
0.402000000000000246,-1.854911398715743287
0.403000000000000247,-1.808318125121979092
0.404000000000000248,-1.762288951915312651
0.405000000000000249,-1.716834408989637240
0.406000000000000250,-1.671964331827904271
0.407000000000000250,-1.627687876493869368
0.408000000000000251,-1.584013534702667814
0.409000000000000252,-1.540949148950966574
0.410000000000000253,-1.498501927688023372
0.411000000000000254,-1.456678460509900130
0.412000000000000255,-1.415484733359730907
0.413000000000000256,-1.374926143717758453
0.414000000000000257,-1.335007515765495700
0.415000000000000258,-1.295733115509226208
0.416000000000000258,-1.257106665848586546
0.417000000000000259,-1.219131361576855088
0.418000000000000260,-1.181809884300098368
0.419000000000000261,-1.145144417263065373
0.420000000000000262,-1.109136660070378699
0.421000000000000263,-1.073787843292175692
0.422000000000000264,-1.039098742943985076
0.423000000000000265,-1.005069694831177696
0.424000000000000266,-0.971700608749108796
0.425000000000000266,-0.938990982530319540
0.426000000000000267,-0.906939915931047613
0.427000000000000268,-0.875546124349625088
0.428000000000000269,-0.844807952369932336
0.429000000000000270,-0.814723387123647669
0.430000000000000271,-0.785290071465361783
0.431000000000000272,-0.756505316955305096
0.432000000000000273,-0.728366116644712402
0.433000000000000274,-0.700869157659435138
0.434000000000000274,-0.674010833577716406
0.435000000000000275,-0.647787256598571171
0.436000000000000276,-0.622194269497528873
0.437000000000000277,-0.597227457366893644
0.438000000000000278,-0.572882159138079272
0.439000000000000279,-0.549153478883898538
0.440000000000000280,-0.526036296899011879
0.441000000000000281,-0.503525280557077903
0.442000000000000282,-0.481614894943519001
0.443000000000000282,-0.460299413262932500
0.444000000000000283,-0.439572927020723037
0.445000000000000284,-0.419429355978549079
0.446000000000000285,-0.399862457883547240
0.447000000000000286,-0.380865837971634480
0.448000000000000287,-0.362432958245173076
0.449000000000000288,-0.344557146525788283
0.450000000000000289,-0.327231605283095917
0.451000000000000290,-0.310449420240454632
0.452000000000000290,-0.294203568758976242
0.453000000000000291,-0.278486928001192013
0.454000000000000292,-0.263292282875991879
0.455000000000000293,-0.248612333766546068
0.456000000000000294,-0.234439704043117064
0.457000000000000295,-0.220766947362775495
0.458000000000000296,-0.207586554758167730
0.459000000000000297,-0.194890961517607819
0.460000000000000298,-0.182672553858866993
0.461000000000000298,-0.170923675399151515
0.462000000000000299,-0.159636633423842378
0.463000000000000300,-0.148803704956632421
0.464000000000000301,-0.138417142633849521
0.465000000000000302,-0.128469180385752918
0.466000000000000303,-0.118952038927672449
0.467000000000000304,-0.109857931063940623
0.468000000000000305,-0.101179066807641327
0.469000000000000306,-0.092907658319147574
0.470000000000000306,-0.085035924666608073
0.471000000000000307,-0.077556096411427952
0.472000000000000308,-0.070460420021952477
0.473000000000000309,-0.063741162118485822
0.474000000000000310,-0.057390613552868397
0.475000000000000311,-0.051401093325803379
0.476000000000000312,-0.045764952345197007
0.477000000000000313,-0.040474577028689826
0.478000000000000314,-0.035522392753659308
0.479000000000000314,-0.030900867157938834
0.480000000000000315,-0.026602513294439599
0.481000000000000316,-0.022619892642981719
0.482000000000000317,-0.018945617982472660
0.483000000000000318,-0.015572356126720550
0.484000000000000319,-0.012492830527008643
0.485000000000000320,-0.009699823744673760
0.486000000000000321,-0.007186179796790317
0.487000000000000322,-0.004944806378133058
0.488000000000000322,-0.002968676962489254
0.489000000000000323,-0.001250832786463874
0.490000000000000324,0.000215615281224101
0.491000000000000325,0.001437484981895248
0.492000000000000326,0.002421521017544293
0.493000000000000327,0.003174393506963232
0.494000000000000328,0.003702696544454080
0.495000000000000329,0.004012946858231510
0.496000000000000330,0.004111582565670359
0.497000000000000330,0.004004962022557195
0.498000000000000331,0.003699362763627588
0.499000000000000332,0.003200980531586907
0.500000000000000333,0.002515928391962715
0.501000000000000334,0.001650235931141668
0.502000000000000335,0.000609848534948482
0.503000000000000336,-0.000599373254768713
0.504000000000000337,-0.001971654308083125
0.505000000000000338,-0.003501305401942671
0.506000000000000338,-0.005182723644571759
0.507000000000000339,-0.007010392831692865
0.508000000000000340,-0.008978883736934479
0.509000000000000341,-0.011082854338731912
0.510000000000000342,-0.013317049985944121
0.511000000000000343,-0.015676303504439028
0.512000000000000344,-0.018155535246779621
0.513000000000000345,-0.020749753087151636
0.514000000000000346,-0.023454052363624283
0.515000000000000346,-0.026263615769729742
0.516000000000000347,-0.029173713197391749
0.517000000000000348,-0.032179701533145713
0.518000000000000349,-0.035277024409519186
0.519000000000000350,-0.038461211913454550
0.520000000000000351,-0.041727880253587431
0.521000000000000352,-0.045072731388137305
0.522000000000000353,-0.048491552615147517
0.523000000000000353,-0.051980216126750148
0.524000000000000354,-0.055534678529114048
0.525000000000000355,-0.059150980329673385
0.526000000000000356,-0.062825245393166848
0.527000000000000357,-0.066553680368074103
0.528000000000000358,-0.070332574084857213
0.529000000000000359,-0.074158296927506445
0.530000000000000360,-0.078027300179745657
0.531000000000000361,-0.081936115347305133
0.532000000000000361,-0.085881353457545578
0.533000000000000362,-0.089859704337766480
0.534000000000000363,-0.093867935873403280
0.535000000000000364,-0.097902893247371073
0.536000000000000365,-0.101961498161710407
0.537000000000000366,-0.106040748042691840
0.538000000000000367,-0.110137715230472305
0.539000000000000368,-0.114249546154425591
0.540000000000000369,-0.118373460495124358
0.541000000000000369,-0.122506750334053865
0.542000000000000370,-0.126646779291984507
0.543000000000000371,-0.130790981656974864
0.544000000000000372,-0.134936861502934657
0.545000000000000373,-0.139081991799607008
0.546000000000000374,-0.143224013514844484
0.547000000000000375,-0.147360634710005795
0.548000000000000376,-0.151489629629286388
0.549000000000000377,-0.155608837783724668
0.550000000000000377,-0.159716163030660552
0.551000000000000378,-0.163809572649356638
0.552000000000000379,-0.167887096413458642
0.553000000000000380,-0.171946825661001418
0.554000000000000381,-0.175986912362551540
0.555000000000000382,-0.180005568188166654
0.556000000000000383,-0.184001063573703022
0.557000000000000384,-0.187971726787103666
0.558000000000000385,-0.191915942995165623
0.559000000000000385,-0.195832153331359449
0.560000000000000386,-0.199718853965167420
0.561000000000000387,-0.203574595173454609
0.562000000000000388,-0.207397980414319727
0.563000000000000389,-0.211187665403895941
0.564000000000000390,-0.214942357196486800
0.565000000000000391,-0.218660813268487575
0.566000000000000392,-0.222341840606452568
0.567000000000000393,-0.225984294799693730
0.568000000000000393,-0.229587079137750255
0.569000000000000394,-0.233149143713088147
0.570000000000000395,-0.236669484529324070
0.571000000000000396,-0.240147142615290438
0.572000000000000397,-0.243581203145249725
0.573000000000000398,-0.246970794565482432
0.574000000000000399,-0.250315087727567831
0.575000000000000400,-0.253613295028548846
0.576000000000000401,-0.256864669558246328
0.577000000000000401,-0.260068504253938348
0.578000000000000402,-0.263224131062590794
0.579000000000000403,-0.266330920110835812
0.580000000000000404,-0.269388278882909671
0.581000000000000405,-0.272395651406665995
0.582000000000000406,-0.275352517447868261
0.583000000000000407,-0.278258391712880970
0.584000000000000408,-0.281112823059901151
0.585000000000000409,-0.283915393718856435
0.586000000000000409,-0.286665718520087431
0.587000000000000410,-0.289363444131918446
0.588000000000000411,-0.292008248307196183
0.589000000000000412,-0.294599839138923958
0.590000000000000413,-0.297137954325015441
0.591000000000000414,-0.299622360442281410
0.592000000000000415,-0.302052852229699798
0.593000000000000416,-0.304429251881002338
0.594000000000000417,-0.306751408346652099
0.595000000000000417,-0.309019196645245742
0.596000000000000418,-0.311232517184345692
0.597000000000000419,-0.313391295090814315
0.598000000000000420,-0.315495479550620184
0.599000000000000421,-0.317545043158169116
0.600000000000000422,-0.319539981275143714
0.601000000000000423,-0.321480311398855800
0.602000000000000424,-0.323366072540112737
0.603000000000000425,-0.325197324610598471
0.604000000000000425,-0.326974147819720173
0.605000000000000426,-0.328696642080930357
0.606000000000000427,-0.330364926427518690
0.607000000000000428,-0.331979138437756893
0.608000000000000429,-0.333539433669517549
0.609000000000000430,-0.335045985104133914
0.610000000000000431,-0.336498982599658103
0.611000000000000432,-0.337898632353323902
0.612000000000000433,-0.339245156373229162
0.613000000000000433,-0.340538791959209330
