# TricalciumSilicate-Wet-001_LEUSCA-AC
# h[nm],U(h)[kJ/mol]
0.149999999999999994,148.753158620304873239
0.150999999999999995,147.113393521513103224
0.151999999999999996,145.014296431497371032
0.152999999999999997,142.826090066227521902
0.153999999999999998,140.682805654092817349
0.154999999999999999,138.609940732984199485
0.156000000000000000,136.591930055424683133
0.157000000000000001,134.604833151632817589
0.158000000000000002,132.629836055163508490
0.159000000000000002,130.656881465032881806
0.160000000000000003,128.683786380374613145
0.161000000000000004,126.713771283387046651
0.162000000000000005,124.752868694292828877
0.163000000000000006,122.807841735932925076
0.164000000000000007,120.884789114087283224
0.165000000000000008,118.988388761656892711
0.166000000000000009,117.121640997562138864
0.167000000000000010,115.285952800562469633
0.168000000000000010,113.481421000902585661
0.169000000000000011,111.707202496571468942
0.170000000000000012,109.961892292431087981
0.171000000000000013,108.243859420418559125
0.172000000000000014,106.551514281419372310
0.173000000000000015,104.883498244789691967
0.174000000000000016,103.238798025967213334
0.175000000000000017,101.616794428788395521
0.176000000000000018,100.017258572160798735
0.177000000000000018,98.440309727902601367
0.178000000000000019,96.886348230372163925
0.179000000000000020,95.355975254339725211
0.180000000000000021,93.849909100963287756
0.181000000000000022,92.368905340146227445
0.182000000000000023,90.913685967187660708
0.183000000000000024,89.484880784404850829
0.184000000000000025,88.082982586234564337
0.185000000000000026,86.708316431651212497
0.186000000000000026,85.361022320059007029
0.187000000000000027,84.041049915371601742
0.188000000000000028,82.748163546253096001
0.189000000000000029,81.481955502866057373
0.190000000000000030,80.241865606834977598
0.191000000000000031,79.027205109711687214
0.192000000000000032,77.837183139210793570
0.193000000000000033,76.670934130724006650
0.194000000000000034,75.527544928789808409
0.195000000000000034,74.406080499421676677
0.196000000000000035,73.305607444605470846
0.197000000000000036,72.225214744274737200
0.198000000000000037,71.164031361700537559
0.199000000000000038,70.121240531458809642
0.200000000000000039,69.096090703252443177
0.201000000000000040,68.087903239899418395
0.202000000000000041,67.096077065062374345
0.203000000000000042,66.120090527970887706
0.204000000000000042,65.159500801180797680
0.205000000000000043,64.213941156339274130
0.206000000000000044,63.283116475041694571
0.207000000000000045,62.366797350204009831
0.208000000000000046,61.464813120763366783
0.209000000000000047,60.577044161566846014
0.210000000000000048,59.703413723332118934
0.211000000000000049,58.843879586588776931
0.212000000000000050,57.998425760250789551
0.213000000000000050,57.167054421365413930
0.214000000000000051,56.349778258779885221
0.215000000000000052,55.546613350878359938
0.216000000000000053,54.757572676848496940
0.217000000000000054,53.982660332629095024
0.218000000000000055,53.221866497093273551
0.219000000000000056,52.475163171315571731
0.220000000000000057,51.742500694023092933
0.221000000000000058,51.023805019519464565
0.222000000000000058,50.318975730391095169
0.223000000000000059,49.627884746014522932
0.224000000000000060,48.950375679083350633
0.225000000000000061,48.286263785852796104
0.226000000000000062,47.635336451323198048
0.227000000000000063,46.997354147917477007
0.228000000000000064,46.372051805113009948
0.229000000000000065,45.759140527736754223
0.230000000000000066,45.158309602007150829
0.231000000000000066,44.569228730700636731
0.232000000000000067,43.991550441848531250
0.233000000000000068,43.424912618958884991
0.234000000000000069,42.868941104756686400
0.235000000000000070,42.323252334706225497
0.236000000000000071,41.787455961007971439
0.237000000000000072,41.261157432242477228
0.238000000000000073,40.743960498285183292
0.239000000000000073,40.235469614465301902
0.240000000000000074,39.735292223130429079
0.241000000000000075,39.243040894764526172
0.242000000000000076,38.758335314553171713
0.243000000000000077,38.280804103771671976
0.244000000000000078,37.810086468574496621
0.245000000000000079,37.345833671676430754
0.246000000000000080,36.887710325036643155
0.247000000000000081,36.435395503985617438
0.248000000000000081,35.988583685281000157
0.249000000000000082,35.546985513349191876
0.250000000000000111,35.110328400478984179
0.251000000000000112,34.678356967995405569
0.252000000000000113,34.250833336472574331
0.253000000000000114,33.827537273860997402
0.254000000000000115,33.408266211024184145
0.255000000000000115,32.992835134620072779
0.256000000000000116,32.581076367542351591
0.257000000000000117,32.172839247271468821
0.258000000000000118,31.767989712493637455
0.259000000000000119,31.366409808242412538
0.260000000000000120,30.967997119618125623
0.261000000000000121,30.572664143859309860
0.262000000000000122,30.180337610190626663
0.263000000000000123,29.790957756466514894
0.264000000000000123,29.404477571178823325
0.265000000000000124,29.020862008912523322
0.266000000000000125,28.640087186823286913
0.267000000000000126,28.262139569184306254
0.268000000000000127,27.887015146513487451
0.269000000000000128,27.514718615253741518
0.270000000000000129,27.145262563442884129
0.271000000000000130,26.778666667281743941
0.272000000000000131,26.414956902993289134
0.273000000000000131,26.054164777864706082
0.274000000000000132,25.696326583882875383
0.275000000000000133,25.341482676911919469
0.276000000000000134,24.989676783923357561
0.277000000000000135,24.640955340374624427
0.278000000000000136,24.295366859441873686
0.279000000000000137,23.952961334448964692
0.280000000000000138,23.613789675496342113
0.281000000000000139,23.277903180980519693
0.282000000000000139,22.945353044408463461
0.283000000000000140,22.616189896648606350
0.284000000000000141,22.290463383523480445
0.285000000000000142,21.968221778434688929
0.286000000000000143,21.649511629520269196
0.287000000000000144,21.334377440675513782
0.288000000000000145,21.022861385619705743
0.289000000000000146,20.715003054063156895
0.290000000000000147,20.410839228918256083
0.291000000000000147,20.110403693406219361
0.292000000000000148,19.813727066834211143
0.293000000000000149,19.520836667756590543
0.294000000000000150,19.231756403186498261
0.295000000000000151,18.946506682489072659
0.296000000000000152,18.665104354565098532
0.297000000000000153,18.387562666921361654
0.298000000000000154,18.113891245221275028
0.299000000000000155,17.844096091915695013
0.300000000000000155,17.578179602567146844
0.301000000000000156,17.316140598501799985
0.302000000000000157,17.057974374449656807
0.303000000000000158,16.803672759865730058
0.304000000000000159,16.553224192661055270
0.305000000000000160,16.306613804112835453
0.306000000000000161,16.063823513766273265
0.307000000000000162,15.824832133186641059
0.308000000000000163,15.589615477468502291
0.309000000000000163,15.358146483458265052
0.310000000000000164,15.130395333697469695
0.311000000000000165,14.906329585145334349
0.312000000000000166,14.685914301791314074
0.313000000000000167,14.469112190320036149
0.314000000000000168,14.255883738042774311
0.315000000000000169,14.046187352360565370
0.316000000000000170,13.839979501074362034
0.317000000000000171,13.637214852907035834
0.318000000000000171,13.437846417650154862
0.319000000000000172,13.241825685395118839
0.320000000000000173,13.049102764353994743
0.321000000000000174,12.859626516819048447
0.322000000000000175,12.673344692852257509
0.323000000000000176,12.490204061336765307
0.324000000000000177,12.310150538060961267
0.325000000000000178,12.133129310543093737
0.326000000000000179,11.959084959339346454
0.327000000000000179,11.787961575612062148
0.328000000000000180,11.619702874766280942
0.329000000000000181,11.454252305992731920
0.330000000000000182,11.291553157583372524
0.331000000000000183,11.131548657912151867
0.332000000000000184,10.974182071998079380
0.333000000000000185,10.819396793590934536
0.334000000000000186,10.667136432740946361
0.335000000000000187,10.517344898833879796
0.336000000000000187,10.369966479090942713
0.337000000000000188,10.224945912549928906
0.338000000000000189,10.082228459559107847
0.339000000000000190,9.941759966829488704
0.340000000000000191,9.803486928103872344
0.341000000000000192,9.667356540512320962
0.342000000000000193,9.533316756694071969
0.343000000000000194,9.401316332774989348
0.344000000000000195,9.271304872297957189
0.345000000000000195,9.143232866210155407
0.346000000000000196,9.017051729017932615
0.347000000000000197,8.892713831224696719
0.348000000000000198,8.770172528171951143
0.349000000000000199,8.649382185407052503
0.350000000000000200,8.530298200704246270
0.351000000000000201,8.412877022867629506
0.352000000000000202,8.297076167446462591
0.353000000000000203,8.182854229494017417
0.354000000000000203,8.070170893501728671
0.355000000000000204,7.958986940640416563
0.356000000000000205,7.849264253439801386
0.357000000000000206,7.740965818036537271
0.358000000000000207,7.634055724119956032
0.359000000000000208,7.528499162702932956
0.360000000000000209,7.424262421843268456
0.361000000000000210,7.321312880439164061
0.362000000000000210,7.219619000219464233
0.363000000000000211,7.119150316047083038
0.364000000000000212,7.019877424650985631
0.365000000000000213,6.921771971899175924
0.366000000000000214,6.824806638722028751
0.367000000000000215,6.728955125792049685
0.368000000000000216,6.634192137062687955
0.369000000000000217,6.540493362265746846
0.370000000000000218,6.447835458462973790
0.371000000000000218,6.356196030744425407
0.372000000000000219,6.265553612162244157
0.373000000000000220,6.175887642985128601
0.374000000000000221,6.087178449355227450
0.375000000000000222,5.999407221425698822
0.376000000000000223,5.912555991053355164
0.377000000000000224,5.826607609117789188
0.378000000000000225,5.741545722534582730
0.379000000000000226,5.657354751026987927
0.380000000000000226,5.574019863716975998
0.381000000000000227,5.491526955593474923
0.382000000000000228,5.409862623912231605
0.383000000000000229,5.329014144578676060
0.384000000000000230,5.248969448562125883
0.385000000000000231,5.169717098386568566
0.386000000000000232,5.091246264740576954
0.387000000000000233,5.013546703245770786
0.388000000000000234,4.936608731420941254
0.389000000000000234,4.860423205875865627
0.390000000000000235,4.784981499766592705
0.391000000000000236,4.710275480541481485
0.392000000000000237,4.636297488004683665
0.393000000000000238,4.563040312721836855
0.394000000000000239,4.490497174790222701
0.395000000000000240,4.418661702993724738
0.396000000000000241,4.347527914360857615
0.397000000000000242,4.277090194142228796
0.398000000000000242,4.207343276221896744
0.399000000000000243,4.138282223975494389
0.400000000000000244,4.069902411586094004
0.401000000000000245,4.002199505827368498
0.402000000000000246,3.935169448322155539
0.403000000000000247,3.868808438282797191
0.404000000000000248,3.803112915738696920
0.405000000000000249,3.738079545254913150
0.406000000000000250,3.673705200144627092
0.407000000000000250,3.609986947177059591
0.408000000000000251,3.546922031781426288
0.409000000000000252,3.484507863746495904
0.410000000000000253,3.422742003414382506
0.411000000000000254,3.361622148366337992
0.412000000000000255,3.301146120597541422
0.413000000000000256,3.241311854176989193
0.414000000000000257,3.182117383388145537
0.415000000000000258,3.123560831345037148
0.416000000000000258,3.065640399078252365
0.417000000000000259,3.008354355084402521
0.418000000000000260,2.951701025332416073
0.419000000000000261,2.895678783719313198
0.420000000000000262,2.840286042967978819
0.421000000000000263,2.785521245958759273
0.422000000000000264,2.731382857486754467
0.423000000000000265,2.677869356436000547
0.424000000000000266,2.624979228361759898
0.425000000000000266,2.572710958471836840
0.426000000000000267,2.521063024997540758
0.427000000000000268,2.470033892944893950
0.428000000000000269,2.419622008216511411
0.429000000000000270,2.369825792094375494
0.430000000000000271,2.320643636073816296
0.431000000000000272,2.272073897038759949
0.432000000000000273,2.224114892768464635
0.433000000000000274,2.176764897765762541
0.434000000000000274,2.130022139396956948
0.435000000000000275,2.083884794333522361
0.436000000000000276,2.038350985285731554
0.437000000000000277,1.993418778018449800
0.438000000000000278,1.949086178639421352
0.439000000000000279,1.905351131150351929
0.440000000000000280,1.862211515251312122
0.441000000000000281,1.819665144389042366
0.442000000000000282,1.777709764039764995
0.443000000000000282,1.736343050217449502
0.444000000000000283,1.695562608198358134
0.445000000000000284,1.655365971453062413
0.446000000000000285,1.615750600777125401
0.447000000000000286,1.576713883611837508
0.448000000000000287,1.538253133546637841
0.449000000000000288,1.500365589994859583
0.450000000000000289,1.463048418034790688
0.451000000000000290,1.426298708408064053
0.452000000000000290,1.390113477667638930
0.453000000000000291,1.354489668467859120
0.454000000000000292,1.319424149989142148
0.455000000000000293,1.284913718490141576
0.456000000000000294,1.250955097980378294
0.457000000000000295,1.217544941006476034
0.458000000000000296,1.184679829545418839
0.459000000000000297,1.152356275998347890
0.460000000000000298,1.120570724278635577
0.461000000000000298,1.089319550988188112
0.462000000000000299,1.058599066676055633
0.463000000000000300,1.028405517173678785
0.464000000000000301,0.998735085001200007
0.465000000000000302,0.969583890839573193
0.466000000000000303,0.940947995063242559
0.467000000000000304,0.912823399328416718
0.468000000000000305,0.885206048212190288
0.469000000000000306,0.858091830897816044
0.470000000000000306,0.831476582901639061
0.471000000000000307,0.805356087837513335
0.472000000000000308,0.779726079214441148
0.473000000000000309,0.754582242263509451
0.474000000000000310,0.729920215790361704
0.475000000000000311,0.705735594049455961
0.476000000000000312,0.682023928636707355
0.477000000000000313,0.658780730397043435
0.478000000000000314,0.636001471343811575
0.479000000000000314,0.613681586586812711
0.480000000000000315,0.591816476266189384
0.481000000000000316,0.570401507489248671
0.482000000000000317,0.549432016267676127
0.483000000000000318,0.528903309452514625
0.484000000000000319,0.508810666664586742
0.485000000000000320,0.489149342218051342
0.486000000000000321,0.469914567034919073
0.487000000000000322,0.451101550548499652
0.488000000000000322,0.432705482593900126
0.489000000000000323,0.414721535283650078
0.490000000000000324,0.397144864866827763
0.491000000000000325,0.379970613570041471
0.492000000000000326,0.363193911418770887
0.493000000000000327,0.346809878037601327
0.494000000000000328,0.330813624428122122
0.495000000000000329,0.315200254723138562
0.496000000000000330,0.299964867916195921
0.497000000000000330,0.285102559565156122
0.498000000000000331,0.270608423469101633
0.499000000000000332,0.256477553317410900
0.500000000000000333,0.242705044310329576
0.501000000000000334,0.229285994750284050
0.502000000000000335,0.216215507603137624
0.503000000000000336,0.203488692028914231
0.504000000000000337,0.191100664881310334
0.505000000000000338,0.179046552175597090
0.506000000000000338,0.167321490524422523
0.507000000000000339,0.155920628541141582
0.508000000000000340,0.144839128210409590
0.509000000000000341,0.134072166225650297
0.510000000000000342,0.123614935293332229
0.511000000000000343,0.113462645403714688
0.512000000000000344,0.103610525068087655
0.513000000000000345,0.094053822522323596
0.514000000000000346,0.084787806896693005
0.515000000000000346,0.075807769352019758
0.516000000000000347,0.067109024182141180
0.517000000000000348,0.058686909882730821
0.518000000000000349,0.050536790186654357
0.519000000000000350,0.042654055065898089
0.520000000000000351,0.035034121700353096
0.521000000000000352,0.027672435413475426
0.522000000000000353,0.020564470575249006
0.523000000000000353,0.013705731472495319
0.524000000000000354,0.007091753146931568
0.525000000000000355,0.000718102201205217
0.526000000000000356,-0.005419622426761828
0.527000000000000357,-0.011325788720820729
0.528000000000000358,-0.017004730874644804
0.529000000000000359,-0.022460748610472415
0.530000000000000360,-0.027698106528085110
0.531000000000000361,-0.032721033483720886
0.532000000000000361,-0.037533721998445999
0.533000000000000362,-0.042140327695594393
0.534000000000000363,-0.046544968766824180
0.535000000000000364,-0.050751725466407036
0.536000000000000365,-0.054764639633198428
0.537000000000000366,-0.058587714239958219
0.538000000000000367,-0.062224912969406951
0.539000000000000368,-0.065680159816718708
0.540000000000000369,-0.068957338717794220
0.541000000000000369,-0.072060293202997922
0.542000000000000370,-0.074992826075700694
0.543000000000000371,-0.077758699115311233
0.544000000000000372,-0.080361632804155009
0.545000000000000373,-0.082805306077809254
0.546000000000000374,-0.085093356098325024
0.547000000000000375,-0.087229378049872922
0.548000000000000376,-0.089216924956312740
0.549000000000000377,-0.091059507520164756
0.550000000000000377,-0.092760593982527714
0.551000000000000378,-0.094323610003362993
0.552000000000000379,-0.095751938561768307
0.553000000000000380,-0.097048919875623835
0.554000000000000381,-0.098217851340182433
0.555000000000000382,-0.099261987485153316
0.556000000000000383,-0.100184539949651888
0.557000000000000384,-0.100988677474732128
0.558000000000000385,-0.101677525912812289
0.559000000000000385,-0.102254168253677280
0.560000000000000386,-0.102721644666521700
0.561000000000000387,-0.103082952557551108
0.562000000000000388,-0.103341046642696985
0.563000000000000389,-0.103498839035022522
0.564000000000000390,-0.103559199346297912
0.565000000000000391,-0.103524954802347469
0.566000000000000392,-0.103398890371699775
0.567000000000000393,-0.103183748907154565
0.568000000000000393,-0.102882231299750132
0.569000000000000394,-0.102496996644779154
0.570000000000000395,-0.102030662419430859
0.571000000000000396,-0.101485804671573643
0.572000000000000397,-0.100864958219393230
0.573000000000000398,-0.100170616861366829
0.574000000000000399,-0.099405233596267406
0.575000000000000400,-0.098571220852765234
0.576000000000000401,-0.097670950728240391
0.577000000000000401,-0.096706755236516090
0.578000000000000402,-0.095680926564012489
0.579000000000000403,-0.094595717334058166
0.580000000000000404,-0.093453340879019325
0.581000000000000405,-0.092255971519789898
0.582000000000000406,-0.091005744852448250
0.583000000000000407,-0.089704758041615776
0.584000000000000408,-0.088355070120293241
0.585000000000000409,-0.086958702295800133
0.586000000000000409,-0.085517638261493986
0.587000000000000410,-0.084033824514051281
0.588000000000000411,-0.082509170675862789
0.589000000000000412,-0.080945549822425966
0.590000000000000413,-0.079344798814290171
0.591000000000000414,-0.077708718633378082
0.592000000000000415,-0.076039074723389416
0.593000000000000416,-0.074337597333972466
0.594000000000000417,-0.072605981868462413
0.595000000000000417,-0.070845889234946252
0.596000000000000418,-0.069058946200293042
0.597000000000000419,-0.067246745747082254
0.598000000000000420,-0.065410847433021141
0.599000000000000421,-0.063552777752769976
0.600000000000000422,-0.061674030501854812
0.601000000000000423,-0.059776067142475575
0.602000000000000424,-0.057860317171041342
0.603000000000000425,-0.055928178487183858
0.604000000000000425,-0.053981017764038096
0.605000000000000426,-0.052020170819650061
0.606000000000000427,-0.050046942989309687
0.607000000000000428,-0.048062609498536184
0.608000000000000429,-0.046068415836742968
0.609000000000000430,-0.044065578131143653
0.610000000000000431,-0.042055283520990597
0.611000000000000432,-0.040038690531803207
0.612000000000000433,-0.038016929449510191
0.613000000000000433,-0.035991102694355293
0.614000000000000434,-0.033962285194400518
0.615000000000000435,-0.031931524758483973
0.616000000000000436,-0.029899842448491282
