# TricalciumSilicate-Wet-001_NC4-AC
# h[nm],U(h)[kJ/mol]
0.149999999999999994,166.826631868152816196
0.150999999999999995,164.131548625525226726
0.151999999999999996,161.326728636620998714
0.152999999999999997,158.482691086023436355
0.153999999999999998,155.649983813389667375
0.154999999999999999,152.859188107334261986
0.156000000000000000,150.124890947467378055
0.157000000000000001,147.450630099503229076
0.158000000000000002,144.833381426414177895
0.159000000000000002,142.267040298360456063
0.160000000000000003,139.744814906268061350
0.161000000000000004,137.260668402236177599
0.162000000000000005,134.810026031999314000
0.163000000000000006,132.389968601633540857
0.164000000000000007,129.999104017646004650
0.165000000000000008,127.637266717011542028
0.166000000000000009,125.305152580637127357
0.167000000000000010,123.003960123993095976
0.168000000000000010,120.735079461729924333
0.169000000000000011,118.499848844919910107
0.170000000000000012,116.299383595481828024
0.171000000000000013,114.134472762587890315
0.172000000000000014,112.005533506582807490
0.173000000000000015,109.912610907079326239
0.174000000000000016,107.855410617320416122
0.175000000000000017,105.833352779130947852
0.176000000000000018,103.845637298364721346
0.177000000000000018,101.891312552381634760
0.178000000000000019,99.969341585802311556
0.179000000000000020,98.078661679262012285
0.180000000000000021,96.218234755457459073
0.181000000000000022,94.387087378932648107
0.182000000000000023,92.584340108616856924
0.183000000000000024,90.809226695631835469
0.184000000000000025,89.061104116508715833
0.185000000000000026,87.339454732429814499
0.186000000000000026,85.643882007924233335
0.187000000000000027,83.974101244793956766
0.188000000000000028,82.329926722089936675
0.189000000000000029,80.711256508988441283
0.190000000000000030,79.118056057669704728
0.191000000000000031,77.550341506144519599
0.192000000000000032,76.008163440371433239
0.193000000000000033,74.491591691078809845
0.194000000000000034,73.000701580346813557
0.195000000000000034,71.535561890482583181
0.196000000000000035,70.096224705239350783
0.197000000000000036,68.682717171617625240
0.198000000000000037,67.295035148825718352
0.199000000000000038,65.933138648155917849
0.200000000000000039,64.596948921740661831
0.201000000000000040,63.286347027288357481
0.202000000000000041,62.001173677761961756
0.203000000000000042,60.741230177372152355
0.204000000000000042,59.506280246134451772
0.205000000000000043,58.296052542686219056
0.206000000000000044,57.110243707367352783
0.207000000000000045,55.948521763261609863
0.208000000000000046,54.810529730710911167
0.209000000000000047,53.695889329709260096
0.210000000000000048,52.604204663711847445
0.211000000000000049,51.535065797100045870
0.212000000000000050,50.488052156319682240
0.213000000000000050,49.462735701208401906
0.214000000000000051,48.458683828001916538
0.215000000000000052,47.475461978823602749
0.216000000000000053,46.512635944059361748
0.217000000000000054,45.569773853905047645
0.218000000000000055,44.646447863602496398
0.219000000000000056,43.742235543548233068
0.220000000000000057,42.856720990676592464
0.221000000000000058,41.989495681431797891
0.222000000000000058,41.140159089381086233
0.223000000000000059,40.308319092241902126
0.224000000000000060,39.493592193935533885
0.225000000000000061,38.695603587380063004
0.226000000000000062,37.913987083226729169
0.227000000000000063,37.148384928745393552
0.228000000000000064,36.398447539688170593
0.229000000000000065,35.663833166300136668
0.230000000000000066,34.944207512793219905
0.231000000000000066,34.239243327623341884
0.232000000000000067,33.548619979879966024
0.233000000000000068,32.872023035061765484
0.234000000000000069,32.209143841517381190
0.235000000000000070,31.559679136910336439
0.236000000000000071,30.923330682250753654
0.237000000000000072,30.299804929341103588
0.238000000000000073,29.688812725925735947
0.239000000000000073,29.090069061422489938
0.240000000000000074,28.503292854851146387
0.241000000000000075,27.928206785462759143
0.242000000000000076,27.364537165610677505
0.243000000000000077,26.812013854583405248
0.244000000000000078,26.270370211436773644
0.245000000000000079,25.739343084307517273
0.246000000000000080,25.218672833255233456
0.247000000000000081,24.708103383352348459
0.248000000000000081,24.207382304515142835
0.249000000000000082,23.716260914429682316
0.250000000000000111,23.234494400866307018
0.251000000000000112,22.761841959684357306
0.252000000000000113,22.298066944895015951
0.253000000000000114,21.842937027267648631
0.254000000000000115,21.396224358121312292
0.255000000000000115,20.957705735134805280
0.256000000000000116,20.527162767224588436
0.257000000000000117,20.104382035775994808
0.258000000000000118,19.689155249762880118
0.259000000000000119,19.281279392547951090
0.260000000000000120,18.880556858416959187
0.261000000000000121,18.486795577160783921
0.262000000000000122,18.099809125275118760
0.263000000000000123,17.719416822597853667
0.264000000000000123,17.345443813443402803
0.265000000000000124,16.977721131522653053
0.266000000000000125,16.616085748152812585
0.267000000000000126,16.260380603463307381
0.268000000000000127,15.910454620490607880
0.269000000000000128,15.566162702226719716
0.270000000000000129,15.227365711841576612
0.271000000000000130,14.893930436439479337
0.272000000000000131,14.565729534834471082
0.273000000000000131,14.242641469938352117
0.274000000000000132,13.924550426449517460
0.275000000000000133,13.611346214610701821
0.276000000000000134,13.302924160870066572
0.277000000000000135,12.999184986334014980
0.278000000000000136,12.700034673941072327
0.279000000000000137,12.405384325316717309
0.280000000000000138,12.115150008288775751
0.281000000000000139,11.829252596053212443
0.282000000000000139,11.547617598981627651
0.283000000000000140,11.270174990055508601
0.284000000000000141,10.996859024898725465
0.285000000000000142,10.727608057360304983
0.286000000000000143,10.462364351573985033
0.287000000000000144,10.201073891391649440
0.288000000000000145,9.943686188053035835
0.289000000000000146,9.690154086917559084
0.290000000000000147,9.440433574042938147
0.291000000000000147,9.194483583353754597
0.292000000000000148,8.952265805098106100
0.293000000000000149,8.713744496245926285
0.294000000000000150,8.478886293435719423
0.295000000000000151,8.247660029030475570
0.296000000000000152,8.020036550796653785
0.297000000000000153,7.795988545674276793
0.298000000000000154,7.575490368060219915
0.299000000000000155,7.358517872982486274
0.300000000000000155,7.145048254499238638
0.301000000000000156,6.935059889614460182
0.302000000000000157,6.728532187960757582
0.303000000000000158,6.525445447460883841
0.304000000000000159,6.325780716141716553
0.305000000000000160,6.129519660238686996
0.306000000000000161,5.936644438694573367
0.307000000000000162,5.747137584124429210
0.308000000000000163,5.560981890288347884
0.309000000000000163,5.378160306085306708
0.310000000000000164,5.198655836055147361
0.311000000000000165,5.022451447351213183
0.312000000000000166,4.849529983123676224
0.313000000000000167,4.679874082232911903
0.314000000000000168,4.513466105193439049
0.315000000000000169,4.350288066231857265
0.316000000000000170,4.190321571326729000
0.317000000000000171,4.033547762084807253
0.318000000000000171,3.879947265295859982
0.319000000000000172,3.729500147997458104
0.320000000000000173,3.582185877872330337
0.321000000000000174,3.437983288792847425
0.322000000000000175,3.296870551320731924
0.323000000000000176,3.158825147964953395
0.324000000000000177,3.023823852996540218
0.325000000000000178,2.891842716616190856
0.326000000000000179,2.762857053268315433
0.327000000000000179,2.636841433894403952
0.328000000000000180,2.513769681918146315
0.329000000000000181,2.393614872755466472
0.330000000000000182,2.276349336644059029
0.331000000000000183,2.161944664588784981
0.332000000000000184,2.050371717222220447
0.333000000000000185,1.941600636382650791
0.334000000000000186,1.835600859215486880
0.335000000000000187,1.732341134608317956
0.336000000000000187,1.631789541774087082
0.337000000000000188,1.533913510802163316
0.338000000000000189,1.438679845001670454
0.339000000000000190,1.346054744867236863
0.340000000000000191,1.256003833502928657
0.341000000000000192,1.168492183345605673
0.342000000000000193,1.083484344035235525
0.343000000000000194,1.000944371285358070
0.344000000000000195,0.920835856613521742
0.345000000000000195,0.843121957796870491
0.346000000000000196,0.767765429925073906
0.347000000000000197,0.694728656928303545
0.348000000000000198,0.623973683464422724
0.349000000000000199,0.555462247055561020
0.350000000000000200,0.489155810370152544
0.351000000000000201,0.425015593552622473
0.352000000000000202,0.363002606508631587
0.353000000000000203,0.303077681059517268
0.354000000000000203,0.245201502885144335
0.355000000000000204,0.189334643180033513
0.356000000000000205,0.135437589952695003
0.357000000000000206,0.083470778903342063
0.358000000000000207,0.033394623820473958
0.359000000000000208,-0.014830453558751965
0.360000000000000209,-0.061243994274543301
0.361000000000000210,-0.105885473502341648
0.362000000000000210,-0.148794272584060583
0.363000000000000211,-0.190009651769578097
0.364000000000000212,-0.229570723701717494
0.365000000000000213,-0.267516427673821167
0.366000000000000214,-0.303885504685523888
0.367000000000000215,-0.338716473318715183
0.368000000000000216,-0.372047606452521440
0.369000000000000217,-0.403916908832642085
0.370000000000000218,-0.434362095507816737
0.371000000000000218,-0.463420571142857340
0.372000000000000219,-0.491129410215460305
0.373000000000000220,-0.517525338101197052
0.374000000000000221,-0.542644713048790361
0.375000000000000222,-0.566523509045463891
0.376000000000000223,-0.589197299570364708
0.377000000000000224,-0.610701242231683428
0.378000000000000225,-0.631070064281625376
0.379000000000000226,-0.650338049001499829
0.380000000000000226,-0.668539022947868822
0.381000000000000227,-0.685706344048889083
0.382000000000000228,-0.701872890539126937
0.383000000000000229,-0.717071050719554792
0.384000000000000230,-0.731332713528450973
0.385000000000000231,-0.744689259908122736
0.386000000000000232,-0.757171554951084458
0.387000000000000233,-0.768809940808996450
0.388000000000000234,-0.779634230346467616
0.389000000000000234,-0.789673701521683591
0.390000000000000235,-0.798957092474870345
0.391000000000000236,-0.807512597305418467
0.392000000000000237,-0.815367862517928144
0.393000000000000238,-0.822549984117258659
0.394000000000000239,-0.829085505332207595
0.395000000000000240,-0.835000414947492997
0.396000000000000241,-0.840320146223380804
0.397000000000000242,-0.845069576382246668
0.398000000000000242,-0.849273026641477968
0.399000000000000243,-0.852954262771867144
0.400000000000000244,-0.856136496160940452
0.401000000000000245,-0.858842385360719995
0.402000000000000246,-0.861094038099351700
0.403000000000000247,-0.862913013736519074
0.404000000000000248,-0.864320326142511419
0.405000000000000249,-0.865336446981199936
0.406000000000000250,-0.865981309377295894
0.407000000000000250,-0.866274311948730613
0.408000000000000251,-0.866234323185120281
0.409000000000000252,-0.865879686153744776
0.410000000000000253,-0.865228223514739492
0.411000000000000254,-0.864297242827583800
0.412000000000000255,-0.863103542131330337
0.413000000000000256,-0.861663415781510955
0.414000000000000257,-0.859992660526796238
0.415000000000000258,-0.858106581809301994
0.416000000000000258,-0.856020000272386561
0.417000000000000259,-0.853747258460631153
0.418000000000000260,-0.851302227696808855
0.419000000000000261,-0.848698315121287683
0.420000000000000262,-0.845948470879606340
0.421000000000000263,-0.843065195444552495
0.422000000000000264,-0.840060547059298335
0.423000000000000265,-0.836946149288797514
0.424000000000000266,-0.833733198667027664
0.425000000000000266,-0.830432472427939494
0.426000000000000267,-0.827054336308663651
0.427000000000000268,-0.823608752413756529
0.428000000000000269,-0.820105287129754279
0.429000000000000270,-0.816553119079799439
0.430000000000000271,-0.812961047108335277
0.431000000000000272,-0.809337498286503809
0.432000000000000273,-0.805690535929078466
0.433000000000000274,-0.802027867614298784
0.434000000000000274,-0.798356853198297300
0.435000000000000275,-0.794684512816187683
0.436000000000000276,-0.791017534862332505
0.437000000000000277,-0.787362283942534713
0.438000000000000278,-0.783724808791413485
0.439000000000000279,-0.780110850148494128
0.440000000000000280,-0.776525848586835821
0.441000000000000281,-0.772974952288455475
0.442000000000000282,-0.769463024761135039
0.443000000000000282,-0.765994652491323591
0.444000000000000283,-0.762574152528479710
0.445000000000000284,-0.759205579996174218
0.446000000000000285,-0.755892735525728332
0.447000000000000286,-0.752639172608558393
0.448000000000000287,-0.749448204863295553
0.449000000000000288,-0.746322913214495509
0.450000000000000289,-0.743266152979587313
0.451000000000000290,-0.740280560861220183
0.452000000000000290,-0.737368561842342007
0.453000000000000291,-0.734532375981461483
0.454000000000000292,-0.731774025105967119
0.455000000000000293,-0.729095339401402143
0.456000000000000294,-0.726497963894924714
0.457000000000000295,-0.723983364831338405
0.458000000000000296,-0.721552835940229564
0.459000000000000297,-0.719207504593019520
0.460000000000000298,-0.716948337848823392
0.461000000000000298,-0.714776148388237331
0.462000000000000299,-0.712691600334326436
0.463000000000000300,-0.710695214960164079
0.464000000000000301,-0.708787376282578374
0.465000000000000302,-0.706968336541741071
0.466000000000000303,-0.705238221566434342
0.467000000000000304,-0.703597036024997124
0.468000000000000305,-0.702044668561989993
0.469000000000000306,-0.700580896820783949
0.470000000000000306,-0.699205392352441502
0.471000000000000307,-0.697917725411158374
0.472000000000000308,-0.696717369636931649
0.473000000000000309,-0.695603706625946394
0.474000000000000310,-0.694576030389391530
0.475000000000000311,-0.693633551701487439
0.476000000000000312,-0.692775402337563406
0.477000000000000313,-0.692000639203093182
0.478000000000000314,-0.691308248354645660
0.479000000000000314,-0.690697148913881342
0.480000000000000315,-0.690166196875577787
0.481000000000000316,-0.689714188810969575
0.482000000000000317,-0.689339865467502144
0.483000000000000318,-0.689041915266336291
0.484000000000000319,-0.688818977698864465
0.485000000000000320,-0.688669646623577880
0.486000000000000321,-0.688592473464690213
0.487000000000000322,-0.688585970313900675
0.488000000000000322,-0.688648612936700877
0.489000000000000323,-0.688778843684793252
0.490000000000000324,-0.688975074316004021
0.491000000000000325,-0.689235688723253359
0.492000000000000326,-0.689559045574089646
0.493000000000000327,-0.689943480862363345
0.494000000000000328,-0.690387310373550278
0.495000000000000329,-0.690888832065348124
0.496000000000000330,-0.691446328365043494
0.497000000000000330,-0.692058068385369096
0.498000000000000331,-0.692722310060236657
0.499000000000000332,-0.693437302202157935
0.500000000000000333,-0.694201286482807878
0.501000000000000334,-0.695012499338317324
0.502000000000000335,-0.695869173800987229
0.503000000000000336,-0.696769541258902003
0.504000000000000337,-0.697711833145088667
0.505000000000000338,-0.698694282557767110
0.506000000000000338,-0.699715125813263894
0.507000000000000339,-0.700772603933157434
0.508000000000000340,-0.701864964067160590
0.509000000000000341,-0.702990460853358701
0.510000000000000342,-0.704147357717214151
0.511000000000000343,-0.705333928110957520
0.512000000000000344,-0.706548456694767846
0.513000000000000345,-0.707789240461279334
0.514000000000000346,-0.709054589804886559
0.515000000000000346,-0.710342829537233600
0.516000000000000347,-0.711652299850371706
0.517000000000000348,-0.712981357229009793
0.518000000000000349,-0.714328375313184827
0.519000000000000350,-0.715691745712816019
0.520000000000000351,-0.717069878775411285
0.521000000000000352,-0.718461204308361578
0.522000000000000353,-0.719864172257033141
0.523000000000000353,-0.721277253340051883
0.524000000000000354,-0.722698939642999361
0.525000000000000355,-0.724127745171798121
0.526000000000000356,-0.725562206367000639
0.527000000000000357,-0.727000882580245866
0.528000000000000358,-0.728442356514004463
0.529000000000000359,-0.729885234625867740
0.530000000000000360,-0.731328147498432335
0.531000000000000361,-0.732769750176010648
0.532000000000000361,-0.734208722469198882
0.533000000000000362,-0.735643769228429667
0.534000000000000363,-0.737073620587537559
0.535000000000000364,-0.738497032178433654
0.536000000000000365,-0.739912785317839550
0.537000000000000366,-0.741319687167157459
0.538000000000000367,-0.742716570866354231
0.539000000000000368,-0.744102295642956379
0.540000000000000369,-0.745475746896924862
0.541000000000000369,-0.746835836262495167
0.542000000000000370,-0.748181501647705693
0.543000000000000371,-0.749511707252637494
0.544000000000000372,-0.750825443567118889
0.545000000000000373,-0.752121727348781466
0.546000000000000374,-0.753399601582239398
0.547000000000000375,-0.754658135420209319
0.548000000000000376,-0.755896424107353471
0.549000000000000377,-0.757113588887557087
0.550000000000000377,-0.758308776895429748
0.551000000000000378,-0.759481161032680596
0.552000000000000379,-0.760629939830137713
0.553000000000000380,-0.761754337296020378
0.554000000000000381,-0.762853602751154436
0.555000000000000382,-0.763927010651812344
0.556000000000000383,-0.764973860400688821
0.557000000000000384,-0.765993476146777819
0.558000000000000385,-0.766985206574566925
0.559000000000000385,-0.767948424683272513
0.560000000000000386,-0.768882527556583595
0.561000000000000387,-0.769786936123473042
0.562000000000000388,-0.770661094910601863
0.563000000000000389,-0.771504471786856216
0.564000000000000390,-0.772316557700443718
0.565000000000000391,-0.773096866409091033
0.566000000000000392,-0.773844934203749890
0.567000000000000393,-0.774560319626340310
0.568000000000000393,-0.775242603181846235
0.569000000000000394,-0.775891387045294922
0.570000000000000395,-0.776506294763978588
0.571000000000000396,-0.777086970955277456
0.572000000000000397,-0.777633081000560944
0.573000000000000398,-0.778144310735408795
0.574000000000000399,-0.778620366136624331
0.575000000000000400,-0.779060973006291624
0.576000000000000401,-0.779465876653244627
0.577000000000000401,-0.779834841572300874
0.578000000000000402,-0.780167651121496553
0.579000000000000403,-0.780464107197631929
0.580000000000000404,-0.780724029910507267
0.581000000000000405,-0.780947257255953597
0.582000000000000406,-0.781133644788097437
0.583000000000000407,-0.781283065290968248
0.584000000000000408,-0.781395408449794160
0.585000000000000409,-0.781470580522161229
0.586000000000000409,-0.781508504009269633
0.587000000000000410,-0.781509117327553016
0.588000000000000411,-0.781472374480753018
0.589000000000000412,-0.781398244732797398
0.590000000000000413,-0.781286712281526463
0.591000000000000414,-0.781137775933540501
0.592000000000000415,-0.780951448780321300
0.593000000000000416,-0.780727757875754547
0.594000000000000417,-0.780466743915251615
0.595000000000000417,-0.780168460916637607
0.596000000000000418,-0.779832975902846282
0.597000000000000419,-0.779460368586715746
0.598000000000000420,-0.779050731057840951
0.599000000000000421,-0.778604167471760533
0.600000000000000422,-0.778120793741483019
0.601000000000000423,-0.777600737231497585
0.602000000000000424,-0.777044136454404510
0.603000000000000425,-0.776451140770226145
0.604000000000000425,-0.775821910088473787
0.605000000000000426,-0.775156614573105140
0.606000000000000427,-0.774455434350454719
0.607000000000000428,-0.773718559220097246
0.608000000000000429,-0.772946188368944243
0.609000000000000430,-0.772138530088350983
0.610000000000000431,-0.771295801494574329
0.611000000000000432,-0.770418228252426784
0.612000000000000433,-0.769506044302287529
0.613000000000000433,-0.768559491590509847
