# TricalciumSilicate-Wet-001_PHESCA-JS
# h[nm],U(h)[kJ/mol]
0.149999999999999994,126.922499094722596169
0.150999999999999995,124.211150298688906446
0.151999999999999996,121.836885435999690230
0.152999999999999997,119.540865433142471375
0.153999999999999998,117.240187799363837939
0.154999999999999999,114.929560651847438635
0.156000000000000000,112.629958282533152669
0.157000000000000001,110.364413584687056868
0.158000000000000002,108.148713687881155465
0.159000000000000002,105.989669189991403186
0.160000000000000003,103.886732160599990493
0.161000000000000004,101.834660614993438799
0.162000000000000005,99.826083538256781935
0.163000000000000006,97.853488855556648218
0.164000000000000007,95.910520817627272550
0.165000000000000008,93.992653019345652865
0.166000000000000009,92.097375664432092890
0.167000000000000010,90.224049126088431194
0.168000000000000010,88.373559948035094180
0.169000000000000011,86.547887643202386698
0.170000000000000012,84.749660718737473530
0.171000000000000013,82.981753244682380455
0.172000000000000014,81.246951085573940077
0.173000000000000015,79.547700094383827718
0.174000000000000016,77.885936734163180972
0.175000000000000017,76.262993965346751679
0.176000000000000018,74.679570924832376022
0.177000000000000018,73.135753073477332009
0.178000000000000019,71.631069358661150659
0.179000000000000020,70.164573921622888975
0.180000000000000021,68.734941505485807056
0.181000000000000022,67.340567642325225961
0.182000000000000023,65.979666673225025875
0.183000000000000024,64.650362524265645447
0.184000000000000025,63.350768828235594299
0.185000000000000026,62.079056398448429377
0.186000000000000026,60.833507212814879495
0.187000000000000027,59.612554961200864057
0.188000000000000028,58.414812868995284134
0.189000000000000029,57.239089964275692068
0.190000000000000030,56.084397237665413627
0.191000000000000031,54.949945285624949065
0.192000000000000032,53.835135060236630977
0.193000000000000033,52.739543299104958862
0.194000000000000034,51.662904101669539614
0.195000000000000034,50.605087972995590917
0.196000000000000035,49.566079489199886154
0.197000000000000036,48.545954562854760184
0.198000000000000037,47.544858111679879187
0.199000000000000038,46.562982766627968090
0.200000000000000039,45.600549100927764812
0.201000000000000040,44.657787722786807194
0.202000000000000041,43.734923452872344285
0.203000000000000042,42.832161703866425739
0.204000000000000042,41.949677092996864758
0.205000000000000043,41.087604248561788722
0.206000000000000044,40.246030716781987735
0.207000000000000045,39.424991834289038195
0.208000000000000046,38.624467402531593052
0.209000000000000047,37.844379981677448654
0.210000000000000048,37.084594611572853751
0.211000000000000049,36.344919764454381550
0.212000000000000050,35.625109336974546181
0.213000000000000050,34.924865496430605560
0.214000000000000051,34.243842206749775414
0.215000000000000052,33.581649272812825302
0.216000000000000053,32.937856756264849878
0.217000000000000054,32.311999631375826425
0.218000000000000055,31.703582565211853250
0.219000000000000056,31.112084721910882479
0.220000000000000057,30.536964505872219888
0.221000000000000058,29.977664172910465368
0.222000000000000058,29.433614251698799080
0.223000000000000059,28.904237730016252073
0.224000000000000060,28.388953971344971450
0.225000000000000061,27.887182337209491578
0.226000000000000062,27.398345499317468210
0.227000000000000063,26.921872433083354537
0.228000000000000064,26.457201090544721467
0.229000000000000065,26.003780756084335479
0.230000000000000066,25.561074092825055715
0.231000000000000066,25.128558891152454891
0.232000000000000067,24.705729533627238226
0.233000000000000068,24.292098192660340317
0.234000000000000069,23.887195778822160719
0.235000000000000070,23.490572658623865010
0.236000000000000071,23.101799161118155013
0.237000000000000072,22.720465892789150075
0.238000000000000073,22.346183880002524091
0.239000000000000073,21.978584557825314505
0.240000000000000074,21.617319623351939128
0.241000000000000075,21.262060770838605350
0.242000000000000076,20.912499324991529193
0.243000000000000077,20.568345787711812989
0.244000000000000078,20.229329312503789851
0.245000000000000079,19.895197119628541316
0.246000000000000080,19.565713863954265150
0.247000000000000081,19.240660966336811555
0.248000000000000081,18.919835918273133046
0.249000000000000082,18.603051568518925052
0.250000000000000111,18.290135399358000257
0.251000000000000112,17.980928799262684947
0.252000000000000113,17.675286337794783975
0.253000000000000114,17.373075047770804247
0.254000000000000115,17.074173718951435319
0.255000000000000115,16.778472206817166779
0.256000000000000116,16.485870759355940152
0.257000000000000117,16.196279364214962726
0.258000000000000118,15.909617118054669049
0.259000000000000119,15.625811619484654358
0.260000000000000120,15.344798386557339853
0.261000000000000121,15.066520299441410913
0.262000000000000122,14.790927068589363458
0.263000000000000123,14.517974728450273147
0.264000000000000123,14.247625156553638703
0.265000000000000124,13.979845617602620678
0.266000000000000125,13.714608332059043505
0.267000000000000126,13.451890068576421555
0.268000000000000127,13.191671759537266340
0.269000000000000128,12.933938138874353285
0.270000000000000129,12.678677401299410121
0.271000000000000130,12.425880882024086915
0.272000000000000131,12.175542756035635961
0.273000000000000131,11.927659755979703959
0.274000000000000132,11.682230907704607148
0.275000000000000133,11.439257282532310001
0.276000000000000134,11.198741765340143317
0.277000000000000135,10.960688837562713616
0.278000000000000136,10.725104374253112027
0.279000000000000137,10.491995454376702668
0.280000000000000138,10.261370183547441570
0.281000000000000139,10.033237528455238419
0.282000000000000139,9.807607162272528711
0.283000000000000140,9.584489320368616561
0.284000000000000141,9.363894665700303932
0.285000000000000142,9.145834163287100083
0.286000000000000143,8.930318963217814598
0.287000000000000144,8.717360291673015738
0.288000000000000145,8.506969349483537002
0.289000000000000146,8.299157217779974616
0.290000000000000147,8.093934770320164063
0.291000000000000147,7.891312592112882385
0.292000000000000148,7.691300903984147119
0.293000000000000149,7.493909492759894597
0.294000000000000150,7.299147646763256780
0.295000000000000151,7.107024096347743125
0.296000000000000152,6.917546959208779711
0.297000000000000153,6.730723690235246970
0.298000000000000154,6.546561035680317886
0.299000000000000155,6.365064991446637066
0.300000000000000155,6.186240765295449862
0.301000000000000156,6.010092742802234156
0.302000000000000157,5.836624456892624657
0.303000000000000158,5.665838560803193147
0.304000000000000159,5.497736804320426884
0.305000000000000160,5.332320013159597138
0.306000000000000161,5.169588071352217540
0.307000000000000162,5.009539906517085583
0.308000000000000163,4.852173477895453502
0.309000000000000163,4.697485767035611381
0.310000000000000164,4.545472771016337177
0.311000000000000165,4.396129498102387068
0.312000000000000166,4.249449965728235412
0.313000000000000167,4.105427200709160118
0.314000000000000168,3.964053241581130038
0.315000000000000169,3.825319142973030218
0.316000000000000170,3.689214981916744129
0.317000000000000171,3.555729866002138806
0.318000000000000171,3.424851943285794675
0.319000000000000172,3.296568413863345093
0.320000000000000173,3.170865543017006072
0.321000000000000174,3.047728675850926550
0.322000000000000175,2.927142253328219201
0.323000000000000176,2.809089829624887180
0.324000000000000177,2.693554090716927529
0.325000000000000178,2.580516874118367276
0.326000000000000179,2.469959189688950119
0.327000000000000179,2.361861241431916447
0.328000000000000180,2.256202450203375953
0.329000000000000181,2.152961477256376988
0.330000000000000182,2.052116248544352484
0.331000000000000183,1.953643979709926981
0.332000000000000184,1.857521201687052370
0.333000000000000185,1.763723786845897479
0.334000000000000186,1.672226975611788458
0.335000000000000187,1.583005403491323460
0.336000000000000187,1.496033128440581450
0.337000000000000188,1.411283658512559880
0.338000000000000189,1.328729979722589771
0.339000000000000190,1.248344584072778929
0.340000000000000191,1.170099497678654732
0.341000000000000192,1.093966308943051802
0.342000000000000193,1.019916196724670154
0.343000000000000194,0.947919958450724187
0.344000000000000195,0.877948038125555663
0.345000000000000195,0.809970554188833347
0.346000000000000196,0.743957327179688321
0.347000000000000197,0.679877907164936457
0.348000000000000198,0.617701600891952474
0.349000000000000199,0.557397498628894983
0.350000000000000200,0.498934500657103819
0.351000000000000201,0.442281343382755654
0.352000000000000202,0.387406625036907315
0.353000000000000203,0.334278830935174021
0.354000000000000203,0.282866358270364715
0.355000000000000204,0.233137540413489303
0.356000000000000205,0.185060670700456370
0.357000000000000206,0.138604025683655957
0.358000000000000207,0.093735887829854425
0.359000000000000208,0.050424567647277298
0.360000000000000209,0.008638425226740720
0.361000000000000210,-0.031654108816406491
0.362000000000000210,-0.070484513011402239
0.363000000000000211,-0.107884155322177919
0.364000000000000212,-0.143884274067018259
0.365000000000000213,-0.178515959474647989
0.366000000000000214,-0.211810135882277789
0.367000000000000215,-0.243797544579633207
0.368000000000000216,-0.274508727301817579
0.369000000000000217,-0.303974010372262238
0.370000000000000218,-0.332223489496215607
0.371000000000000218,-0.359287015203606286
0.372000000000000219,-0.385194178939377518
0.373000000000000220,-0.409974299798158470
0.374000000000000221,-0.433656411899165484
0.375000000000000222,-0.456269252396257652
0.376000000000000223,-0.477841250117418792
0.377000000000000224,-0.498400514826748520
0.378000000000000225,-0.517974827101630786
0.379000000000000226,-0.536591628816748267
0.380000000000000226,-0.554278014226267990
0.381000000000000227,-0.571060721634483071
0.382000000000000228,-0.586966125645124626
0.383000000000000229,-0.602020229978630250
0.384000000000000230,-0.616248660846387297
0.385000000000000231,-0.629676660870604588
0.386000000000000232,-0.642329083537836021
0.387000000000000233,-0.654230388174169564
0.388000000000000234,-0.665404635429452940
0.389000000000000234,-0.675875483257995180
0.390000000000000235,-0.685666183382686034
0.391000000000000236,-0.694799578229471693
0.392000000000000237,-0.703298098318852039
0.393000000000000238,-0.711183760101061657
0.394000000000000239,-0.718478164221327043
0.395000000000000240,-0.725202494201750758
0.396000000000000241,-0.731377515526159261
0.397000000000000242,-0.737023575114282181
0.398000000000000242,-0.742160601171774070
0.399000000000000243,-0.746808103402388790
0.400000000000000244,-0.750985173568900266
0.401000000000000245,-0.754710486389375657
0.402000000000000246,-0.758002300755369118
0.403000000000000247,-0.760878461258968408
0.404000000000000248,-0.763356400015568148
0.405000000000000249,-0.765453138769467412
0.406000000000000250,-0.767185291269538494
0.407000000000000250,-0.768569065902421578
0.408000000000000251,-0.769620268570827437
0.409000000000000252,-0.770354305804805350
0.410000000000000253,-0.770786188093985025
0.411000000000000254,-0.770930533429047049
0.412000000000000255,-0.770801571040885980
0.413000000000000256,-0.770413145326241500
0.414000000000000257,-0.769778719948630341
0.415000000000000258,-0.768911382103937502
0.416000000000000258,-0.767823846939971411
0.417000000000000259,-0.766528462119799081
0.418000000000000260,-0.765037212518778431
0.419000000000000261,-0.763361725045536899
0.420000000000000262,-0.761513273577365757
0.421000000000000263,-0.759502784000860465
0.422000000000000264,-0.757340839348734751
0.423000000000000265,-0.755037685024169791
0.424000000000000266,-0.752603234104285646
0.425000000000000266,-0.750047072714461693
0.426000000000000267,-0.747378465465712738
0.427000000000000268,-0.744606360947406953
0.428000000000000269,-0.741739397267963230
0.429000000000000270,-0.738785907636440031
0.430000000000000271,-0.735753925978088086
0.431000000000000272,-0.732651192577345123
0.432000000000000273,-0.729485159741830147
0.433000000000000274,-0.726262997481308625
0.434000000000000274,-0.722991599195713652
0.435000000000000275,-0.719677587366631233
0.436000000000000276,-0.716327319246864325
0.437000000000000277,-0.712946892542917210
0.438000000000000278,-0.709542151085479134
0.439000000000000279,-0.706118690483255929
0.440000000000000280,-0.702681863755602931
0.441000000000000281,-0.699236786939738786
0.442000000000000282,-0.695788344668540559
0.443000000000000282,-0.692341195714962110
0.444000000000000283,-0.688899778499555859
0.445000000000000284,-0.685468316557588109
0.446000000000000285,-0.682050823962465746
0.447000000000000286,-0.678651110702537919
0.448000000000000287,-0.675272788008199010
0.449000000000000288,-0.671919273626772728
0.450000000000000289,-0.668593797042492111
0.451000000000000290,-0.665299404639286940
0.452000000000000290,-0.662038964804160246
0.453000000000000291,-0.658815172969053342
0.454000000000000292,-0.655630556589372748
0.455000000000000293,-0.652487480057342584
0.456000000000000294,-0.649388149548634552
0.457000000000000295,-0.646334617800774502
0.458000000000000296,-0.643328788821962427
0.459000000000000297,-0.640372422529131624
0.460000000000000298,-0.637467139314116582
0.461000000000000298,-0.634614424536966371
0.462000000000000299,-0.631815632945572969
0.463000000000000300,-0.629071993020788645
0.464000000000000301,-0.626384611246485035
0.465000000000000302,-0.623754476303929106
0.466000000000000303,-0.621182463190062872
0.467000000000000304,-0.618669337259337371
0.468000000000000305,-0.616215758188819018
0.469000000000000306,-0.613822283866382046
0.470000000000000306,-0.611489374201944935
0.471000000000000307,-0.609217394861620520
0.472000000000000308,-0.607006620924948281
0.473000000000000309,-0.604857240465262902
0.474000000000000310,-0.602769358053390270
0.475000000000000311,-0.600742998184955801
0.476000000000000312,-0.598778108631601080
0.477000000000000313,-0.596874563716480067
0.478000000000000314,-0.595032167514437216
0.479000000000000314,-0.593250656977409863
0.480000000000000315,-0.591529704985486404
0.481000000000000316,-0.589868923324283534
0.482000000000000317,-0.588267865589170436
0.483000000000000318,-0.586726030017060696
0.484000000000000319,-0.585242862246416085
0.485000000000000320,-0.583817758006207721
0.486000000000000321,-0.582450065734592459
0.487000000000000322,-0.581139089128091757
0.488000000000000322,-0.579884089622048959
0.489000000000000323,-0.578684288803297586
0.490000000000000324,-0.577538870755807787
0.491000000000000325,-0.576446984340267532
0.492000000000000326,-0.575407745408451965
0.493000000000000327,-0.574420238953370244
0.494000000000000328,-0.573483521196059054
0.495000000000000329,-0.572596621610056533
0.496000000000000330,-0.571758544884435116
0.497000000000000330,-0.570968272826493317
0.498000000000000331,-0.570224766204946665
0.499000000000000332,-0.569526966534773749
0.500000000000000333,-0.568873797804622883
0.501000000000000334,-0.568264168147793347
0.502000000000000335,-0.567696971457880339
0.503000000000000336,-0.567171088950022662
0.504000000000000337,-0.566685390668831390
0.505000000000000338,-0.566238736943992849
0.506000000000000338,-0.565829979794581162
0.507000000000000339,-0.565457964283112458
0.508000000000000340,-0.565121529820321267
0.509000000000000341,-0.564819511421759457
0.510000000000000342,-0.564550740917124538
0.511000000000000343,-0.564314048113430666
0.512000000000000344,-0.564108261912953379
0.513000000000000345,-0.563932211386975579
0.514000000000000346,-0.563784726806360825
0.515000000000000346,-0.563664640629874314
0.516000000000000347,-0.563570788451263960
0.517000000000000348,-0.563502009906109325
0.518000000000000349,-0.563457149539313473
0.519000000000000350,-0.563435057634282588
0.520000000000000351,-0.563434591004652430
0.521000000000000352,-0.563454613749587496
0.522000000000000353,-0.563493997973460115
0.523000000000000353,-0.563551624470936319
0.524000000000000354,-0.563626383378290408
0.525000000000000355,-0.563717174791872333
0.526000000000000356,-0.563822909354578017
0.527000000000000357,-0.563942508811241972
0.528000000000000358,-0.564074906533724496
0.529000000000000359,-0.564219048016624702
0.530000000000000360,-0.564373891344354561
0.531000000000000361,-0.564538407630477801
0.532000000000000361,-0.564711581430048293
0.533000000000000362,-0.564892411125779703
0.534000000000000363,-0.565079909288791482
0.535000000000000364,-0.565273103014736877
0.536000000000000365,-0.565471034236002423
0.537000000000000366,-0.565672760010790476
0.538000000000000367,-0.565877352789717181
0.539000000000000368,-0.566083900660748096
0.540000000000000369,-0.566291507573051245
0.541000000000000369,-0.566499293540561721
0.542000000000000370,-0.566706394825815751
0.543000000000000371,-0.566911964104824029
0.544000000000000372,-0.567115170613539110
0.545000000000000373,-0.567315200276601206
0.546000000000000374,-0.567511255818954230
0.547000000000000375,-0.567702556860938623
0.548000000000000376,-0.567888339997475122
0.549000000000000377,-0.568067858861881714
0.550000000000000377,-0.568240384174927171
0.551000000000000378,-0.568405203779637214
0.552000000000000379,-0.568561622662436372
0.553000000000000380,-0.568708962961113285
0.554000000000000381,-0.568846563960137219
0.555000000000000382,-0.568973782073876611
0.556000000000000383,-0.569089990818104074
0.557000000000000384,-0.569194580770410186
0.558000000000000385,-0.569286959519844871
0.559000000000000385,-0.569366551606370619
0.560000000000000386,-0.569432798450496658
0.561000000000000387,-0.569485158273543624
0.562000000000000388,-0.569523106008973934
0.563000000000000389,-0.569546133205198202
0.564000000000000390,-0.569553747920240716
0.565000000000000391,-0.569545474608670554
0.566000000000000392,-0.569520854001163590
0.567000000000000393,-0.569479442977100958
0.568000000000000393,-0.569420814430498190
0.569000000000000394,-0.569344557129669360
0.570000000000000395,-0.569250275570954978
0.571000000000000396,-0.569137589826806733
0.572000000000000397,-0.569006135388613776
0.573000000000000398,-0.568855563004502907
0.574000000000000399,-0.568685538512488931
0.575000000000000400,-0.568495742669213655
0.576000000000000401,-0.568285870974563179
0.577000000000000401,-0.568055633492493106
0.578000000000000402,-0.567804754668245537
0.579000000000000403,-0.567532973142254371
0.580000000000000404,-0.567240041561031139
0.581000000000000405,-0.566925726385175244
0.582000000000000406,-0.566589807694844239
0.583000000000000407,-0.566232078992833787
0.584000000000000408,-0.565852347005530776
0.585000000000000409,-0.565450431481932081
0.586000000000000409,-0.565026164990927171
0.587000000000000410,-0.564579392717079798
0.588000000000000411,-0.564109972255020464
0.589000000000000412,-0.563617773402741551
0.590000000000000413,-0.563102677953860264
0.591000000000000414,-0.562564579489102212
0.592000000000000415,-0.562003383167135051
0.593000000000000416,-0.561419005514901426
0.594000000000000417,-0.560811374217621950
0.595000000000000417,-0.560180427908635425
0.596000000000000418,-0.559526115959128045
0.597000000000000419,-0.558848398268023239
0.598000000000000420,-0.558147245052016627
0.599000000000000421,-0.557422636636003999
0.600000000000000422,-0.556674563243939158
0.601000000000000423,-0.555903024790261102
0.602000000000000424,-0.555108030672020192
0.603000000000000425,-0.554289599561788693
0.604000000000000425,-0.553447759201430300
0.605000000000000426,-0.552582546196880076
0.606000000000000427,-0.551694005813999078
0.607000000000000428,-0.550782191775535224
0.608000000000000429,-0.549847166059416081
0.609000000000000430,-0.548888998698256914
0.610000000000000431,-0.547907767580353644
0.611000000000000432,-0.546903558252083033
0.612000000000000433,-0.545876463721851279
0.613000000000000433,-0.544826584265651781
0.614000000000000434,-0.543754027234265136
