# TricalciumSilicate-Wet-001_CS-218-AC
# h[nm],U(h)[kJ/mol]
0.149999999999999994,53.358258908355445271
0.150999999999999995,51.663900678559642188
0.151999999999999996,50.432985189695628492
0.152999999999999997,49.282365489057255559
0.153999999999999998,48.084343371927978694
0.154999999999999999,46.826896327476866588
0.156000000000000000,45.539632874027056175
0.157000000000000001,44.258005410302260429
0.158000000000000002,43.008776553391363962
0.159000000000000002,41.806493579658557280
0.160000000000000003,40.655016742155659415
0.161000000000000004,39.550814702054992722
0.162000000000000005,38.486353571102007720
0.163000000000000006,37.452846047223118831
0.164000000000000007,36.442145947767791370
0.165000000000000008,35.447835838550453502
0.166000000000000009,34.465667383617301311
0.167000000000000010,33.493542321924188343
0.168000000000000010,32.531207678709584741
0.169000000000000011,31.579806306216124057
0.170000000000000012,30.641386853966430692
0.171000000000000013,29.718442918518320539
0.172000000000000014,28.813522565754304594
0.173000000000000015,27.928927520793337180
0.174000000000000016,27.066505728477334713
0.175000000000000017,26.227530780680030631
0.176000000000000018,25.412655779841749393
0.177000000000000018,24.621926481086763516
0.178000000000000019,23.854838077479382008
0.179000000000000020,23.110420983437872877
0.180000000000000021,22.387342822224688632
0.181000000000000022,21.684016084620473919
0.182000000000000023,20.998703281046012137
0.183000000000000024,20.329613650035973649
0.184000000000000025,19.674987486795068037
0.185000000000000026,19.033165852831558595
0.186000000000000026,18.402644801158309917
0.187000000000000027,17.782114310236334376
0.188000000000000028,17.170482890771545215
0.189000000000000029,16.566889349615383509
0.190000000000000030,15.970703505330039462
0.191000000000000031,15.381517791438440668
0.192000000000000032,14.799131694401566506
0.193000000000000033,14.223530888302430952
0.194000000000000034,13.654862776636921495
0.195000000000000034,13.093409958112625091
0.196000000000000035,12.539562917745438853
0.197000000000000036,11.993793022223201206
0.198000000000000037,11.456626680995153578
0.199000000000000038,10.928621330039144155
0.200000000000000039,10.410343709187113603
0.201000000000000040,9.902350739450616501
0.202000000000000041,9.405173165430040783
0.203000000000000042,8.919302009728792058
0.204000000000000042,8.445177790472062185
0.205000000000000043,7.983182378023650827
0.206000000000000044,7.533633310846764353
0.207000000000000045,7.096780350977391905
0.208000000000000046,6.672804034491742975
0.209000000000000047,6.261815959398843390
0.210000000000000048,5.863860550422625550
0.211000000000000049,5.478918045160556360
0.212000000000000050,5.106908457309349281
0.213000000000000050,4.747696288436124235
0.214000000000000051,4.401095778754195997
0.215000000000000052,4.066876508357720965
0.216000000000000053,3.744769182394067197
0.217000000000000054,3.434471455905041104
0.218000000000000055,3.135653675911712401
0.219000000000000056,2.847964439262958614
0.220000000000000057,2.571035884450895814
0.221000000000000058,2.304488653768312467
0.222000000000000058,2.047936478679315275
0.223000000000000059,1.800990356015803373
0.224000000000000060,1.563262295574005201
0.225000000000000061,1.334368630896368035
0.226000000000000062,1.113932894549240604
0.227000000000000063,0.901588267138985322
0.228000000000000064,0.696979615761497806
0.229000000000000065,0.499765142676762697
0.230000000000000066,0.309617668875008356
0.231000000000000066,0.126225579986317837
0.232000000000000067,-0.050706536183809978
0.233000000000000068,-0.221457530207485709
0.234000000000000069,-0.386289579092065960
0.235000000000000070,-0.545448291550528097
0.236000000000000071,-0.699163000969695192
0.237000000000000072,-0.847647217727829805
0.238000000000000073,-0.991099213981869731
0.239000000000000073,-1.129702715739141716
0.240000000000000074,-1.263627678882258465
0.241000000000000075,-1.393031127769110311
0.242000000000000076,-1.518058037033642726
0.243000000000000077,-1.638842239224927111
0.244000000000000078,-1.755507342906733381
0.245000000000000079,-1.868167647769081841
0.246000000000000080,-1.976929045154488307
0.247000000000000081,-2.081889894157636256
0.248000000000000081,-2.183141865104599955
0.249000000000000082,-2.280770743748286922
0.250000000000000111,-2.374857190924772432
0.251000000000000112,-2.465477453697894283
0.252000000000000113,-2.552704025177614522
0.253000000000000114,-2.636606251231477849
0.254000000000000115,-2.717250883223904179
0.255000000000000115,-2.794702576717313924
0.256000000000000116,-2.869024336760046090
0.257000000000000117,-2.940277910973960740
0.258000000000000118,-3.008524132146753516
0.259000000000000119,-3.073823212438058672
0.260000000000000120,-3.136234991631370317
0.261000000000000121,-3.195819142112925171
0.262000000000000122,-3.252635333441973753
0.263000000000000123,-3.306743359500477375
0.264000000000000123,-3.358203231281915002
0.265000000000000124,-3.407075238404236650
0.266000000000000125,-3.453419982417928136
0.267000000000000126,-3.497298384931678328
0.268000000000000127,-3.538771673501182935
0.269000000000000128,-3.577901348125602343
0.270000000000000129,-3.614749131075794431
0.271000000000000130,-3.649376902642806897
0.272000000000000131,-3.681846625247656934
0.273000000000000131,-3.712220258197556966
0.274000000000000132,-3.740559665212363605
0.275000000000000133,-3.766926516680675796
0.276000000000000134,-3.791382188439838874
0.277000000000000135,-3.813987658710021655
0.278000000000000136,-3.834803404651405234
0.279000000000000137,-3.853889299856319006
0.280000000000000138,-3.871304513936311142
0.281000000000000139,-3.887107415218550521
0.282000000000000139,-3.901355477427105534
0.283000000000000140,-3.914105191093450564
0.284000000000000141,-3.925411980316972027
0.285000000000000142,-3.935330125381040656
0.286000000000000143,-3.943912691623014499
0.287000000000000144,-3.951211464857652178
0.288000000000000145,-3.957276893563042908
0.289000000000000146,-3.962158037955255452
0.290000000000000147,-3.965902526003672879
0.291000000000000147,-3.968556516371570808
0.292000000000000148,-3.970164668207233571
0.293000000000000149,-3.970770117657968168
0.294000000000000150,-3.970414460933537892
0.295000000000000151,-3.969137743705933197
0.296000000000000152,-3.966978456598517333
0.297000000000000153,-3.963973536489548533
0.298000000000000154,-3.960158373331849280
0.299000000000000155,-3.955566822172253527
0.300000000000000155,-3.950231220040388624
0.301000000000000156,-3.944182407366496168
0.302000000000000157,-3.937449753581662826
0.303000000000000158,-3.930061186550802610
0.304000000000000159,-3.922043225488701435
0.305000000000000160,-3.913421017011908365
0.306000000000000161,-3.904218373984194468
0.307000000000000162,-3.894457816820219964
0.308000000000000163,-3.884160616920605769
0.309000000000000163,-3.873346841921939010
0.310000000000000164,-3.862035402456591271
0.311000000000000165,-3.850244100129727620
0.312000000000000166,-3.837989676434372832
0.313000000000000167,-3.825287862339277645
0.314000000000000168,-3.812153428299008162
0.315000000000000169,-3.798600234450449253
0.316000000000000170,-3.784641280775135730
0.317000000000000171,-3.770288757021915238
0.318000000000000171,-3.755554092199618221
0.319000000000000172,-3.740448003464519555
0.320000000000000173,-3.724980544242091351
0.321000000000000174,-3.709161151437165849
0.322000000000000175,-3.692998691600743566
0.323000000000000176,-3.676501505935541925
0.324000000000000177,-3.659677454035568100
0.325000000000000178,-3.642533956267914874
0.326000000000000179,-3.625078034717267084
0.327000000000000179,-3.607316352625272948
0.328000000000000180,-3.589255252268107821
0.329000000000000181,-3.570900791226306215
0.330000000000000182,-3.552258777010599999
0.331000000000000183,-3.533334800017255528
0.332000000000000184,-3.514134264794916085
0.333000000000000185,-3.494662419613342674
0.334000000000000186,-3.474924384331972593
0.335000000000000187,-3.454925176573309109
0.336000000000000187,-3.434669736212679680
0.337000000000000188,-3.414162948201735048
0.338000000000000189,-3.393409663748645499
0.339000000000000190,-3.372414719882738776
0.340000000000000191,-3.351182957435719256
0.341000000000000192,-3.329719237475765592
0.342000000000000193,-3.308028456233967241
0.343000000000000194,-3.286115558565979367
0.344000000000000195,-3.263985549994120383
0.345000000000000195,-3.241643507377693023
0.346000000000000196,-3.219094588260961842
0.347000000000000197,-3.196344038949981758
0.348000000000000198,-3.173397201370629084
0.349000000000000199,-3.150259518761084898
0.350000000000000200,-3.126936540252816421
0.351000000000000201,-3.103433924394379595
0.352000000000000202,-3.079757441672559715
0.353000000000000203,-3.055912976085365607
0.354000000000000203,-3.031906525821059795
0.355000000000000204,-3.007744203096954116
0.356000000000000205,-2.983432233211149143
0.357000000000000206,-2.958976952859597720
0.358000000000000207,-2.934384807769858661
0.359000000000000208,-2.909662349702066386
0.360000000000000209,-2.884816232866352692
0.361000000000000210,-2.859853209804756879
0.362000000000000210,-2.834780126784374410
0.363000000000000211,-2.809603918747060280
0.364000000000000212,-2.784331603859589777
0.365000000000000213,-2.758970277706638718
0.366000000000000214,-2.733527107167428305
0.367000000000000215,-2.708009324015294261
0.368000000000000216,-2.682424218277877692
0.369000000000000217,-2.656779131393935067
0.370000000000000218,-2.631081449201273958
0.371000000000000218,-2.605338594788557227
0.372000000000000219,-2.579558021242218224
0.373000000000000220,-2.553747204318061570
0.374000000000000221,-2.527913635065540454
0.375000000000000222,-2.502064812431112006
0.376000000000000223,-2.476208235865569485
0.377000000000000224,-2.450351397958682842
0.378000000000000225,-2.424501777122989754
0.379000000000000226,-2.398666830347115031
0.380000000000000226,-2.372853986037650742
0.381000000000000227,-2.347070636967056423
0.382000000000000228,-2.321324133343923179
0.383000000000000229,-2.295621776020459137
0.384000000000000230,-2.269970809850839100
0.385000000000000231,-2.244378417212926635
0.386000000000000232,-2.218851711704527219
0.387000000000000233,-2.193397732024385594
0.388000000000000234,-2.168023436046866870
0.389000000000000234,-2.142735695098428206
0.390000000000000235,-2.117541288442747582
0.391000000000000236,-2.092446897980648313
0.392000000000000237,-2.067459103169889456
0.393000000000000238,-2.042584376169123583
0.394000000000000239,-2.017829077209427613
0.395000000000000240,-1.993199450196106781
0.396000000000000241,-1.968701618542694209
0.397000000000000242,-1.944341581238345551
0.398000000000000242,-1.920125209149276868
0.399000000000000243,-1.896058241554148038
0.400000000000000244,-1.872146282912795057
0.401000000000000245,-1.848394799867212779
0.402000000000000246,-1.824809118473075698
0.403000000000000247,-1.801394421659696210
0.404000000000000248,-1.778155746915897506
0.405000000000000249,-1.755097984198827232
0.406000000000000250,-1.732225874062398585
0.407000000000000250,-1.709544006001718852
0.408000000000000251,-1.687056817009513932
0.409000000000000252,-1.664768590340361953
0.410000000000000253,-1.642683454478175875
0.411000000000000254,-1.620805382302280107
0.412000000000000255,-1.599138190447112695
0.413000000000000256,-1.577685538850505775
0.414000000000000257,-1.556450930485223205
0.415000000000000258,-1.535437711268448080
0.416000000000000258,-1.514649070143659459
0.417000000000000259,-1.494088039329337203
0.418000000000000260,-1.473757494728817674
0.419000000000000261,-1.453660156495562905
0.420000000000000262,-1.433798589748087826
0.421000000000000263,-1.414175205428755522
0.422000000000000264,-1.394792261300597191
0.423000000000000265,-1.375651863076366999
0.424000000000000266,-1.356755965674069309
0.425000000000000266,-1.338106374593118764
0.426000000000000267,-1.319704747405457734
0.427000000000000268,-1.301552595355912612
0.428000000000000269,-1.283651285066159442
0.429000000000000270,-1.266002040336748014
0.430000000000000271,-1.248605944041652815
0.431000000000000272,-1.231463940109968735
0.432000000000000273,-1.214576835589390225
0.433000000000000274,-1.197945302786260990
0.434000000000000274,-1.181569881477022133
0.435000000000000275,-1.165450981186041179
0.436000000000000276,-1.149588883524890637
0.437000000000000277,-1.133983744588217046
0.438000000000000278,-1.118635597401535842
0.439000000000000279,-1.103544354416341022
0.440000000000000280,-1.088709810048046123
0.441000000000000281,-1.074131643252406842
0.442000000000000282,-1.059809420136230695
0.443000000000000282,-1.045742596598203678
0.444000000000000283,-1.031930520995923306
0.445000000000000284,-1.018372436835244255
0.446000000000000285,-1.005067485478194689
0.447000000000000286,-0.992014708865939121
0.448000000000000287,-0.979213052253204763
0.449000000000000288,-0.966661366950927414
0.450000000000000289,-0.954358413073819634
0.451000000000000290,-0.942302862289803533
0.452000000000000290,-0.930493300568324022
0.453000000000000291,-0.918928230924678013
0.454000000000000292,-0.907606076157653319
0.455000000000000293,-0.896525181577837449
0.456000000000000294,-0.885683817724125633
0.457000000000000295,-0.875080183066032746
0.458000000000000296,-0.864712406689559510
0.459000000000000297,-0.854578550964447126
0.460000000000000298,-0.844676614190791986
0.461000000000000298,-0.835004533223067114
0.462000000000000299,-0.825560186069751900
0.463000000000000300,-0.816341394466804537
0.464000000000000301,-0.807345926423387539
0.465000000000000302,-0.798571498738304131
0.466000000000000303,-0.790015779485716774
0.467000000000000304,-0.781676390468798998
0.468000000000000305,-0.773550909640109308
0.469000000000000306,-0.765636873487482217
0.470000000000000306,-0.757931779384414361
0.471000000000000307,-0.750433087903907059
0.472000000000000308,-0.743138225094907678
0.473000000000000309,-0.736044584720484063
0.474000000000000310,-0.729149530456989825
0.475000000000000311,-0.722450398053551601
0.476000000000000312,-0.715944497451262984
0.477000000000000313,-0.709629114861530574
0.478000000000000314,-0.703501514803117622
0.479000000000000314,-0.697558942097472490
0.480000000000000315,-0.691798623821969549
0.481000000000000316,-0.686217771220808292
0.482000000000000317,-0.680813581573297522
0.483000000000000318,-0.675583240019375530
0.484000000000000319,-0.670523921342210838
0.485000000000000320,-0.665632791707832072
0.486000000000000321,-0.660907010361735381
0.487000000000000322,-0.656343731282487353
0.488000000000000322,-0.651940104792381292
0.489000000000000323,-0.647693279125254984
0.490000000000000324,-0.643600401951592849
0.491000000000000325,-0.639658621861103893
0.492000000000000326,-0.635865089802960637
0.493000000000000327,-0.632216960483979240
0.494000000000000328,-0.628711393724983525
0.495000000000000329,-0.625345555775685735
0.496000000000000330,-0.622116620588391234
0.497000000000000330,-0.619021771050923264
0.498000000000000331,-0.616058200179114168
0.499000000000000332,-0.613223112269311033
0.500000000000000333,-0.610513724011301662
0.501000000000000334,-0.607927265562122510
0.502000000000000335,-0.605460981581223523
0.503000000000000336,-0.603112132227473952
0.504000000000000337,-0.600877994118518721
0.505000000000000338,-0.598755861253002286
0.506000000000000338,-0.596743045896201196
0.507000000000000339,-0.594836879429606058
0.508000000000000340,-0.593034713165017657
0.509000000000000341,-0.591333919123728124
0.510000000000000342,-0.589731890781355572
0.511000000000000343,-0.588226043778935503
0.512000000000000344,-0.586813816600851856
0.513000000000000345,-0.585492671220209426
0.514000000000000346,-0.584260093712269724
0.515000000000000346,-0.583113594836537574
0.516000000000000347,-0.582050710588128295
0.517000000000000348,-0.581069002719048155
0.518000000000000349,-0.580166059229965114
0.519000000000000350,-0.579339494833141400
0.520000000000000351,-0.578586951387121351
0.521000000000000352,-0.577906098303807680
0.522000000000000353,-0.577294632928539331
0.523000000000000353,-0.576750280893809752
0.524000000000000354,-0.576270796447230005
0.525000000000000355,-0.575853962754364401
0.526000000000000356,-0.575497592177043771
0.527000000000000357,-0.575199526527781613
0.528000000000000358,-0.574957637300895108
0.529000000000000359,-0.574769825880926399
0.530000000000000360,-0.574634023728983534
0.531000000000000361,-0.574548192547581382
0.532000000000000361,-0.574510324424575725
0.533000000000000362,-0.574518441956780590
0.534000000000000363,-0.574570598353840167
0.535000000000000364,-0.574664877522934381
0.536000000000000365,-0.574799394134877462
0.537000000000000366,-0.574972293672179058
0.538000000000000367,-0.575181752459604234
0.539000000000000368,-0.575425977677805234
0.540000000000000369,-0.575703207360528268
0.541000000000000369,-0.576011710375958330
0.542000000000000370,-0.576349786392706620
0.543000000000000371,-0.576715765830958849
0.544000000000000372,-0.577108009799300548
0.545000000000000373,-0.577524910017708892
0.546000000000000374,-0.577964888727208193
0.547000000000000375,-0.578426398586667223
0.548000000000000376,-0.578907922557226007
0.549000000000000377,-0.579407973774801799
0.550000000000000377,-0.579925095411140790
0.551000000000000378,-0.580457860523871272
0.552000000000000379,-0.581004871895985042
0.553000000000000380,-0.581564761865196345
0.554000000000000381,-0.582136192143585141
0.555000000000000382,-0.582717853627962690
0.556000000000000383,-0.583308466201334586
0.557000000000000384,-0.583906778525899006
0.558000000000000385,-0.584511567827934675
0.559000000000000385,-0.585121639674985206
0.560000000000000386,-0.585735827745695992
0.561000000000000387,-0.586352993592681115
0.562000000000000388,-0.586972026398767222
0.563000000000000389,-0.587591842726973068
0.564000000000000390,-0.588211386264548386
0.565000000000000391,-0.588829627561421987
0.566000000000000392,-0.589445563763368541
0.567000000000000393,-0.590058218340221208
0.568000000000000393,-0.590666640809421439
0.569000000000000394,-0.591269906455227479
0.570000000000000395,-0.591867116043853225
0.571000000000000396,-0.592457395534828790
0.572000000000000397,-0.593039895788871618
0.573000000000000398,-0.593613792272509100
0.574000000000000399,-0.594178284759746100
0.575000000000000400,-0.594732597031006227
0.576000000000000401,-0.595275976569604071
0.577000000000000401,-0.595807694255993114
0.578000000000000402,-0.596327044060015021
0.579000000000000403,-0.596833342731368566
0.580000000000000404,-0.597325929488540686
0.581000000000000405,-0.597804165706384949
0.582000000000000406,-0.598267434602569148
0.583000000000000407,-0.598715140923089639
0.584000000000000408,-0.599146710627038948
0.585000000000000409,-0.599561590570815595
0.586000000000000409,-0.599959248191959893
0.587000000000000410,-0.600339171192788235
0.588000000000000411,-0.600700867223984858
0.589000000000000412,-0.601043863568335390
0.590000000000000413,-0.601367706824728510
0.591000000000000414,-0.601671962592605691
0.592000000000000415,-0.601956215156985719
0.593000000000000416,-0.602220067174211171
0.594000000000000417,-0.602463139358549116
0.595000000000000417,-0.602685070169784232
0.596000000000000418,-0.602885515501909830
0.597000000000000419,-0.603064148373060882
0.598000000000000420,-0.603220658616781757
0.599000000000000421,-0.603354752574754238
0.600000000000000422,-0.603466152791085508
0.601000000000000423,-0.603554597708250262
0.602000000000000424,-0.603619841364795739
0.603000000000000425,-0.603661653094902495
0.604000000000000425,-0.603679817229866300
0.605000000000000426,-0.603674132801613306
0.606000000000000427,-0.603644413248320744
0.607000000000000428,-0.603590486122194347
0.608000000000000429,-0.603512192799525393
0.609000000000000430,-0.603409388193032137
0.610000000000000431,-0.603281940466614985
0.611000000000000432,-0.603129730752534732
0.612000000000000433,-0.602952652871096562
0.613000000000000433,-0.602750613052902451
