# TricalciumSilicate-Wet-001_CS-13835861-AC
# h[nm],U(h)[kJ/mol]
0.149999999999999994,153.737533937572607101
0.150999999999999995,151.112978105803847484
0.151999999999999996,148.291647090858248248
0.152999999999999997,145.474084806064439590
0.153999999999999998,142.725629300080811390
0.154999999999999999,140.050869945671877304
0.156000000000000000,137.432851593677327173
0.157000000000000001,134.851894610907805827
0.158000000000000002,132.293170654033502842
0.159000000000000002,129.748499786011223023
0.160000000000000003,127.215518951998362240
0.161000000000000004,124.695944148693982356
0.162000000000000005,122.193793088740648045
0.163000000000000006,119.713941987479458362
0.164000000000000007,117.261121456509300742
0.165000000000000008,114.839323053984429635
0.166000000000000009,112.451532889045850538
0.167000000000000010,110.099696289390209358
0.168000000000000010,107.784826364480593952
0.169000000000000011,105.507186746482460649
0.170000000000000012,103.266497923021503880
0.171000000000000013,101.062133904740093726
0.172000000000000014,98.893290055127394567
0.173000000000000015,96.759113454928325382
0.174000000000000016,94.658794472271551967
0.175000000000000017,92.591622810858893899
0.176000000000000018,90.557013823965149868
0.177000000000000018,88.554511885596184584
0.178000000000000019,86.583777591493827686
0.179000000000000020,84.644564912352365127
0.180000000000000021,82.736693434373918876
0.181000000000000022,80.860019708681761585
0.182000000000000023,79.014410632438554671
0.183000000000000024,77.199720787941842559
0.184000000000000025,75.415774818239540878
0.185000000000000026,73.662355236915686874
0.186000000000000026,71.939195554242729713
0.187000000000000027,70.245978238416540762
0.188000000000000028,68.582336798909778963
0.189000000000000029,66.947861156142309369
0.190000000000000030,65.342105424518081236
0.191000000000000031,63.764597262767019004
0.192000000000000032,62.214848017274150038
0.193000000000000033,60.692362984396211800
0.194000000000000034,59.196651233411543558
0.195000000000000034,57.727234552344370400
0.196000000000000035,56.283655196699420742
0.197000000000000036,54.865482230658315643
0.198000000000000037,53.472316347952961735
0.199000000000000038,52.103793143422159062
0.200000000000000039,50.759584875366783763
0.201000000000000040,49.439400813347759822
0.202000000000000041,48.142986306782390216
0.203000000000000042,46.870120737790628596
0.204000000000000042,45.620614538693601503
0.205000000000000043,44.394305461975747562
0.206000000000000044,43.191054290011877015
0.207000000000000045,42.010740165013167768
0.208000000000000046,40.853255707930614449
0.209000000000000047,39.718502079803876370
0.210000000000000048,38.606384121437187673
0.211000000000000049,37.516805688329029067
0.212000000000000050,36.449665278325497297
0.213000000000000050,35.404852030199577939
0.214000000000000051,34.382242152818193404
0.215000000000000052,33.381695827160555723
0.216000000000000053,32.403054607488904537
0.217000000000000054,31.446139333637169955
0.218000000000000055,30.510748553788403115
0.219000000000000056,29.596657446292926608
0.220000000000000057,28.703617220017985545
0.221000000000000058,27.831354965359775377
0.222000000000000058,26.979573922284959764
0.223000000000000059,26.147954127492532450
0.224000000000000060,25.336153399854925539
0.225000000000000061,24.543808621569340289
0.226000000000000062,23.770537271779115684
0.227000000000000063,23.015939169661322694
0.228000000000000064,22.279598384983117398
0.229000000000000065,21.561085275765073277
0.230000000000000066,20.859958614835498736
0.231000000000000066,20.175767769593953460
0.232000000000000067,19.508054902124840169
0.233000000000000068,18.856357159817083158
0.234000000000000069,18.220208829773078207
0.235000000000000070,17.599143433457815178
0.236000000000000071,16.992695741188068581
0.237000000000000072,16.400403689139377406
0.238000000000000073,15.821810184516769127
0.239000000000000073,15.256464787360229707
0.240000000000000074,14.703925260109997453
0.241000000000000075,14.163758978527090093
0.242000000000000076,13.635544199833166346
0.243000000000000077,13.118871185997088347
0.244000000000000078,12.613343181949399963
0.245000000000000079,12.118577250151627567
0.246000000000000080,11.634204964389470049
0.247000000000000081,11.159872966902563363
0.248000000000000081,10.695243394019881222
0.249000000000000082,10.239994176346902677
0.250000000000000111,9.793819220260765235
0.251000000000000112,9.356428478025183182
0.252000000000000113,8.927547914248656014
0.253000000000000114,8.506919376694193957
0.254000000000000115,8.094300379613303065
0.255000000000000115,7.689463807839949538
0.256000000000000116,7.292197549848935978
0.257000000000000117,6.902304067872077731
0.258000000000000118,6.519599912985327705
0.259000000000000119,6.143915192839870087
0.260000000000000120,5.775092999420926354
0.261000000000000121,5.412988803889389189
0.262000000000000122,5.057469825199222058
0.263000000000000123,4.708414378798679856
0.264000000000000123,4.365711211319388774
0.265000000000000124,4.029258826743413735
0.266000000000000125,3.698964809117220032
0.267000000000000126,3.374745146460501388
0.268000000000000127,3.056523560098490133
0.269000000000000128,2.744230843235488937
0.270000000000000129,2.437804212184897512
0.271000000000000130,2.137186673281593841
0.272000000000000131,1.842326408127975101
0.273000000000000131,1.553176179466060569
0.274000000000000132,1.269692759627597534
0.275000000000000133,0.991836383191521120
0.276000000000000134,0.719570225175369504
0.277000000000000135,0.452859905804671725
0.278000000000000136,0.191673022640578200
0.279000000000000137,-0.064021289396703554
0.280000000000000138,-0.314252769794319875
0.281000000000000139,-0.559050415892992758
0.282000000000000139,-0.798442838087668472
0.283000000000000140,-1.032458587024172703
0.284000000000000141,-1.261126453182283225
0.285000000000000142,-1.484475739367931313
0.286000000000000143,-1.702536506753367096
0.287000000000000144,-1.915339795204613393
0.288000000000000145,-2.122917818722729777
0.289000000000000146,-2.325304136897418772
0.290000000000000147,-2.522533803332944746
0.291000000000000147,-2.714643492054158891
0.292000000000000148,-2.901671602939102534
0.293000000000000149,-3.083658347251951426
0.294000000000000150,-3.260645814369284690
0.295000000000000151,-3.432678020803105134
0.296000000000000152,-3.599800942626930400
0.297000000000000153,-3.762062532407582260
0.298000000000000154,-3.919512721735470162
0.299000000000000155,-4.072203410430902615
0.300000000000000155,-4.220188443484093277
0.301000000000000156,-4.363523576762199596
0.302000000000000157,-4.502266432489477666
0.303000000000000158,-4.636476445475468111
0.304000000000000159,-4.766214801033286541
0.305000000000000160,-4.891544365494349123
0.306000000000000161,-5.012529610189136342
0.307000000000000162,-5.129236529725153204
0.308000000000000163,-5.241732555353850742
0.309000000000000163,-5.350086464178528622
0.310000000000000164,-5.454368284914953513
0.311000000000000165,-5.554649200876012216
0.312000000000000166,-5.651001450811715010
0.313000000000000167,-5.743498228195972999
0.314000000000000168,-5.832213579512256274
0.315000000000000169,-5.917222302051822425
0.316000000000000170,-5.998599841700537283
0.317000000000000171,-6.076422191153392660
0.318000000000000171,-6.150765788960251612
0.319000000000000172,-6.221707419772068093
0.320000000000000173,-6.289324116123157893
0.321000000000000174,-6.353693062053353380
0.322000000000000175,-6.414891498843164008
0.323000000000000176,-6.472996633105663200
0.324000000000000177,-6.528085547450956483
0.325000000000000178,-6.580235113912334732
0.326000000000000179,-6.629521910298345588
0.327000000000000179,-6.676022139610862105
0.328000000000000180,-6.719811552646942410
0.329000000000000181,-6.760965373881326457
0.330000000000000182,-6.799558230706230333
0.331000000000000183,-6.835664086087183122
0.332000000000000184,-6.869356174675898430
0.333000000000000185,-6.900706942405564703
0.334000000000000186,-6.929787989579009988
0.335000000000000187,-6.956670017446505483
0.336000000000000187,-6.981422778257668327
0.337000000000000188,-7.004115028760031336
0.338000000000000189,-7.024814487106937122
0.339000000000000190,-7.043587793127619179
0.340000000000000191,-7.060500471903658593
0.341000000000000192,-7.075616900588914682
0.342000000000000193,-7.089000278402501465
0.343000000000000194,-7.100712599719090967
0.344000000000000195,-7.110814630174819406
0.345000000000000195,-7.119365885703285990
0.346000000000000196,-7.126424614411591918
0.347000000000000197,-7.132047781203506354
0.348000000000000198,-7.136291055054075017
0.349000000000000199,-7.139208798837664460
0.350000000000000200,-7.140854061610224512
0.351000000000000201,-7.141278573244894012
0.352000000000000202,-7.140532741319765009
0.353000000000000203,-7.138665650156073461
0.354000000000000203,-7.135725061905290545
0.355000000000000204,-7.131757419583722779
0.356000000000000205,-7.126807851954273687
0.357000000000000206,-7.120920180155823509
0.358000000000000207,-7.114136925981706661
0.359000000000000208,-7.106499321710671779
0.360000000000000209,-7.098047321395074327
0.361000000000000210,-7.088819613512860940
0.362000000000000210,-7.078853634892153579
0.363000000000000211,-7.068185585819145800
0.364000000000000212,-7.056850446242494357
0.365000000000000213,-7.044881992989550312
0.366000000000000214,-7.032312817912462322
0.367000000000000215,-7.019174346884500260
0.368000000000000216,-7.005496859569758428
0.369000000000000217,-6.991309509891782348
0.370000000000000218,-6.976640347129615449
0.371000000000000218,-6.961516337572133395
0.372000000000000219,-6.945963386664527839
0.373000000000000220,-6.930006361583345154
0.374000000000000221,-6.913669114179191055
0.375000000000000222,-6.896974504228836622
0.376000000000000223,-6.879944422941349558
0.377000000000000224,-6.862599816665193586
0.378000000000000225,-6.844960710746013532
0.379000000000000226,-6.827046233487306992
0.380000000000000226,-6.808874640168824044
0.381000000000000227,-6.790463337079662764
0.382000000000000228,-6.771828905525869580
0.383000000000000229,-6.752987125774367883
0.384000000000000230,-6.733953000897362706
0.385000000000000231,-6.714740780483886340
0.386000000000000232,-6.695363984186852413
0.387000000000000233,-6.675835425076532381
0.388000000000000234,-6.656167232773012365
0.389000000000000234,-6.636370876332567725
0.390000000000000235,-6.616457186864335149
0.391000000000000236,-6.596436379855930454
0.392000000000000237,-6.576318077188098243
0.393000000000000238,-6.556111328820390938
0.394000000000000239,-6.535824634131349065
0.395000000000000240,-6.515465962898376873
0.396000000000000241,-6.495042775903876020
0.397000000000000242,-6.474562045155669132
0.398000000000000242,-6.454030273711206966
0.399000000000000243,-6.433453515096204001
0.400000000000000244,-6.412837392309652884
0.401000000000000245,-6.392187116408552860
0.402000000000000246,-6.371507504666363175
0.403000000000000247,-6.350802998300723701
0.404000000000000248,-6.330077679766747067
0.405000000000000249,-6.309335289613163589
0.406000000000000250,-6.288579242899546173
0.407000000000000250,-6.267812645173703068
0.408000000000000251,-6.247038308009047469
0.409000000000000252,-6.226258764102620802
0.410000000000000253,-6.205476281934995342
0.411000000000000254,-6.184692879994123871
0.412000000000000255,-6.163910340565604606
0.413000000000000256,-6.143130223092656550
0.414000000000000257,-6.122353877109307341
0.415000000000000258,-6.101582454751158124
0.416000000000000258,-6.080816922848162775
0.417000000000000259,-6.060058074604613765
0.418000000000000260,-6.039306540871651308
0.419000000000000261,-6.018562801018110697
0.420000000000000262,-5.997827193405766977
0.421000000000000263,-5.977099925475426900
0.422000000000000264,-5.956381083450328795
0.423000000000000265,-5.935670641663856273
0.424000000000000266,-5.914968471518623261
0.425000000000000266,-5.894274350084044656
0.426000000000000267,-5.873587968339903043
0.427000000000000268,-5.852908939073411254
0.428000000000000269,-5.832236804437366473
0.429000000000000270,-5.811571043177177209
0.430000000000000271,-5.790911077534530271
0.431000000000000272,-5.770256279835581203
0.432000000000000273,-5.749605978771520576
0.433000000000000274,-5.728959465379491078
0.434000000000000274,-5.708315998731727348
0.435000000000000275,-5.687674811340860614
0.436000000000000276,-5.667035114289308062
0.437000000000000277,-5.646396102090545988
0.438000000000000278,-5.625756957290162674
0.439000000000000279,-5.605116854814459870
0.440000000000000280,-5.584474966074244762
0.441000000000000281,-5.563830462831509394
0.442000000000000282,-5.543182520836583471
0.443000000000000282,-5.522530323243127093
0.444000000000000283,-5.501873063808468522
0.445000000000000284,-5.481209949886478583
0.446000000000000285,-5.460540205220128840
0.447000000000000286,-5.439863072540975786
0.448000000000000287,-5.419177815982211932
0.449000000000000288,-5.398483723312446969
0.450000000000000289,-5.377780107996634307
0.451000000000000290,-5.357066311090887822
0.452000000000000290,-5.336341702977605017
0.453000000000000291,-5.315605684947142251
0.454000000000000292,-5.294857690632321479
0.455000000000000293,-5.274097187301713063
0.456000000000000294,-5.253323677017682769
0.457000000000000295,-5.232536697664945002
0.458000000000000296,-5.211735823855213390
0.459000000000000297,-5.190920667713519343
0.460000000000000298,-5.170090879551476171
0.461000000000000298,-5.149246148432744086
0.462000000000000299,-5.128386202635790703
0.463000000000000300,-5.107510810018789371
0.464000000000000301,-5.086619778291596283
0.465000000000000302,-5.065712955199339618
0.466000000000000303,-5.044790228622228589
0.467000000000000304,-5.023851526595945138
0.468000000000000305,-5.002896817256864637
0.469000000000000306,-4.981926108716256074
0.470000000000000306,-4.960939448867499380
0.471000000000000307,-4.939936925130056444
0.472000000000000308,-4.918918664134110053
0.473000000000000309,-4.897884831349370138
0.474000000000000310,-4.876835630661582321
0.475000000000000311,-4.855771303900102254
0.476000000000000312,-4.834692130319857561
0.477000000000000313,-4.813598426040723410
0.478000000000000314,-4.792490543447430973
0.479000000000000314,-4.771368870552911368
0.480000000000000315,-4.750233830327814211
0.481000000000000316,-4.729085879999033182
0.482000000000000317,-4.707925510319659779
0.483000000000000318,-4.686753244813028019
0.484000000000000319,-4.665569638993094514
0.485000000000000320,-4.644375279563580428
0.486000000000000321,-4.623170783597962519
0.487000000000000322,-4.601956797702504431
0.488000000000000322,-4.580733997164246674
0.489000000000000323,-4.559503085086010543
0.490000000000000324,-4.538264791510161267
0.491000000000000325,-4.517019872532904046
0.492000000000000326,-4.495769109410801434
0.493000000000000327,-4.474513307661138306
0.494000000000000328,-4.453253296157583918
0.495000000000000329,-4.431989926222690279
0.496000000000000330,-4.410724070718488932
0.497000000000000330,-4.389456623136641866
0.498000000000000331,-4.368188496689180411
0.499000000000000332,-4.346920623401229200
0.500000000000000333,-4.325653953206662017
0.501000000000000334,-4.304389453047760661
0.502000000000000335,-4.283128105979941758
0.503000000000000336,-4.261870910282397951
0.504000000000000337,-4.240618878575566519
0.505000000000000338,-4.219373036946231892
0.506000000000000338,-4.198134424081047200
0.507000000000000339,-4.176904090409185422
0.508000000000000340,-4.155683097254737390
0.509000000000000341,-4.134472515999639164
0.510000000000000342,-4.113273427257490233
0.511000000000000343,-4.092086920058990884
0.512000000000000344,-4.070914091049375294
0.513000000000000345,-4.049756043698331531
0.514000000000000346,-4.028613887522892512
0.515000000000000346,-4.007488737323560812
0.516000000000000347,-3.986381712434069691
0.517000000000000348,-3.965293935985179097
0.518000000000000349,-3.944226534182598609
0.519000000000000350,-3.923180635599494703
0.520000000000000351,-3.902157370483622323
0.521000000000000352,-3.881157870079444017
0.522000000000000353,-3.860183265965244637
0.523000000000000353,-3.839234689405472523
0.524000000000000354,-3.818313270718450614
0.525000000000000355,-3.797420138659439282
0.526000000000000356,-3.776556419819219634
0.527000000000000357,-3.755723238038227940
0.528000000000000358,-3.734921713836222956
0.529000000000000359,-3.714152963857569212
0.530000000000000360,-3.693418100332045206
0.531000000000000361,-3.672718230551249352
0.532000000000000361,-3.652054456360462442
0.533000000000000362,-3.631427873665993733
0.534000000000000363,-3.610839571957879635
0.535000000000000364,-3.590290633847900814
0.536000000000000365,-3.569782134622767611
0.537000000000000366,-3.549315141812428465
0.538000000000000367,-3.528890714773285087
0.539000000000000368,-3.508509904286335690
0.540000000000000369,-3.488173752169902997
0.541000000000000369,-3.467883290907019411
0.542000000000000370,-3.447639543287099428
0.543000000000000371,-3.427443522061896175
0.544000000000000372,-3.407296229615469407
0.545000000000000373,-3.387198657648042399
0.546000000000000374,-3.367151786873515906
0.547000000000000375,-3.347156586730450023
0.548000000000000376,-3.327214015106387812
0.549000000000000377,-3.307325018075199630
0.550000000000000377,-3.287490529647339343
0.551000000000000378,-3.267711471532731338
0.552000000000000379,-3.247988752916153743
0.553000000000000380,-3.228323270244797705
0.554000000000000381,-3.208715907027853920
0.555000000000000382,-3.189167533647929709
0.556000000000000383,-3.169679007183931141
0.557000000000000384,-3.150251171245392445
0.558000000000000385,-3.130884855817806844
0.559000000000000385,-3.111580877118913513
0.560000000000000386,-3.092340037465583613
0.561000000000000387,-3.073163125151155306
0.562000000000000388,-3.054050914332923750
0.563000000000000389,-3.035004164929616000
0.564000000000000390,-3.016023622528574144
0.565000000000000391,-2.997110018302443279
0.566000000000000392,-2.978264068935110309
0.567000000000000393,-2.959486476556723922
0.568000000000000393,-2.940777928687473342
0.569000000000000394,-2.922139098189976192
0.570000000000000395,-2.903570643230061421
0.571000000000000396,-2.885073207245617333
0.572000000000000397,-2.866647418923440771
0.573000000000000398,-2.848293892183718867
0.574000000000000399,-2.830013226172045648
0.575000000000000400,-2.811806005258660868
0.576000000000000401,-2.793672799044753852
0.577000000000000401,-2.775614162375659610
0.578000000000000402,-2.757630635360616367
0.579000000000000403,-2.739722743398980143
0.580000000000000404,-2.721890997212708552
0.581000000000000405,-2.704135892884802495
0.582000000000000406,-2.686457911903629814
0.583000000000000407,-2.668857521212842698
0.584000000000000408,-2.651335173266773815
0.585000000000000409,-2.633891306091054485
0.586000000000000409,-2.616526343348304362
0.587000000000000410,-2.599240694408734953
0.588000000000000411,-2.582034754425392098
0.589000000000000412,-2.564908904414003210
0.590000000000000413,-2.547863511337099762
0.591000000000000414,-2.530898928192359953
0.592000000000000415,-2.514015494104974824
0.593000000000000416,-2.497213534423816217
0.594000000000000417,-2.480493360821307114
0.595000000000000417,-2.463855271396872659
0.596000000000000418,-2.447299550783644140
0.597000000000000419,-2.430826470258511840
0.598000000000000420,-2.414436287855131980
0.599000000000000421,-2.398129248479940578
0.600000000000000422,-2.381905584030897582
0.601000000000000423,-2.365765513518876428
0.602000000000000424,-2.349709243191569374
0.603000000000000425,-2.333736966659758050
0.604000000000000425,-2.317848865025796457
0.605000000000000426,-2.302045107014222936
0.606000000000000427,-2.286325849104387409
0.607000000000000428,-2.270691235664833219
0.608000000000000429,-2.255141399089578336
0.609000000000000430,-2.239676459935856290
0.610000000000000431,-2.224296527063519768
0.611000000000000432,-2.209001697775738737
0.612000000000000433,-2.193792057961035713
