# TricalciumSilicate-Wet-001_CS-65711-AC
# h[nm],U(h)[kJ/mol]
0.149999999999999994,122.264323306540831027
0.150999999999999995,119.847699352216523039
0.151999999999999996,117.731344606511015627
0.152999999999999997,115.651579937876434201
0.153999999999999998,113.526562278135727979
0.154999999999999999,111.355685229362393329
0.156000000000000000,109.166284351790750407
0.157000000000000001,106.988003229656527537
0.158000000000000002,104.842584972486491779
0.159000000000000002,102.741669816577001484
0.160000000000000003,100.688258890358412145
0.161000000000000004,98.679432819193948490
0.162000000000000005,96.709089697034784194
0.163000000000000006,94.770158173754595055
0.164000000000000007,92.856126799730020593
0.165000000000000008,90.961928121112904932
0.166000000000000009,89.084301772536747421
0.167000000000000010,87.221783655471227803
0.168000000000000010,85.374458483267048337
0.169000000000000011,83.543588719379798135
0.170000000000000012,81.731204672468464878
0.171000000000000013,79.939713794537254898
0.172000000000000014,78.171564624449928260
0.173000000000000015,76.428983148645613710
0.174000000000000016,74.713786473253847475
0.175000000000000017,73.027270006468540942
0.176000000000000018,71.370159050019466918
0.177000000000000018,69.742612997295793775
0.178000000000000019,68.144269513502422342
0.179000000000000020,66.574316524896019587
0.180000000000000021,65.031581087299812793
0.181000000000000022,63.514625872022826059
0.182000000000000023,62.021845834107807605
0.183000000000000024,60.551559430824241304
0.184000000000000025,59.102090420683950356
0.185000000000000026,57.671837728238131149
0.186000000000000026,56.259332077385394655
0.187000000000000027,54.863279071336911841
0.188000000000000028,53.482589143083238525
0.189000000000000029,52.116395338757151023
0.190000000000000030,50.764060255573745906
0.191000000000000031,49.425173665761583663
0.192000000000000032,48.099542447231584674
0.193000000000000033,46.787174437752547362
0.194000000000000034,45.488257756269376841
0.195000000000000034,44.203137013520276355
0.196000000000000035,42.932287681677088642
0.197000000000000036,41.676289723455319347
0.198000000000000037,40.435801406104793898
0.199000000000000038,39.211534053318686688
0.200000000000000039,38.004228324498299685
0.201000000000000040,36.814632460167196371
0.202000000000000041,35.643482797239705917
0.203000000000000042,34.491486739664033223
0.204000000000000042,33.359308269039253503
0.205000000000000043,32.247555995794854766
0.206000000000000044,31.156773683527397623
0.207000000000000045,30.087433125877726781
0.208000000000000046,29.039929215445095423
0.209000000000000047,28.014577016107246266
0.210000000000000048,27.011610632160135026
0.211000000000000049,26.031183658352393451
0.212000000000000050,25.073370992694176351
0.213000000000000050,24.138171797506892347
0.214000000000000051,23.225513402308820332
0.215000000000000052,22.335255953705505760
0.216000000000000053,21.467197631510281042
0.217000000000000054,20.621080266033015249
0.218000000000000055,19.796595208147902412
0.219000000000000056,18.993389320806610243
0.220000000000000057,18.211070977629567835
0.221000000000000058,17.449215970722146807
0.222000000000000058,16.707373245629103309
0.223000000000000059,15.985070396160836026
0.224000000000000060,15.281818865545437447
0.225000000000000061,14.597118812893342010
0.226000000000000062,13.930463615259430554
0.227000000000000063,13.281343985639395555
0.228000000000000064,12.649251696064345296
0.229000000000000065,12.033682902597579556
0.230000000000000066,11.434141075553984734
0.231000000000000066,10.850139543721088131
0.232000000000000067,10.281203665844600437
0.233000000000000068,9.726872646230996011
0.234000000000000069,9.186701014103032747
0.235000000000000070,8.660259788405436865
0.236000000000000071,8.147137351182291098
0.237000000000000072,7.646940053513203495
0.238000000000000073,7.159292578380997085
0.239000000000000073,6.683838084819702985
0.240000000000000074,6.220238157322038219
0.241000000000000075,5.768172583834951794
0.242000000000000076,5.327338984791262000
0.243000000000000077,4.897452314565513554
0.244000000000000078,4.478244255546914410
0.245000000000000079,4.069462523729421299
0.246000000000000080,3.670870103362981585
0.247000000000000081,3.282244426817977789
0.248000000000000081,2.903376514414114595
0.249000000000000082,2.534070087573831564
0.250000000000000111,2.174140667297111307
0.251000000000000112,1.823414668633169367
0.252000000000000113,1.481728500554894357
0.253000000000000114,1.148927679435583160
0.254000000000000115,0.824865963186080520
0.255000000000000115,0.509404512043401980
0.256000000000000116,0.202411081007877497
0.257000000000000117,-0.096240751991686177
0.258000000000000118,-0.386672318966391648
0.259000000000000119,-0.669000553297564027
0.260000000000000120,-0.943338637950691394
0.261000000000000121,-1.209796609316321270
0.262000000000000122,-1.468481916076235683
0.263000000000000123,-1.719499932982068824
0.264000000000000123,-1.962954429862761696
0.265000000000000124,-2.198947996547908179
0.266000000000000125,-2.427582424712397824
0.267000000000000126,-2.648959047915794507
0.268000000000000127,-2.863179041333363095
0.269000000000000128,-3.070343682856489842
0.270000000000000129,-3.270554577383901318
0.271000000000000130,-3.463913846234492944
0.272000000000000131,-3.650524283690775640
0.273000000000000131,-3.830489482733163698
0.274000000000000132,-4.003913932051987423
0.275000000000000133,-4.170903086429533779
0.276000000000000134,-4.331563412571254545
0.277000000000000135,-4.486002412435602160
0.278000000000000136,-4.634328626069271984
0.279000000000000137,-4.776651615899834447
0.280000000000000138,-4.913081934373304094
0.281000000000000139,-5.043731076752466791
0.282000000000000139,-5.168711420813243862
0.283000000000000140,-5.288136155093596358
0.284000000000000141,-5.402119197262889472
0.285000000000000142,-5.510775104091139909
0.286000000000000143,-5.614218974407551244
0.287000000000000144,-5.712566346347290214
0.288000000000000145,-5.805933090096148774
0.289000000000000146,-5.894435297253196815
0.290000000000000147,-5.978189167845247454
0.291000000000000147,-6.057310895941351525
0.292000000000000148,-6.131916554733784608
0.293000000000000149,-6.202121981871941081
0.294000000000000150,-6.268042665759589127
0.295000000000000151,-6.329793633452832857
0.296000000000000152,-6.387489340726486553
0.297000000000000153,-6.441243564810858580
0.298000000000000154,-6.491169300238456508
0.299000000000000155,-6.537378658181699720
0.300000000000000155,-6.579982769607648940
0.301000000000000156,-6.619091692524458281
0.302000000000000157,-6.654814323546577093
0.303000000000000158,-6.687258313961327083
0.304000000000000159,-6.716529990438779407
0.305000000000000160,-6.742734280488944520
0.306000000000000161,-6.765974642736162892
0.307000000000000162,-6.786353002049054339
0.308000000000000163,-6.803969689535662724
0.309000000000000163,-6.818923387388039714
0.310000000000000164,-6.831311078537074977
0.311000000000000165,-6.841228001057812591
0.312000000000000166,-6.848767607247244094
0.313000000000000167,-6.854021527280276693
0.314000000000000168,-6.857079537335595276
0.315000000000000169,-6.858029532070891499
0.316000000000000170,-6.856957501316697012
0.317000000000000171,-6.853947510849105029
0.318000000000000171,-6.849081687094606075
0.319000000000000172,-6.842440205614489734
0.320000000000000173,-6.834101283211677647
0.321000000000000174,-6.824141173499566726
0.322000000000000175,-6.812634165770264261
0.323000000000000176,-6.799652586998331749
0.324000000000000177,-6.785266806815769769
0.325000000000000178,-6.769545245294366964
0.326000000000000179,-6.752554383372816105
0.327000000000000179,-6.734358775767669947
0.328000000000000180,-6.715021066209459377
0.329000000000000181,-6.694602004848567489
0.330000000000000182,-6.673160467677971219
0.331000000000000183,-6.650753477824515869
0.332000000000000184,-6.627436228563508003
0.333000000000000185,-6.603262107916217261
0.334000000000000186,-6.578282724694043182
0.335000000000000187,-6.552547935857776729
0.336000000000000187,-6.526105875065297823
0.337000000000000188,-6.499002982285527530
0.338000000000000189,-6.471284034361950432
0.339000000000000190,-6.442992176413518735
0.340000000000000191,-6.414168953965877051
0.341000000000000192,-6.384854345711090673
0.342000000000000193,-6.355086796798512516
0.343000000000000194,-6.324903252564939571
0.344000000000000195,-6.294339192616365430
0.345000000000000195,-6.263428665179125332
0.346000000000000196,-6.232204321642265121
0.347000000000000197,-6.200697451217932255
0.348000000000000198,-6.168938015650910600
0.349000000000000199,-6.136954683912709818
0.350000000000000200,-6.104774866819949963
0.351000000000000201,-6.072424751520748565
0.352000000000000202,-6.039929335796792920
0.353000000000000203,-6.007312462132650133
0.354000000000000203,-5.974596851507444129
0.355000000000000204,-5.941804136867544273
0.356000000000000205,-5.908954896242352817
0.357000000000000206,-5.876068685468575303
0.358000000000000207,-5.843164070491141615
0.359000000000000208,-5.810258659212316878
0.360000000000000209,-5.777369132863086953
0.361000000000000210,-5.744511276873591754
0.362000000000000210,-5.711700011222034412
0.363000000000000211,-5.678949420243798230
0.364000000000000212,-5.646272781884904113
0.365000000000000213,-5.613682596385885404
0.366000000000000214,-5.581190614384477833
0.367000000000000215,-5.548807864427143244
0.368000000000000216,-5.516544679881509872
0.369000000000000217,-5.484410725243283657
0.370000000000000218,-5.452415021832943687
0.371000000000000218,-5.420565972878840455
0.372000000000000219,-5.388871387984868200
0.373000000000000220,-5.357338506982080695
0.374000000000000221,-5.325974023164805615
0.375000000000000222,-5.294784105912872185
0.376000000000000223,-5.263774422702834244
0.377000000000000224,-5.232950160511634863
0.378000000000000225,-5.202316046617365686
0.379000000000000226,-5.171876368802339918
0.380000000000000226,-5.141634994964645600
0.381000000000000227,-5.111595392144684169
0.382000000000000228,-5.081760644974187002
0.383000000000000229,-5.052133473555464604
0.384000000000000230,-5.022716250779135194
0.385000000000000231,-4.993511019089289960
0.386000000000000232,-4.964519506705035390
0.387000000000000233,-4.935743143308038761
0.388000000000000234,-4.907183075205724165
0.389000000000000234,-4.878840179980316272
0.390000000000000235,-4.850715080633764664
0.391000000000000236,-4.822808159239185599
0.392000000000000237,-4.795119570109182661
0.393000000000000238,-4.767649252491911405
0.394000000000000239,-4.740396942805491953
0.395000000000000240,-4.713362186421716338
0.396000000000000241,-4.686544349009816202
0.397000000000000242,-4.659942627451179931
0.398000000000000242,-4.633556060335921600
0.399000000000000243,-4.607383538052008731
0.400000000000000244,-4.581423812477775748
0.401000000000000245,-4.555675506288577203
0.402000000000000246,-4.530137121888053287
0.403000000000000247,-4.504807049974647093
0.404000000000000248,-4.479683577753716506
0.405000000000000249,-4.454764896805556873
0.406000000000000250,-4.430049110619443731
0.407000000000000250,-4.405534241803779061
0.408000000000000251,-4.381218238982105717
0.409000000000000252,-4.357098983384803503
0.410000000000000253,-4.333174295145914456
0.411000000000000254,-4.309441939314544001
0.412000000000000255,-4.285899631589964009
0.413000000000000256,-4.262545043789556232
0.414000000000000257,-4.239375809058270939
0.415000000000000258,-4.216389526828441703
0.416000000000000258,-4.193583767538280327
0.417000000000000259,-4.170956077117418559
0.418000000000000260,-4.148503981247578132
0.419000000000000261,-4.126224989406237498
0.420000000000000262,-4.104116598701050833
0.421000000000000263,-4.082176297502575935
0.422000000000000264,-4.060401568882534562
0.423000000000000265,-4.038789893864850100
0.424000000000000266,-4.017338754496446285
0.425000000000000266,-3.996045636744470553
0.426000000000000267,-3.974908033226623338
0.427000000000000268,-3.953923445780991308
0.428000000000000269,-3.933089387881558707
0.429000000000000270,-3.912403386905536795
0.430000000000000271,-3.891862986258280976
0.431000000000000272,-3.871465747361602983
0.432000000000000273,-3.851209251510911091
0.433000000000000274,-3.831091101606635796
0.434000000000000274,-3.811108923765060386
0.435000000000000275,-3.791260368813635928
0.436000000000000276,-3.771543113675683401
0.437000000000000277,-3.751954862649132139
0.438000000000000278,-3.732493348583941106
0.439000000000000279,-3.713156333962600364
0.440000000000000280,-3.693941611887983978
0.441000000000000281,-3.674847006982673747
0.442000000000000282,-3.655870376203827821
0.443000000000000282,-3.637009609577334324
0.444000000000000283,-3.618262630855100692
0.445000000000000284,-3.599627398099001230
0.446000000000000285,-3.581101904194947672
0.447000000000000286,-3.562684177300547983
0.448000000000000287,-3.544372281229400734
0.449000000000000288,-3.526164315775334845
0.450000000000000289,-3.508058416979447536
0.451000000000000290,-3.490052757342911427
0.452000000000000290,-3.472145545988339244
0.453000000000000291,-3.454335028772322236
0.454000000000000292,-3.436619488351819740
0.455000000000000293,-3.418997244206802399
0.456000000000000294,-3.401466652621579101
0.457000000000000295,-3.384026106627102681
0.458000000000000296,-3.366674035906439766
0.459000000000000297,-3.349408906665568342
0.460000000000000298,-3.332229221471481928
0.461000000000000298,-3.315133519059610734
0.462000000000000299,-3.298120374112420983
0.463000000000000300,-3.281188397010956326
0.464000000000000301,-3.264336233561112799
0.465000000000000302,-3.247562564696268250
0.466000000000000303,-3.230866106157843198
0.467000000000000304,-3.214245608155334999
0.468000000000000305,-3.197699855007279712
0.469000000000000306,-3.181227664764517904
0.470000000000000306,-3.164827888817154822
0.471000000000000307,-3.148499411486365140
0.472000000000000308,-3.132241149602442043
0.473000000000000309,-3.116052052070089395
0.474000000000000310,-3.099931099422167158
0.475000000000000311,-3.083877303362921651
0.476000000000000312,-3.067889706301732744
0.477000000000000313,-3.051967380878321201
0.478000000000000314,-3.036109429480334576
0.479000000000000314,-3.020314983754257998
0.480000000000000315,-3.004583204110366168
0.481000000000000316,-2.988913279222660258
0.482000000000000317,-2.973304425524399441
0.483000000000000318,-2.957755886700076609
0.484000000000000319,-2.942266933174412458
0.485000000000000320,-2.926836861599118045
0.486000000000000321,-2.911464994337973344
0.487000000000000322,-2.896150678950829338
0.488000000000000322,-2.880893287677070980
0.489000000000000323,-2.865692216919108137
0.490000000000000324,-2.850546886726344376
0.491000000000000325,-2.835456740280126731
0.492000000000000326,-2.820421243380059284
0.493000000000000327,-2.805439883932201006
0.494000000000000328,-2.790512171439415656
0.495000000000000329,-2.775637636494368898
0.496000000000000330,-2.760815830275393346
0.497000000000000330,-2.746046324045682052
0.498000000000000331,-2.731328708655965443
0.499000000000000332,-2.716662594051111768
0.500000000000000333,-2.702047608780809185
0.501000000000000334,-2.687483399514602134
0.502000000000000335,-2.672969630561546239
0.503000000000000336,-2.658505983394673144
0.504000000000000337,-2.644092156180463782
0.505000000000000338,-2.629727863313508607
0.506000000000000338,-2.615412834956555521
0.507000000000000339,-2.601146816586072497
0.508000000000000340,-2.586929568543443025
0.509000000000000341,-2.572760865592036872
0.510000000000000342,-2.558640496480110382
0.511000000000000343,-2.544568263509793482
0.512000000000000344,-2.530543982112146928
0.513000000000000345,-2.516567480428448800
0.514000000000000346,-2.502638598897781286
0.515000000000000346,-2.488757189850919538
0.516000000000000347,-2.474923117110632731
0.517000000000000348,-2.461136255598494582
0.518000000000000349,-2.447396490948097192
0.519000000000000350,-2.433703719124864939
0.520000000000000351,-2.420057846052371175
0.521000000000000352,-2.406458787245272735
0.522000000000000353,-2.392906467448774332
0.523000000000000353,-2.379400820284710338
0.524000000000000354,-2.365941787904225713
0.525000000000000355,-2.352529320647004596
0.526000000000000356,-2.339163376707088737
0.527000000000000357,-2.325843921805262227
0.528000000000000358,-2.312570928867936804
0.529000000000000359,-2.299344377712580378
0.530000000000000360,-2.286164254739590618
0.531000000000000361,-2.273030552630639356
0.532000000000000361,-2.259943270053408781
0.533000000000000362,-2.246902411372696307
0.534000000000000363,-2.233907986367845044
0.535000000000000364,-2.220960009956445713
0.536000000000000365,-2.208058501924258010
0.537000000000000366,-2.195203486661324810
0.538000000000000367,-2.182394992904150843
0.539000000000000368,-2.169633053484023133
0.540000000000000369,-2.156917705081231151
0.541000000000000369,-2.144248987985316823
0.542000000000000370,-2.131626945861133215
0.543000000000000371,-2.119051625520730120
0.544000000000000372,-2.106523076700995478
0.545000000000000373,-2.094041351846950061
0.546000000000000374,-2.081606505900658100
0.547000000000000375,-2.069218596095644624
0.548000000000000376,-2.056877681756816401
0.549000000000000377,-2.044583824105736358
0.550000000000000377,-2.032337086071218657
0.551000000000000378,-2.020137532105170663
0.552000000000000379,-2.007985228003589917
0.553000000000000380,-1.995880240732669009
0.554000000000000381,-1.983822638259874482
0.555000000000000382,-1.971812489390025291
0.556000000000000383,-1.959849863606152098
0.557000000000000384,-1.947934830915219351
0.558000000000000385,-1.936067461698490533
0.559000000000000385,-1.924247826566561015
0.560000000000000386,-1.912475996218924390
0.561000000000000387,-1.900752041308028328
0.562000000000000388,-1.889076032307703157
0.563000000000000389,-1.877448039385950951
0.564000000000000390,-1.865868132281934821
0.565000000000000391,-1.854336380187173727
0.566000000000000392,-1.842852851630804256
0.567000000000000393,-1.831417614368881841
0.568000000000000393,-1.820030735277595735
0.569000000000000394,-1.808692280250371542
0.570000000000000395,-1.797402314098770493
0.571000000000000396,-1.786160900457069545
0.572000000000000397,-1.774968101690543865
0.573000000000000398,-1.763823978807264936
0.574000000000000399,-1.752728591373445166
0.575000000000000400,-1.741681997432172668
0.576000000000000401,-1.730684253425518238
0.577000000000000401,-1.719735414119949013
0.578000000000000402,-1.708835532534925594
0.579000000000000403,-1.697984659874658631
0.580000000000000404,-1.687182845462964265
0.581000000000000405,-1.676430136681102301
0.582000000000000406,-1.665726578908587330
0.583000000000000407,-1.655072215466853791
0.584000000000000408,-1.644467087565759211
0.585000000000000409,-1.633911234252818589
0.586000000000000409,-1.623404692365132407
0.587000000000000410,-1.612947496483948751
0.588000000000000411,-1.602539678891759412
0.589000000000000412,-1.592181269531933507
0.590000000000000413,-1.581872295970753406
0.591000000000000414,-1.571612783361850507
0.592000000000000415,-1.561402754412974714
0.593000000000000416,-1.551242229354994784
0.594000000000000417,-1.541131225913117797
0.595000000000000417,-1.531069759280298426
0.596000000000000418,-1.521057842092657486
0.597000000000000419,-1.511095484407041223
0.598000000000000420,-1.501182693680477076
0.599000000000000421,-1.491319474751631846
0.600000000000000422,-1.481505829824107057
0.601000000000000423,-1.471741758451584392
0.602000000000000424,-1.462027257524744828
0.603000000000000425,-1.452362321259932809
0.604000000000000425,-1.442746941189475107
0.605000000000000426,-1.433181106153649020
0.606000000000000427,-1.423664802294265508
0.607000000000000428,-1.414198013049710489
0.608000000000000429,-1.404780719151603297
0.609000000000000430,-1.395412898622771625
0.610000000000000431,-1.386094526776753932
0.611000000000000432,-1.376825576218581704
0.612000000000000433,-1.367606016846915740
