# TricalciumSilicate-Wet-001_FURAN-AC
# h[nm],U(h)[kJ/mol]
0.149999999999999994,92.736811588339463697
0.150999999999999995,90.683773744149348772
0.151999999999999996,88.863411570726924538
0.152999999999999997,87.111671771160217759
0.153999999999999998,85.371691777074687479
0.154999999999999999,83.634791230017910380
0.156000000000000000,81.909613978458324368
0.157000000000000001,80.207457991524236718
0.158000000000000002,78.536466694251529930
0.159000000000000002,76.900321038578709931
0.160000000000000003,75.298935202501283470
0.161000000000000004,73.729803606787285730
0.162000000000000005,72.189329684696431855
0.163000000000000006,70.673857782359135626
0.164000000000000007,69.180340320813030530
0.165000000000000008,67.706675085546578430
0.166000000000000009,66.251788099849150626
0.167000000000000010,64.815544516131708974
0.168000000000000010,63.398560568096684165
0.169000000000000011,62.001973879703996317
0.170000000000000012,60.627212801331197056
0.171000000000000013,59.275790645747903795
0.172000000000000014,57.949138802763876299
0.173000000000000015,56.648483890464696344
0.174000000000000016,55.374768060989502771
0.175000000000000017,54.128607834377831409
0.176000000000000018,52.910284857928481017
0.177000000000000018,51.719761291633105316
0.178000000000000019,50.556712687444701260
0.179000000000000020,49.420571930720662124
0.180000000000000021,48.310578796441319582
0.181000000000000022,47.225830761816560255
0.182000000000000023,46.165331789895546422
0.183000000000000024,45.128036780525079052
0.184000000000000025,44.112890234267744916
0.185000000000000026,43.118858374892404584
0.186000000000000026,42.144954526558151997
0.187000000000000027,41.190257953114581824
0.188000000000000028,40.253926655303139626
0.189000000000000029,39.335204806062861849
0.190000000000000030,38.433425604103305773
0.191000000000000031,37.548010359934181679
0.192000000000000032,36.678464613343280121
0.193000000000000033,35.824372031342136324
0.194000000000000034,34.985386762923312176
0.195000000000000034,34.161224841324170143
0.196000000000000035,33.351655133463182779
0.197000000000000036,32.556490245493407087
0.198000000000000037,31.775577707072905298
0.199000000000000038,31.008791677702582490
0.200000000000000039,30.256025347970428641
0.201000000000000040,29.517184147555418861
0.202000000000000041,28.792179820540958701
0.203000000000000042,28.080925386655849252
0.204000000000000042,27.383330973871476743
0.205000000000000043,26.699300482511624466
0.206000000000000044,26.028729022735006993
0.207000000000000045,25.371501054956880239
0.208000000000000046,24.727489155519467801
0.209000000000000047,24.096553326785734583
0.210000000000000048,23.478540770974785090
0.211000000000000049,22.873286049724150359
0.212000000000000050,22.280611555888185649
0.213000000000000050,21.700328229898719457
0.214000000000000051,21.132236459640516557
0.215000000000000052,20.576127109842438756
0.216000000000000053,20.031782634139091215
0.217000000000000054,19.498978229973083387
0.218000000000000055,18.977483003202191725
0.219000000000000056,18.467061115518070835
0.220000000000000057,17.967472893483883212
0.221000000000000058,17.478475883112402300
0.222000000000000058,16.999825838404703404
0.223000000000000059,16.531277636162229783
0.224000000000000060,16.072586112684682291
0.225000000000000061,15.623506820709001985
0.226000000000000062,15.183796707170419182
0.227000000000000063,14.753214714121980933
0.228000000000000064,14.331522306485496188
0.229000000000000065,13.918483931272987775
0.230000000000000066,13.513867413566677200
0.231000000000000066,13.117444294922398385
0.232000000000000067,12.728990120014211485
0.233000000000000068,12.348284677306374135
0.234000000000000069,11.975112199362216714
0.235000000000000070,11.609261528111227690
0.236000000000000071,11.250526250025567165
0.237000000000000072,10.898704805731119549
0.238000000000000073,10.553600578118302877
0.239000000000000073,10.215021962543202605
0.240000000000000074,9.882782422233368891
0.241000000000000075,9.556700531549882527
0.242000000000000076,9.236600009315361959
0.243000000000000077,8.922309744004211396
0.244000000000000078,8.613663812212163151
0.245000000000000079,8.310501491479699965
0.246000000000000080,8.012667268240686980
0.247000000000000081,7.720010841403103896
0.248000000000000081,7.432387121843804678
0.249000000000000082,7.149656227911930451
0.250000000000000111,6.871683476883653441
0.251000000000000112,6.598339372192984165
0.252000000000000113,6.329499586175184156
0.253000000000000114,6.065044938000474062
0.254000000000000115,5.804861366439768133
0.255000000000000115,5.548839897091556672
0.256000000000000116,5.296876603704086861
0.257000000000000117,5.048872563248187006
0.258000000000000118,4.804733804430720845
0.259000000000000119,4.564371249382941365
0.260000000000000120,4.327700648310814913
0.261000000000000121,4.094642506953141137
0.262000000000000122,3.865122006755334017
0.263000000000000123,3.639068917731516528
0.264000000000000123,3.416417504052251530
0.265000000000000124,3.197106422459559560
0.266000000000000125,2.981078613672847322
0.267000000000000126,2.768281187008824862
0.268000000000000127,2.558665298493530749
0.269000000000000128,2.352186022796206366
0.270000000000000129,2.148802219360835153
0.271000000000000130,1.948476393152227981
0.272000000000000131,1.751174550469678293
0.273000000000000131,1.556866050311254357
0.274000000000000132,1.365523451796955445
0.275000000000000133,1.177122358178225969
0.276000000000000134,0.991641257975543589
0.277000000000000135,0.809061363795241406
0.278000000000000136,0.629366449380564852
0.279000000000000137,0.452542685451993165
0.280000000000000138,0.278578474887452632
0.281000000000000139,0.107464287784312690
0.282000000000000139,-0.060807503066601140
0.283000000000000140,-0.226242785780129740
0.284000000000000141,-0.388845871552221722
0.285000000000000142,-0.548619654935421308
0.286000000000000143,-0.705565771761003324
0.287000000000000144,-0.859684754278739027
0.288000000000000145,-1.010976183111792492
0.289000000000000146,-1.159438835651025901
0.290000000000000147,-1.305070830541780413
0.291000000000000147,-1.447869767944625963
0.292000000000000148,-1.587832865281263661
0.293000000000000149,-1.724957088205764766
0.294000000000000150,-1.859239276571001742
0.295000000000000151,-1.990676265189074812
0.296000000000000152,-2.119264999213229750
0.297000000000000153,-2.245002643996711011
0.298000000000000154,-2.367886689311474502
0.299000000000000155,-2.487915047835985938
0.300000000000000155,-2.605086147846853439
0.301000000000000156,-2.719399020073402173
0.302000000000000157,-2.830853378697744116
0.303000000000000158,-2.939449696504758069
0.304000000000000159,-3.045189274207461771
0.305000000000000160,-3.148074303992669964
0.306000000000000161,-3.248107927350243784
0.307000000000000162,-3.345294287266205480
0.308000000000000163,-3.439638574875582666
0.309000000000000163,-3.531147070685321410
0.310000000000000164,-3.619827180490697405
0.311000000000000165,-3.705687466120399787
0.312000000000000166,-3.788737671156150011
0.313000000000000167,-3.868988741782076968
0.314000000000000168,-3.946452842927207882
0.315000000000000169,-4.021143369871655437
0.316000000000000170,-4.093074955493034572
0.317000000000000171,-4.162263473334542496
0.318000000000000171,-4.228726036680216183
0.319000000000000172,-4.292480993825916080
0.320000000000000173,-4.353547919736687533
0.321000000000000174,-4.411947604282491220
0.322000000000000175,-4.467702037244860591
0.323000000000000176,-4.520834390286848858
0.324000000000000177,-4.571368996077751490
0.325000000000000178,-4.619331324762462998
0.326000000000000179,-4.664747957963588654
0.327000000000000179,-4.707646560501381749
0.328000000000000180,-4.748055850013774837
0.329000000000000181,-4.786005564655273048
0.330000000000000182,-4.821526429049209028
0.331000000000000183,-4.854650118664115332
0.332000000000000184,-4.885409222779888871
0.333000000000000185,-4.913837206204877184
0.334000000000000186,-4.939968369899847112
0.335000000000000187,-4.963837810659508243
0.336000000000000187,-4.985481379996874907
0.337000000000000188,-5.004935642370034188
0.338000000000000189,-5.022237832885461550
0.339000000000000190,-5.037425814606105057
0.340000000000000191,-5.050538035586567887
0.341000000000000192,-5.061613485752270769
0.342000000000000193,-5.070691653733186754
0.343000000000000194,-5.077812483757407236
0.344000000000000195,-5.083016332703542695
0.345000000000000195,-5.086343927405796883
0.346000000000000196,-5.087836322299429170
0.347000000000000197,-5.087534857489083961
0.348000000000000198,-5.085481117316911437
0.349000000000000199,-5.081716889501993073
0.350000000000000200,-5.076284124917561869
0.351000000000000201,-5.069224898067179019
0.352000000000000202,-5.060581368316206863
0.353000000000000203,-5.050395741930133298
0.354000000000000203,-5.038710234966549351
0.355000000000000204,-5.025567037063076725
0.356000000000000205,-5.011008276159266472
0.357000000000000206,-4.995075984186287954
0.358000000000000207,-4.977812063754012861
0.359000000000000208,-4.959258255861537457
0.360000000000000209,-4.939456108653235589
0.361000000000000210,-4.918446947238971134
0.362000000000000210,-4.896271844593779399
0.363000000000000211,-4.872971593549005220
0.364000000000000212,-4.848586679883943873
0.365000000000000213,-4.823157256524043923
0.366000000000000214,-4.796723118849058665
0.367000000000000215,-4.769323681111889535
0.368000000000000216,-4.740997953966543221
0.369000000000000217,-4.711784523101139932
0.370000000000000218,-4.681721528970076207
0.371000000000000218,-4.650846647617056462
0.372000000000000219,-4.619197072579240171
0.373000000000000220,-4.586809497860752316
0.374000000000000221,-4.553720101962308142
0.375000000000000222,-4.519964532952188918
0.376000000000000223,-4.485577894562561951
0.377000000000000224,-4.450594733293706362
0.378000000000000225,-4.415049026507777086
0.379000000000000226,-4.378974171492545864
0.380000000000000226,-4.342402975474848326
0.381000000000000227,-4.305367646562364925
0.382000000000000228,-4.267899785591952266
0.383000000000000229,-4.230030378861896700
0.384000000000000230,-4.191789791724910508
0.385000000000000231,-4.153207763018439636
0.386000000000000232,-4.114313400308143187
0.387000000000000233,-4.075135175920420849
0.388000000000000234,-4.035700923739281798
0.389000000000000234,-3.996037836743025373
0.390000000000000235,-3.956172465255740178
0.391000000000000236,-3.916130715888846314
0.392000000000000237,-3.875937851147686075
0.393000000000000238,-3.835618489678411347
0.394000000000000239,-3.795196607130280064
0.395000000000000240,-3.754695537608853328
0.396000000000000241,-3.714137975695590121
0.397000000000000242,-3.673545979009559037
0.398000000000000242,-3.632940971287420773
0.399000000000000243,-3.592343745957854217
0.400000000000000244,-3.551774470187076815
0.401000000000000245,-3.511252689372518887
0.402000000000000246,-3.470797332061827056
0.403000000000000247,-3.430426715275012306
0.404000000000000248,-3.390158550207853061
0.405000000000000249,-3.350009948295101569
0.406000000000000250,-3.309997427612467735
0.407000000000000250,-3.270136919596891456
0.408000000000000251,-3.230443776064961803
0.409000000000000252,-3.190932776509964874
0.410000000000000253,-3.151618135658381448
0.411000000000000254,-3.112513511267302579
0.412000000000000255,-3.073632012144598580
0.413000000000000256,-3.034986206374310491
0.414000000000000257,-2.996588129730090255
0.415000000000000258,-2.958449294260243612
0.416000000000000258,-2.920580697028193118
0.417000000000000259,-2.882992828992914980
0.418000000000000260,-2.845695684014269311
0.419000000000000261,-2.808698767968714094
0.420000000000000262,-2.772011107961396270
0.421000000000000263,-2.735641261621128528
0.422000000000000264,-2.699597326465204894
0.423000000000000265,-2.663886949321537578
0.424000000000000266,-2.628517335796179744
0.425000000000000266,-2.593495259774541761
0.426000000000000267,-2.558827072945363046
0.427000000000000268,-2.524518714336754677
0.428000000000000269,-2.490575719854190240
0.429000000000000270,-2.457003231810805488
0.430000000000000271,-2.423806008440644977
0.431000000000000272,-2.390988433386172396
0.432000000000000273,-2.358554525151543402
0.433000000000000274,-2.326507946513765468
0.434000000000000274,-2.294852013884080666
0.435000000000000275,-2.263589706612481489
0.436000000000000276,-2.232723676228558496
0.437000000000000277,-2.202256255612222269
0.438000000000000278,-2.172189468088331576
0.439000000000000279,-2.142525036439528741
0.440000000000000280,-2.113264391831906064
0.441000000000000281,-2.084408682648557942
0.442000000000000282,-2.055958783226345954
0.443000000000000282,-2.027915302491472005
0.444000000000000283,-2.000278592489898699
0.445000000000000284,-1.973048756808819304
0.446000000000000285,-1.946225658885665011
0.447000000000000286,-1.919808930201637009
0.448000000000000287,-1.893797978356638989
0.449000000000000288,-1.868191995023137153
0.450000000000000289,-1.842989963776420215
0.451000000000000290,-1.818190667799159055
0.452000000000000290,-1.793792697458330476
0.453000000000000291,-1.769794457752751127
0.454000000000000292,-1.746194175629790069
0.455000000000000293,-1.722989907169900636
0.456000000000000294,-1.700179544637933970
0.457000000000000295,-1.677760823400289425
0.458000000000000296,-1.655731328707189975
0.459000000000000297,-1.634088502339524185
0.460000000000000298,-1.612829649119864595
0.461000000000000298,-1.591951943287428728
0.462000000000000299,-1.571452434736908099
0.463000000000000300,-1.551328055121186100
0.464000000000000301,-1.531575623818193232
0.465000000000000302,-1.512191853762186344
0.466000000000000303,-1.493173357139892632
0.467000000000000304,-1.474516650952087060
0.468000000000000305,-1.456218162441284214
0.469000000000000306,-1.438274234386280437
0.470000000000000306,-1.420681130264466407
0.471000000000000307,-1.403435039282798336
0.472000000000000308,-1.386532081278556872
0.473000000000000309,-1.369968311490941559
0.474000000000000310,-1.353739725204764266
0.475000000000000311,-1.337842262267455284
0.476000000000000312,-1.322271811480806081
0.477000000000000313,-1.307024214868738765
0.478000000000000314,-1.292095271822630842
0.479000000000000314,-1.277480743125707141
0.480000000000000315,-1.263176354857991734
0.481000000000000316,-1.249177802183498498
0.482000000000000317,-1.235480753021231282
0.483000000000000318,-1.222080851601715423
0.484000000000000319,-1.208973721910746590
0.485000000000000320,-1.196154971022113100
0.486000000000000321,-1.183620192321036546
0.487000000000000322,-1.171364968620147051
0.488000000000000322,-1.159384875169742868
0.489000000000000323,-1.147675482564260330
0.490000000000000324,-1.136232359546688553
0.491000000000000325,-1.125051075712856896
0.492000000000000326,-1.114127204117401737
0.493000000000000327,-1.103456323783336135
0.494000000000000328,-1.093034022117048476
0.495000000000000329,-1.082855897230636799
0.496000000000000330,-1.072917560173435980
0.497000000000000330,-1.063214637074640923
0.498000000000000331,-1.053742771198851624
0.499000000000000332,-1.044497624916466361
0.500000000000000333,-1.035474881590747298
0.501000000000000334,-1.026670247383404178
0.502000000000000335,-1.018079452980576560
0.503000000000000336,-1.009698255241019194
0.504000000000000337,-1.001522438768317702
0.505000000000000338,-0.993547817408948264
0.506000000000000338,-0.985770235677970397
0.507000000000000339,-0.978185570114128211
0.508000000000000340,-0.970789730566115949
0.509000000000000341,-0.963578661411781723
0.510000000000000342,-0.956548342711946775
0.511000000000000343,-0.949694791300589314
0.512000000000000344,-0.943014061813049032
0.513000000000000345,-0.936502247653927755
0.514000000000000346,-0.930155481906361326
0.515000000000000346,-0.923969938184217354
0.516000000000000347,-0.917941831428878863
0.517000000000000348,-0.912067418652191764
0.518000000000000349,-0.906342999627066326
0.519000000000000350,-0.900764917527350994
0.520000000000000351,-0.895329559518416973
0.521000000000000352,-0.890033357299984784
0.522000000000000353,-0.884872787602611566
0.523000000000000353,-0.879844372639302486
0.524000000000000354,-0.874944680513649709
0.525000000000000355,-0.870170325585876703
0.526000000000000356,-0.865517968798138582
0.527000000000000357,-0.860984317960461043
0.528000000000000358,-0.856566127998545923
0.529000000000000359,-0.852260201164822262
0.530000000000000360,-0.848063387213913389
0.531000000000000361,-0.843972583543826760
0.532000000000000361,-0.839984735304026287
0.533000000000000362,-0.836096835471601407
0.534000000000000363,-0.832305924896673544
0.535000000000000364,-0.828609092318192020
0.536000000000000365,-0.825003474351208910
0.537000000000000366,-0.821486255446743252
0.538000000000000367,-0.818054667825262150
0.539000000000000368,-0.814705991384872874
0.540000000000000369,-0.811437553585156124
0.541000000000000369,-0.808246729307730227
0.542000000000000370,-0.805130940694414265
0.543000000000000371,-0.802087656964006968
0.544000000000000372,-0.799114394208568224
0.545000000000000373,-0.796208715170107828
0.546000000000000374,-0.793368228998548530
0.547000000000000375,-0.790590590991827269
0.548000000000000376,-0.787873502318973795
0.549000000000000377,-0.785214709726946514
0.550000000000000377,-0.782612005232042329
0.551000000000000378,-0.780063225796634008
0.552000000000000379,-0.777566252991986451
0.553000000000000380,-0.775119012647878081
0.554000000000000381,-0.772719474489718783
0.555000000000000382,-0.770365651763893267
0.556000000000000383,-0.768055600851926701
0.557000000000000384,-0.765787420874202263
0.558000000000000385,-0.763559253283783934
0.559000000000000385,-0.761369281451017121
0.560000000000000386,-0.759215730239451547
0.561000000000000387,-0.757096865573696265
0.562000000000000388,-0.755010993999737812
0.563000000000000389,-0.752956462238287383
0.564000000000000390,-0.750931656731650965
0.565000000000000391,-0.748935003184655779
0.566000000000000392,-0.746964966100102989
0.567000000000000393,-0.745020048309247507
0.568000000000000393,-0.743098790497722206
0.569000000000000394,-0.741199770727398621
0.570000000000000395,-0.739321603954581130
0.571000000000000396,-0.737462941544950512
0.572000000000000397,-0.735622470785688098
0.573000000000000398,-0.733798914395117796
0.574000000000000399,-0.731991030030286316
0.575000000000000400,-0.730197609792810343
0.576000000000000401,-0.728417479733336259
0.577000000000000401,-0.726649499354988460
0.578000000000000402,-0.724892561116066481
0.579000000000000403,-0.723145589932330912
0.580000000000000404,-0.721407542679201375
0.581000000000000405,-0.719677407694092830
0.582000000000000406,-0.717954204279218966
0.583000000000000407,-0.716236982205096240
0.584000000000000408,-0.714524821215011152
0.585000000000000409,-0.712816830530691670
0.586000000000000409,-0.711112148359416274
0.587000000000000410,-0.709409941402788347
0.588000000000000411,-0.707709404367366623
0.589000000000000412,-0.706009759477394194
0.590000000000000413,-0.704310255989774148
0.591000000000000414,-0.702610169711517352
0.592000000000000415,-0.700908802519816243
0.593000000000000416,-0.699205481884913160
0.594000000000000417,-0.697499560395936635
0.595000000000000417,-0.695790415289856190
0.596000000000000418,-0.694077447983668661
0.597000000000000419,-0.692360083610016996
0.598000000000000420,-0.690637770556292829
0.599000000000000421,-0.688909980007413436
0.600000000000000422,-0.687176205492354475
0.601000000000000423,-0.685435962434538193
0.602000000000000424,-0.683688787706217993
0.603000000000000425,-0.681934239186924973
0.604000000000000425,-0.680171895326064258
0.605000000000000426,-0.678401354709767146
0.606000000000000427,-0.676622235632080793
0.607000000000000428,-0.674834175670507408
0.608000000000000429,-0.673036831266081603
0.609000000000000430,-0.671229877307894296
0.610000000000000431,-0.669413006722271886
0.611000000000000432,-0.667585930066555200
0.612000000000000433,-0.665748375127566017
0.613000000000000433,-0.663900086524830013
