# TricalciumSilicate-Wet-001_ADENINE
# h[nm],U(h)[kJ/mol]
0.149999999999999994,139.624856049149855153
0.150999999999999995,137.160384147170333335
0.151999999999999996,134.250039071339585917
0.152999999999999997,131.244067447287847017
0.153999999999999998,128.287508217044489811
0.154999999999999999,125.423067165858697081
0.156000000000000000,122.648345991572611524
0.157000000000000001,119.945790102400266619
0.158000000000000002,117.296895239950501377
0.159000000000000002,114.687766142721173424
0.160000000000000003,112.110264847389586862
0.161000000000000004,109.561185099308474378
0.162000000000000005,107.040778701965379582
0.163000000000000006,104.551294652298139454
0.164000000000000007,102.095809502767011168
0.165000000000000008,99.677420172061744097
0.166000000000000009,97.298768653710865806
0.167000000000000010,94.961827225748251635
0.168000000000000010,92.667865037397604056
0.169000000000000011,90.417525462694669613
0.170000000000000012,88.210958521466722004
0.171000000000000013,86.047968564160271399
0.172000000000000014,83.928151608300112230
0.173000000000000015,81.851008118965680183
0.174000000000000016,79.816025461707084787
0.175000000000000017,77.822730001624989882
0.176000000000000018,75.870712349845490508
0.177000000000000018,73.959631084977047522
0.178000000000000019,72.089200882594226982
0.179000000000000020,70.259170777708689570
0.180000000000000021,68.469297587183163500
0.181000000000000022,66.719318574112520537
0.182000000000000023,65.008926416792974123
0.183000000000000024,63.337748565524840672
0.184000000000000025,61.705332200397286613
0.185000000000000026,60.111135277933442467
0.186000000000000026,58.554523585631535809
0.187000000000000027,57.034773306619023003
0.188000000000000028,55.551078317520321548
0.189000000000000029,54.102561281598823939
0.190000000000000030,52.688287534564480552
0.191000000000000031,51.307280770603860276
0.192000000000000032,49.958539601215278481
0.193000000000000033,48.641054161719537774
0.194000000000000034,47.353822065010810149
0.195000000000000034,46.095863137156193545
0.196000000000000035,44.866232505469028524
0.197000000000000036,43.664031739706089752
0.198000000000000037,42.488417866211491969
0.199000000000000038,41.338610180056605259
0.200000000000000039,40.213894869844139635
0.201000000000000040,39.113627543317477375
0.202000000000000041,38.037233799556261715
0.203000000000000042,36.984208036270118214
0.204000000000000042,35.954110709852159289
0.205000000000000043,34.946564283009820429
0.206000000000000044,33.961248101641842823
0.207000000000000045,32.997892440901033240
0.208000000000000046,32.056271951728284364
0.209000000000000047,31.136198725122643083
0.210000000000000048,30.237515173437309102
0.211000000000000049,29.360086907319860927
0.212000000000000050,28.503795764630105225
0.213000000000000050,27.668533124695102288
0.214000000000000051,26.854193618351171580
0.215000000000000052,26.060669321987631974
0.216000000000000053,25.287844502715898898
0.217000000000000054,24.535590962186848429
0.218000000000000055,23.803764008710317057
0.219000000000000056,23.092199071343308958
0.220000000000000057,22.400708955575140635
0.221000000000000058,21.729081728165397180
0.222000000000000058,21.077079208531959154
0.223000000000000059,20.444436035770543469
0.224000000000000060,19.830859273797042164
0.225000000000000061,19.236028512111072786
0.226000000000000062,18.659596416139777375
0.227000000000000063,18.101189678881851819
0.228000000000000064,17.560410324481271260
0.229000000000000065,17.036837314263657106
0.230000000000000066,16.530028406522195183
0.231000000000000066,16.039522222801288365
0.232000000000000067,15.564840475467192960
0.233000000000000068,15.105490313853346507
0.234000000000000069,14.660966749115488028
0.235000000000000070,14.230755121030011168
0.236000000000000071,13.814333573230721086
0.237000000000000072,13.411175506728037377
0.238000000000000073,13.020751984926054234
0.239000000000000073,12.642534066691140993
0.240000000000000074,12.275995047282117767
0.241000000000000075,11.920612590092975580
0.242000000000000076,11.575870735150385116
0.243000000000000077,11.241261773129162194
0.244000000000000078,10.916287976281468630
0.245000000000000079,10.600463180108944172
0.246000000000000080,10.293314211834172056
0.247000000000000081,9.994382163745809677
0.248000000000000081,9.703223511302121906
0.249000000000000082,9.419411077483726302
0.250000000000000111,9.142534846293560946
0.251000000000000112,8.872202629519929218
0.252000000000000113,8.608040591913827200
0.253000000000000114,8.349693640798871996
0.254000000000000115,8.096825686837687996
0.255000000000000115,7.849119783238594827
0.256000000000000116,7.606278151109857610
0.257000000000000117,7.368022098969111866
0.258000000000000118,7.134091844604877330
0.259000000000000119,6.904246247575626327
0.260000000000000120,6.678262460632209851
0.261000000000000121,6.455935508272315992
0.262000000000000122,6.237077800489712054
0.263000000000000123,6.021518589578367830
0.264000000000000123,5.809103377598495044
0.265000000000000124,5.599693281818891144
0.266000000000000125,5.393164365123182868
0.267000000000000126,5.189406938015888038
0.268000000000000127,4.988324838491505098
0.269000000000000128,4.789834695644698215
0.270000000000000129,4.593865182504683453
0.271000000000000130,4.400356263178262672
0.272000000000000131,4.209258438987236950
0.273000000000000131,4.020531997890502751
0.274000000000000132,3.834146271092394365
0.275000000000000133,3.650078900358818768
0.276000000000000134,3.468315119194388618
0.277000000000000135,3.288847050678417983
0.278000000000000136,3.111673024416599098
0.279000000000000137,2.936796914740127384
0.280000000000000138,2.764227501975599743
0.281000000000000139,2.593977858317461305
0.282000000000000139,2.426064759561182171
0.283000000000000140,2.260508123699234595
0.284000000000000141,2.097330477143894978
0.285000000000000142,1.936556449120270473
0.286000000000000143,1.778212294569834651
0.287000000000000144,1.622325445718926673
0.288000000000000145,1.468924092296571171
0.289000000000000146,1.318036790233222399
0.290000000000000147,1.169692098533160474
0.291000000000000147,1.023918243890468371
0.292000000000000148,0.880742812508718331
0.293000000000000149,0.740192468488872435
0.294000000000000150,0.602292698066162258
0.295000000000000151,0.467067578905261349
0.296000000000000152,0.334539573602520457
0.297000000000000153,0.204729346493821879
0.298000000000000154,0.077655602826102704
0.299000000000000155,-0.046665050681184449
0.300000000000000155,-0.168218224881890588
0.301000000000000156,-0.286991847869304817
0.302000000000000157,-0.402976246285185080
0.303000000000000158,-0.516164209296795073
0.304000000000000159,-0.626551036264702432
0.305000000000000160,-0.734134569116117186
0.306000000000000161,-0.838915210426551816
0.307000000000000162,-0.940895928196281650
0.308000000000000163,-1.040082248288348277
0.309000000000000163,-1.136482235472165092
0.310000000000000164,-1.230106463991372134
0.311000000000000165,-1.320967978546973232
0.312000000000000166,-1.409082246557326057
0.313000000000000167,-1.494467102525548263
0.314000000000000168,-1.577142685312629578
0.315000000000000169,-1.657131369081481509
0.316000000000000170,-1.734457688643245010
0.317000000000000171,-1.809148259903043510
0.318000000000000171,-1.881231696067649395
0.319000000000000172,-1.950738520243441076
0.320000000000000173,-2.017701075018307755
0.321000000000000174,-2.082153429587346061
0.322000000000000175,-2.144131284948564087
0.323000000000000176,-2.203671877661807610
0.324000000000000177,-2.260813882631793614
0.325000000000000178,-2.315597315344429141
0.326000000000000179,-2.368063433955210240
0.327000000000000179,-2.418254641598253762
0.328000000000000180,-2.466214389255926953
0.329000000000000181,-2.511987079501239783
0.330000000000000182,-2.555617971398050248
0.331000000000000183,-2.597153086818830392
0.332000000000000184,-2.636639118414724425
0.333000000000000185,-2.674123339449265835
0.334000000000000186,-2.709653515684697478
0.335000000000000187,-2.743277819488311842
0.336000000000000187,-2.775044746306299714
0.337000000000000188,-2.805003033632937903
0.338000000000000189,-2.833201582585414435
0.339000000000000190,-2.859689382177119654
0.340000000000000191,-2.884515436366234642
0.341000000000000192,-2.907728693941782350
0.342000000000000193,-2.929377981294705613
0.343000000000000194,-2.949511938109023568
0.344000000000000195,-2.968178955995295354
0.345000000000000195,-2.985427120078026242
0.346000000000000196,-3.001304153537540209
0.347000000000000197,-3.015857365097661891
0.348000000000000198,-3.029133599441575342
0.349000000000000199,-3.041179190530006071
0.350000000000000200,-3.052039917788806456
0.351000000000000201,-3.061760965126027578
0.352000000000000202,-3.070386882732731415
0.353000000000000203,-3.077961551616366087
0.354000000000000203,-3.084528150810645464
0.355000000000000204,-3.090129127201604931
0.356000000000000205,-3.094806167905868488
0.357000000000000206,-3.098600175133896073
0.358000000000000207,-3.101551243467973062
0.359000000000000208,-3.103698639482717958
0.360000000000000209,-3.105080783633748620
0.361000000000000210,-3.105735234338472317
0.362000000000000210,-3.105698674172069129
0.363000000000000211,-3.105006898100558299
0.364000000000000212,-3.103694803672502722
0.365000000000000213,-3.101796383090449361
0.366000000000000214,-3.099344717083272638
0.367000000000000215,-3.096371970500752635
0.368000000000000216,-3.092909389552271904
0.369000000000000217,-3.088987300611862885
0.370000000000000218,-3.084635110513061385
0.371000000000000218,-3.079881308257578887
0.372000000000000219,-3.074753468063241346
0.373000000000000220,-3.069278253677808266
0.374000000000000221,-3.063481423886568855
0.375000000000000222,-3.057387839143184571
0.376000000000000223,-3.051021469254911800
0.377000000000000224,-3.044405402054748855
0.378000000000000225,-3.037561852995037892
0.379000000000000226,-3.030512175598585767
0.380000000000000226,-3.023276872705495943
0.381000000000000227,-3.015875608455373946
0.382000000000000228,-3.008327220946888758
0.383000000000000229,-3.000649735518292172
0.384000000000000230,-2.992860378594470738
0.385000000000000231,-2.984975592048289439
0.386000000000000232,-2.977011048025526296
0.387000000000000233,-2.968981664185043279
0.388000000000000234,-2.960901619307421129
0.389000000000000234,-2.952784369227533734
0.390000000000000235,-2.944642663048097297
0.391000000000000236,-2.936488559593410486
0.392000000000000237,-2.928333444064125324
0.393000000000000238,-2.920188044855893672
0.394000000000000239,-2.912062450506324396
0.395000000000000240,-2.903966126736656328
0.396000000000000241,-2.895907933556128633
0.397000000000000242,-2.887896142398709287
0.398000000000000242,-2.879938453263658715
0.399000000000000243,-2.872042011832710795
0.400000000000000244,-2.864213426538497753
0.401000000000000245,-2.856458785560244351
0.402000000000000246,-2.848783673724141430
0.403000000000000247,-2.841193189287403165
0.404000000000000248,-2.833691960586282477
0.405000000000000249,-2.826284162529718369
0.406000000000000250,-2.818973532921476899
0.407000000000000250,-2.811763388595077906
0.408000000000000251,-2.804656641346777057
0.409000000000000252,-2.797655813653258328
0.410000000000000253,-2.790763054161583323
0.411000000000000254,-2.783980152940221053
0.412000000000000255,-2.777308556480788670
0.413000000000000256,-2.770749382441403785
0.414000000000000257,-2.764303434123102754
0.415000000000000258,-2.757971214672116922
0.416000000000000258,-2.751752941001258002
0.417000000000000259,-2.745648557424771319
0.418000000000000260,-2.739657749001644937
0.419000000000000261,-2.733779954583130944
0.420000000000000262,-2.728014379560987912
0.421000000000000263,-2.722360008313602808
0.422000000000000264,-2.716815616347685314
0.423000000000000265,-2.711379782134003769
0.424000000000000266,-2.706050898636113367
0.425000000000000266,-2.700827184531468639
0.426000000000000267,-2.695706695124997943
0.427000000000000268,-2.690687332955561395
0.428000000000000269,-2.685766858096185761
0.429000000000000270,-2.680942898149445863
0.430000000000000271,-2.676212957939633430
0.431000000000000272,-2.671574428903869869
0.432000000000000273,-2.667024598184503770
0.433000000000000274,-2.662560657425580679
0.434000000000000274,-2.658179711276375201
0.435000000000000275,-2.653878785605269464
0.436000000000000276,-2.649654835427573296
0.437000000000000277,-2.645504752550955629
0.438000000000000278,-2.641425372942548755
0.439000000000000279,-2.637413483821868798
0.440000000000000280,-2.633465830483853409
0.441000000000000281,-2.629579122856517515
0.442000000000000282,-2.625750041797928258
0.443000000000000282,-2.621975245137114108
0.444000000000000283,-2.618251373463912124
0.445000000000000284,-2.614575055672603288
0.446000000000000285,-2.610942914264386072
0.447000000000000286,-2.607351570413894315
0.448000000000000287,-2.603797648804729192
0.449000000000000288,-2.600277782239419189
0.450000000000000289,-2.596788616028877783
0.451000000000000290,-2.593326812166716788
0.452000000000000290,-2.589889053293691568
0.453000000000000291,-2.586472046457495733
0.454000000000000292,-2.583072526673295677
0.455000000000000293,-2.579687260290159045
0.456000000000000294,-2.576313048168748843
0.457000000000000295,-2.572946728675423511
0.458000000000000296,-2.569585180498006771
0.459000000000000297,-2.566225325288355119
0.460000000000000298,-2.562864130136879304
0.461000000000000298,-2.559498609884057974
0.462000000000000299,-2.556125829274024319
0.463000000000000300,-2.552742904955122238
0.464000000000000301,-2.549347007332419146
0.465000000000000302,-2.545935362276959157
0.466000000000000303,-2.542505252696586115
0.467000000000000304,-2.539054019972997178
0.468000000000000305,-2.535579065269701449
0.469000000000000306,-2.532077850715419132
0.470000000000000306,-2.528547900467461140
0.471000000000000307,-2.524986801659368840
0.472000000000000308,-2.521392205237309447
0.473000000000000309,-2.517761826689327798
0.474000000000000310,-2.514093446671663568
0.475000000000000311,-2.510384911536237773
0.476000000000000312,-2.506634133763241401
0.477000000000000313,-2.502839092302774127
0.478000000000000314,-2.498997832829294552
0.479000000000000314,-2.495108467912700245
0.480000000000000315,-2.491169177109548105
0.481000000000000316,-2.487178206978112538
0.482000000000000317,-2.483133871020628547
0.483000000000000318,-2.479034549556170308
0.484000000000000319,-2.474878689527428843
0.485000000000000320,-2.470664804244594670
0.486000000000000321,-2.466391473069497131
0.487000000000000322,-2.462057341042986902
0.488000000000000322,-2.457661118458533966
0.489000000000000323,-2.453201580384937408
0.490000000000000324,-2.448677566140882611
0.491000000000000325,-2.444087978724096111
0.492000000000000326,-2.439431784197652053
0.493000000000000327,-2.434708011036074815
0.494000000000000328,-2.429915749433580352
0.495000000000000329,-2.425054150576966272
0.496000000000000330,-2.420122425885322670
0.497000000000000330,-2.415119846218961808
0.498000000000000331,-2.410045741059538837
0.499000000000000332,-2.404899497663622210
0.500000000000000333,-2.399680560191633560
0.501000000000000334,-2.394388428814097303
0.502000000000000335,-2.389022658797139265
0.503000000000000336,-2.383582859568992074
0.504000000000000337,-2.378068693769269881
0.505000000000000338,-2.372479876282684419
0.506000000000000338,-2.366816173258824207
0.507000000000000339,-2.361077401119555663
0.508000000000000340,-2.355263425555503609
0.509000000000000341,-2.349374160513119758
0.510000000000000342,-2.343409567173620367
0.511000000000000343,-2.337369652925201713
0.512000000000000344,-2.331254470329728878
0.513000000000000345,-2.325064116085142185
0.514000000000000346,-2.318798729984775431
0.515000000000000346,-2.312458493874604226
0.516000000000000347,-2.306043630609555972
0.517000000000000348,-2.299554403009905545
0.518000000000000349,-2.292991112818622668
0.519000000000000350,-2.286354099660723449
0.520000000000000351,-2.279643740005369068
0.521000000000000352,-2.272860446131674372
0.522000000000000353,-2.266004665098875215
0.523000000000000353,-2.259076877721728493
0.524000000000000354,-2.252077597551790156
0.525000000000000355,-2.245007369865242630
0.526000000000000356,-2.237866770657928051
0.527000000000000357,-2.230656405648189899
0.528000000000000358,-2.223376909288053760
0.529000000000000359,-2.216028943783331151
0.530000000000000360,-2.208613198123075438
0.531000000000000361,-2.201130387118936049
0.532000000000000361,-2.193581250454792908
0.533000000000000362,-2.185966551747091202
0.534000000000000363,-2.178287077616274381
0.535000000000000364,-2.170543636769649343
0.536000000000000365,-2.162737059096009773
0.537000000000000366,-2.154868194772352474
0.538000000000000367,-2.146937913382883423
0.539000000000000368,-2.138947103050696796
0.540000000000000369,-2.130896669582199365
0.541000000000000369,-2.122787535624657274
0.542000000000000370,-2.114620639836884752
0.543000000000000371,-2.106396936073388737
0.544000000000000372,-2.098117392582028895
0.545000000000000373,-2.089782991215359598
0.546000000000000374,-2.081394726655756422
0.547000000000000375,-2.072953605654412890
0.548000000000000376,-2.064460646284326906
0.549000000000000377,-2.055916877207293325
0.550000000000000377,-2.047323336954975925
0.551000000000000378,-2.038681073224082319
0.552000000000000379,-2.029991142185694208
0.553000000000000380,-2.021254607808717019
0.554000000000000381,-2.012472541197455111
0.555000000000000382,-2.003646019943361001
0.556000000000000383,-1.994776127490795137
0.557000000000000384,-1.985863952516931707
0.558000000000000385,-1.976910588325594631
0.559000000000000385,-1.967917132255097457
0.560000000000000386,-1.958884685099944623
0.561000000000000387,-1.949814350546347441
0.562000000000000388,-1.940707234621457999
0.563000000000000389,-1.931564445156255916
0.564000000000000390,-1.922387091261955616
0.565000000000000391,-1.913176282819850638
0.566000000000000392,-1.903933129984475059
0.567000000000000393,-1.894658742699989684
0.568000000000000393,-1.885354230229605133
0.569000000000000394,-1.876020700697990318
0.570000000000000395,-1.866659260646500229
0.571000000000000396,-1.857271014601045378
0.572000000000000397,-1.847857064652546510
0.573000000000000398,-1.838418510049746102
0.574000000000000399,-1.828956446804280489
0.575000000000000400,-1.819471967307825677
0.576000000000000401,-1.809966159961168497
0.577000000000000401,-1.800440108815088980
0.578000000000000402,-1.790894893222802597
0.579000000000000403,-1.781331587503868663
0.580000000000000404,-1.771751260619403912
0.581000000000000405,-1.762154975858361894
0.582000000000000406,-1.752543790534795587
0.583000000000000407,-1.742918755695866295
0.584000000000000408,-1.733280915840464953
0.585000000000000409,-1.723631308648262417
0.586000000000000409,-1.713970964718989576
0.587000000000000410,-1.704300907321843583
0.588000000000000411,-1.694622152154733552
0.589000000000000412,-1.684935707113322634
0.590000000000000413,-1.675242572069565394
0.591000000000000414,-1.665543738659655215
0.592000000000000415,-1.655840190081176999
0.593000000000000416,-1.646132900899258455
0.594000000000000417,-1.636422836861594732
0.595000000000000417,-1.626710954722175639
0.596000000000000418,-1.616998202073448798
0.597000000000000419,-1.607285517186908264
0.598000000000000420,-1.597573828861750922
0.599000000000000421,-1.587864056281599989
0.600000000000000422,-1.578157108879007398
0.601000000000000423,-1.568453886207606951
0.602000000000000424,-1.558755277821774143
0.603000000000000425,-1.549062163163599237
0.604000000000000425,-1.539375411456986864
0.605000000000000426,-1.529695881608776009
0.606000000000000427,-1.520024422116697638
0.607000000000000428,-1.510361870983930599
0.608000000000000429,-1.500709055640277345
0.609000000000000430,-1.491066792869571334
0.610000000000000431,-1.481435888743381835
0.611000000000000432,-1.471817138560698401
0.612000000000000433,-1.462211326793519506
0.613000000000000433,-1.452619227038204119
