# TricalciumSilicate-Wet-001_BSAI27
# h[nm],U(h)[kJ/mol]
0.149999999999999994,130.769055232949710899
0.150999999999999995,128.039762034448159511
0.151999999999999996,125.507559584470641312
0.152999999999999997,123.014895586502277069
0.153999999999999998,120.520941671776796511
0.154999999999999999,118.033250847462255706
0.156000000000000000,115.572903088710774000
0.157000000000000001,113.158799603083778607
0.158000000000000002,110.802306471175967317
0.159000000000000002,108.507010340972186668
0.160000000000000003,106.270597357890210333
0.161000000000000004,104.087253133259224569
0.162000000000000005,101.949810653047805431
0.163000000000000006,99.851347834227638600
0.164000000000000007,97.786191143082504595
0.165000000000000008,95.750403717953830096
0.166000000000000009,93.741881789551243287
0.167000000000000010,91.760186980077065755
0.168000000000000010,89.806225691887604512
0.169000000000000011,87.881862808830902623
0.170000000000000012,85.989532253813834473
0.171000000000000013,84.131885031020871679
0.172000000000000014,82.311497619843507323
0.173000000000000015,80.530650200448548048
0.174000000000000016,78.791174792338807720
0.175000000000000017,77.094367326963762821
0.176000000000000018,75.440954236782971520
0.177000000000000018,73.831102650291128953
0.178000000000000019,72.264463151069534774
0.179000000000000020,70.740234813405322711
0.180000000000000021,69.257243499090506589
0.181000000000000022,67.814025917261446352
0.182000000000000023,66.408913519855346408
0.183000000000000024,65.040111802506714866
0.184000000000000025,63.705771927464901694
0.185000000000000026,62.404052741399709703
0.186000000000000026,61.133172213105567039
0.187000000000000027,59.891448068240414671
0.188000000000000028,58.677327965681570277
0.189000000000000029,57.489409964491088090
0.190000000000000030,56.326454296285376699
0.191000000000000031,55.187387609764769536
0.192000000000000032,54.071300915804542342
0.193000000000000033,52.977442454159032081
0.194000000000000034,51.905206645123442399
0.195000000000000034,50.854120197201723386
0.196000000000000035,49.823826327917501544
0.197000000000000036,48.814067929733838014
0.198000000000000037,47.824670384629385467
0.199000000000000038,46.855524605190531418
0.200000000000000039,45.906570761380010026
0.201000000000000040,44.977783043262256513
0.202000000000000041,44.069155712605535768
0.203000000000000042,43.180690611233799814
0.204000000000000042,42.312386221391776076
0.205000000000000043,41.464228312835480494
0.206000000000000044,40.636182162139178331
0.207000000000000045,39.828186290871109065
0.208000000000000046,39.040147639747139863
0.209000000000000047,38.271938074490819304
0.210000000000000048,37.523392104770401545
0.211000000000000049,36.794305689155166306
0.212000000000000050,36.084435995504392736
0.213000000000000050,35.393501986636593415
0.214000000000000051,34.721185704674141448
0.215000000000000052,34.067134133379646244
0.216000000000000053,33.430961525447926874
0.217000000000000054,32.812252090540155791
0.218000000000000055,32.210562949388467757
0.219000000000000056,31.625427269177418310
0.220000000000000057,31.056357505318857193
0.221000000000000058,30.502848684443904403
0.222000000000000058,29.964381672748594099
0.223000000000000059,29.440426382623410717
0.224000000000000060,28.930444878671551123
0.225000000000000061,28.433894351722198479
0.226000000000000062,27.950229936241367312
0.227000000000000063,27.478907352626556815
0.228000000000000064,27.019385361254354194
0.229000000000000065,26.571128019853894386
0.230000000000000066,26.133606739839841282
0.231000000000000066,25.706302140696237757
0.232000000000000067,25.288705704403529495
0.233000000000000068,24.880321234292992472
0.234000000000000069,24.480666124645185988
0.235000000000000070,24.089272448870495680
0.236000000000000071,23.705687875268047549
0.237000000000000072,23.329476420198588471
0.238000000000000073,22.960219049070708763
0.239000000000000073,22.597514135868141949
0.240000000000000074,22.240977792072776253
0.241000000000000075,21.890244075799991208
0.242000000000000076,21.544965091786899336
0.243000000000000077,21.204810992588082996
0.244000000000000078,20.869469890960665737
0.245000000000000079,20.538647692981459869
0.246000000000000080,20.212067860951925979
0.247000000000000081,19.889471114626026349
0.248000000000000081,19.570615078756208760
0.249000000000000082,19.255273884403404594
0.250000000000000111,18.943237730908169425
0.251000000000000112,18.634312414878621667
0.252000000000000113,18.328318832022297613
0.253000000000000114,18.025092457140392099
0.254000000000000115,17.724482807113382421
0.255000000000000115,17.426352891244210497
0.256000000000000116,17.130578652886271129
0.257000000000000117,16.837048405873005663
0.258000000000000118,16.545662268882164625
0.259000000000000119,16.256331600511749969
0.260000000000000120,15.968978437515366053
0.261000000000000121,15.683534938342251763
0.262000000000000122,15.399942833849703305
0.263000000000000123,15.118152886802750601
0.264000000000000123,14.838124361545672159
0.265000000000000124,14.559824505021978780
0.266000000000000125,14.283228040131016101
0.267000000000000126,14.008316672241036827
0.268000000000000127,13.735078609526064852
0.269000000000000128,13.463508097659541818
0.270000000000000129,13.193604969276796268
0.271000000000000130,12.925374208511247076
0.272000000000000131,12.658825530815283500
0.273000000000000131,12.393972978193023238
0.274000000000000132,12.130834529899084728
0.275000000000000133,11.869431728593617947
0.276000000000000134,11.609789321887664215
0.277000000000000135,11.351934919164969884
0.278000000000000136,11.095898663523943384
0.279000000000000137,10.841712918647633757
0.280000000000000138,10.589411970378810324
0.281000000000000139,10.339031742750719900
0.282000000000000139,10.090609528201991196
0.283000000000000140,9.844183731685586025
0.284000000000000141,9.599793628366047216
0.285000000000000142,9.357479134586672131
0.286000000000000143,9.117280591777984000
0.287000000000000144,8.879238562970606097
0.288000000000000145,8.643393641569247166
0.289000000000000146,8.409786272040271626
0.290000000000000147,8.178456582161349075
0.291000000000000147,7.949444226480399500
0.292000000000000148,7.722788240629415490
0.293000000000000149,7.498526906139386661
0.294000000000000150,7.276697625402886338
0.295000000000000151,7.057336806432720877
0.296000000000000152,6.840479757067147837
0.297000000000000153,6.626160588275004315
0.298000000000000154,6.414412126217245991
0.299000000000000155,6.205265832725179287
0.300000000000000155,5.998751733859736035
0.301000000000000156,5.794898356220733682
0.302000000000000157,5.593732670679441910
0.303000000000000158,5.395280043213356969
0.304000000000000159,5.199564192526875850
0.305000000000000160,5.006607154147459049
0.306000000000000161,4.816429250692392472
0.307000000000000162,4.629049068007240919
0.308000000000000163,4.444483436883185590
0.309000000000000163,4.262747420066680171
0.310000000000000164,4.083854304281198999
0.311000000000000165,3.907815596987385565
0.312000000000000166,3.734641027614487907
0.313000000000000167,3.564338553002674992
0.314000000000000168,3.396914366802676000
0.315000000000000169,3.232372912585903091
0.316000000000000170,3.070716900425263685
0.317000000000000171,2.911947326713691275
0.318000000000000171,2.756063496994680229
0.319000000000000172,2.603063051585651877
0.320000000000000173,2.452941993782542074
0.321000000000000174,2.305694720440671919
0.322000000000000175,2.161314054734076784
0.323000000000000176,2.019791280902525354
0.324000000000000177,1.881116180802330673
0.325000000000000178,1.745277072084116643
0.326000000000000179,1.612260847827354127
0.327000000000000179,1.482053017468626610
0.328000000000000180,1.354637748867002056
0.329000000000000181,1.229997911356781604
0.330000000000000182,1.108115119644464297
0.331000000000000183,0.988969778413103073
0.332000000000000184,0.872541127503841496
0.333000000000000185,0.758807287550617993
0.334000000000000186,0.647745305950130690
0.335000000000000187,0.539331203055402386
0.336000000000000187,0.433540018486943624
0.337000000000000188,0.330345857461734060
0.338000000000000189,0.229721937045454905
0.339000000000000190,0.131640632239239330
0.340000000000000191,0.036073521817629309
0.341000000000000192,-0.057008566160560381
0.342000000000000193,-0.147635509241418467
0.343000000000000194,-0.235837845933327461
0.344000000000000195,-0.321646731595662427
0.345000000000000195,-0.405093894917685327
0.346000000000000196,-0.486211595041509681
0.347000000000000197,-0.565032579379026068
0.348000000000000198,-0.641590042168327712
0.349000000000000199,-0.715917583811132685
0.350000000000000200,-0.788049171028880169
0.351000000000000201,-0.858019097871372316
0.352000000000000202,-0.925861947608243030
0.353000000000000203,-0.991612555530162254
0.354000000000000203,-1.055305972683391547
0.355000000000000204,-1.116977430557991591
0.356000000000000205,-1.176662306747252140
0.357000000000000206,-1.234396091592953493
0.358000000000000207,-1.290214355828150472
0.359000000000000208,-1.344152719226932691
0.360000000000000209,-1.396246820267984301
0.361000000000000210,-1.446532286816356372
0.362000000000000210,-1.495044707825931019
0.363000000000000211,-1.541819606062759807
0.364000000000000212,-1.586892411847688367
0.365000000000000213,-1.630298437814715395
0.366000000000000214,-1.672072854679953924
0.367000000000000215,-1.712250668014350552
0.368000000000000216,-1.750866696012009838
0.369000000000000217,-1.787955548244281712
0.370000000000000218,-1.823551605388898711
0.371000000000000218,-1.857688999921828898
0.372000000000000219,-1.890401597758784691
0.373000000000000220,-1.921722980832137662
0.374000000000000221,-1.951686430588107424
0.375000000000000222,-1.980324912388183423
0.376000000000000223,-2.007671060798284834
0.377000000000000224,-2.033757165748073970
0.378000000000000225,-2.058615159542564577
0.379000000000000226,-2.082276604707415935
0.380000000000000226,-2.104772682649106663
0.381000000000000227,-2.126134183110369058
0.382000000000000228,-2.146391494401431288
0.383000000000000229,-2.165574594386860063
0.384000000000000230,-2.183713042207849675
0.385000000000000231,-2.200835970719624779
0.386000000000000232,-2.216972079623241498
0.387000000000000233,-2.232149629271384494
0.388000000000000234,-2.246396435127271829
0.389000000000000234,-2.259739862856191550
0.390000000000000235,-2.272206824028928818
0.391000000000000236,-2.283823772416564868
0.392000000000000237,-2.294616700856197955
0.393000000000000238,-2.304611138667292725
0.394000000000000239,-2.313832149598441745
0.395000000000000240,-2.322304330284670648
0.396000000000000241,-2.330051809195500034
0.397000000000000242,-2.337098246054220230
0.398000000000000242,-2.343466831709259957
0.399000000000000243,-2.349180288438524222
0.400000000000000244,-2.354260870668158034
0.401000000000000245,-2.358730366087341768
0.402000000000000246,-2.362610097141030874
0.403000000000000247,-2.365920922883018473
0.404000000000000248,-2.368683241171932075
0.405000000000000249,-2.370916991193199319
0.406000000000000250,-2.372641656290312984
0.407000000000000250,-2.373876267089210401
0.408000000000000251,-2.374639404899851591
0.409000000000000252,-2.374949205379536910
0.410000000000000253,-2.374823362442854968
0.411000000000000254,-2.374279132403590342
0.412000000000000255,-2.373333338334215448
0.413000000000000256,-2.372002374629182064
0.414000000000000257,-2.370302211758323896
0.415000000000000258,-2.368248401197437847
0.416000000000000258,-2.365856080523170313
0.417000000000000259,-2.363139978659977825
0.418000000000000260,-2.360114421267167639
0.419000000000000261,-2.356793336254511928
0.420000000000000262,-2.353190259415217422
0.421000000000000263,-2.349318340165567509
0.422000000000000264,-2.345190347380692764
0.423000000000000265,-2.340818675316559183
0.424000000000000266,-2.336215349608483649
0.425000000000000266,-2.331392033336812109
0.426000000000000267,-2.326360033150913331
0.427000000000000268,-2.321130305442831165
0.428000000000000269,-2.315713462562350333
0.429000000000000270,-2.310119779065631374
0.430000000000000271,-2.304359197989731989
0.431000000000000272,-2.298441337145888053
0.432000000000000273,-2.292375495424506582
0.433000000000000274,-2.286170659105338121
0.434000000000000274,-2.279835508166466962
0.435000000000000275,-2.273378422586108449
0.436000000000000276,-2.266807488631507717
0.437000000000000277,-2.260130505129457568
0.438000000000000278,-2.253354989713289847
0.439000000000000279,-2.246488185041461527
0.440000000000000280,-2.239537064983043280
0.441000000000000281,-2.232508340765736676
0.442000000000000282,-2.225408467082359287
0.443000000000000282,-2.218243648151754677
0.444000000000000283,-2.211019843730598566
0.445000000000000284,-2.203742775072571547
0.446000000000000285,-2.196417930831664922
0.447000000000000286,-2.189050572906720227
0.448000000000000287,-2.181645742224204820
0.449000000000000288,-2.174208264456808148
0.450000000000000289,-2.166742755675263865
0.451000000000000290,-2.159253627931257302
0.452000000000000290,-2.151745094769362154
0.453000000000000291,-2.144221176666016415
0.454000000000000292,-2.136685706393933071
0.455000000000000293,-2.129142334310273110
0.456000000000000294,-2.121594533567220608
0.457000000000000295,-2.114045605243682679
0.458000000000000296,-2.106498683396940574
0.459000000000000297,-2.098956740033317558
0.460000000000000298,-2.091422589996928760
0.461000000000000298,-2.083898895775828652
0.462000000000000299,-2.076388172224882478
0.463000000000000300,-2.068892791204867798
0.464000000000000301,-2.061414986137398486
0.465000000000000302,-2.053956856475370518
0.466000000000000303,-2.046520372088707962
0.467000000000000304,-2.039107377565328783
0.468000000000000305,-2.031719596427256747
0.469000000000000306,-2.024358635261990891
0.470000000000000306,-2.017025987769276441
0.471000000000000307,-2.009723038723415289
0.472000000000000308,-2.002451067851516608
0.473000000000000309,-1.995211253627978909
0.474000000000000310,-1.988004676985619223
0.475000000000000311,-1.980832324943965661
0.476000000000000312,-1.973695094155258900
0.477000000000000313,-1.966593794368706849
0.478000000000000314,-1.959529151813678371
0.479000000000000314,-1.952501812502531520
0.480000000000000315,-1.945512345453767278
0.481000000000000316,-1.938561245836343927
0.482000000000000317,-1.931648938035917196
0.483000000000000318,-1.924775778643889712
0.484000000000000319,-1.917942059370129071
0.485000000000000320,-1.911148009880289989
0.486000000000000321,-1.904393800558669358
0.487000000000000322,-1.897679545197571427
0.488000000000000322,-1.891005303614126332
0.489000000000000323,-1.884371084195674229
0.490000000000000324,-1.877776846374636488
0.491000000000000325,-1.871222503033992179
0.492000000000000326,-1.864707922844376142
0.493000000000000327,-1.858232932533924853
0.494000000000000328,-1.851797319091903704
0.495000000000000329,-1.845400831907262340
0.496000000000000330,-1.839043184843158318
0.497000000000000330,-1.832724058248671906
0.498000000000000331,-1.826443100908665240
0.499000000000000332,-1.820199931933082826
0.500000000000000333,-1.813994142586703884
0.501000000000000334,-1.807825298060478758
0.502000000000000335,-1.801692939185639775
0.503000000000000336,-1.795596584091642800
0.504000000000000337,-1.789535729809095699
0.505000000000000338,-1.783509853818795676
0.506000000000000338,-1.777518415547953312
0.507000000000000339,-1.771560857814781897
0.508000000000000340,-1.765636608222461490
0.509000000000000341,-1.759745080503700265
0.510000000000000342,-1.753885675816840628
0.511000000000000343,-1.748057783994732217
0.512000000000000344,-1.742260784747332591
0.513000000000000345,-1.736494048819160252
0.514000000000000346,-1.730756939102680247
0.515000000000000346,-1.725048811708580043
0.516000000000000347,-1.719369016994043209
0.517000000000000348,-1.713716900550042554
0.518000000000000349,-1.708091804148604620
0.519000000000000350,-1.702493066651126430
0.520000000000000351,-1.696920024878637800
0.521000000000000352,-1.691372014445107208
0.522000000000000353,-1.685848370554604569
0.523000000000000353,-1.680348428763389190
0.524000000000000354,-1.674871525707811504
0.525000000000000355,-1.669416999798935874
0.526000000000000356,-1.663984191884804842
0.527000000000000357,-1.658572445881262070
0.528000000000000358,-1.653181109372154678
0.529000000000000359,-1.647809534179852209
0.530000000000000360,-1.642457076906848501
0.531000000000000361,-1.637123099449372843
0.532000000000000361,-1.631806969483744041
0.533000000000000362,-1.626508060926342036
0.534000000000000363,-1.621225754367939587
0.535000000000000364,-1.615959437483212024
0.536000000000000365,-1.610708505416135639
0.537000000000000366,-1.605472361142092241
0.538000000000000367,-1.600250415807319415
0.539000000000000368,-1.595042089046539546
0.540000000000000369,-1.589846809279349849
0.541000000000000369,-1.584664013986177178
0.542000000000000370,-1.579493149964358967
0.543000000000000371,-1.574333673565121883
0.544000000000000372,-1.569185050912013324
0.545000000000000373,-1.564046758101482304
0.546000000000000374,-1.558918281386186377
0.547000000000000375,-1.553799117341642333
0.548000000000000376,-1.548688773016829945
0.549000000000000377,-1.543586766069291460
0.550000000000000377,-1.538492624885329230
0.551000000000000378,-1.533405888685798857
0.552000000000000379,-1.528326107618111163
0.553000000000000380,-1.523252842834890819
0.554000000000000381,-1.518185666559830782
0.555000000000000382,-1.513124162141302298
0.556000000000000383,-1.508067924094065315
0.557000000000000384,-1.503016558129733671
0.558000000000000385,-1.497969681176278600
0.559000000000000385,-1.492926921387163430
0.560000000000000386,-1.487887918140471388
0.561000000000000387,-1.482852322028465064
0.562000000000000388,-1.477819794837998746
0.563000000000000389,-1.472790009522209287
0.564000000000000390,-1.467762650163836335
0.565000000000000391,-1.462737411930580489
0.566000000000000392,-1.457714001022858419
0.567000000000000393,-1.452692134614365527
0.568000000000000393,-1.447671540785690159
0.569000000000000394,-1.442651958451424354
0.570000000000000395,-1.437633137281078444
0.571000000000000396,-1.432614837614048842
0.572000000000000397,-1.427596830369069592
0.573000000000000398,-1.422578896948342164
0.574000000000000399,-1.417560829136700118
0.575000000000000400,-1.412542428996080623
0.576000000000000401,-1.407523508755533337
0.577000000000000401,-1.402503890697138322
0.578000000000000402,-1.397483407037959369
0.579000000000000403,-1.392461899808369541
0.580000000000000404,-1.387439220726996769
0.581000000000000405,-1.382415231072446904
0.582000000000000406,-1.377389801552122206
0.583000000000000407,-1.372362812168277824
0.584000000000000408,-1.367334152081586041
0.585000000000000409,-1.362303719472372610
0.586000000000000409,-1.357271421399730338
0.587000000000000410,-1.352237173658740854
0.588000000000000411,-1.347200900635896703
0.589000000000000412,-1.342162535163022197
0.590000000000000413,-1.337122018369741649
0.591000000000000414,-1.332079299534753014
0.592000000000000415,-1.327034335936021714
0.593000000000000416,-1.321987092700034783
0.594000000000000417,-1.316937542650297832
0.595000000000000417,-1.311885666155216956
0.596000000000000418,-1.306831450975423969
0.597000000000000419,-1.301774892110810544
0.598000000000000420,-1.296715991647241939
0.599000000000000421,-1.291654758603209219
0.600000000000000422,-1.286591208776444173
0.601000000000000423,-1.281525364590616167
0.602000000000000424,-1.276457254942282127
0.603000000000000425,-1.271386915048109412
0.604000000000000425,-1.266314386292501259
0.605000000000000426,-1.261239716075730488
0.606000000000000427,-1.256162957662668500
0.607000000000000428,-1.251084170032120024
0.608000000000000429,-1.246003417727003182
0.609000000000000430,-1.240920770705244314
0.610000000000000431,-1.235836304191653801
0.611000000000000432,-1.230750098530716929
0.612000000000000433,-1.225662239040417489
0.613000000000000433,-1.220572815867176253
