# TricalciumSilicate-Wet-001_BSAIV10
# h[nm],U(h)[kJ/mol]
0.149999999999999994,112.246862727205282795
0.150999999999999995,109.409253233795340066
0.151999999999999996,107.091252125051894950
0.152999999999999997,104.901971430073558622
0.153999999999999998,102.703626562578250514
0.154999999999999999,100.475407097242765531
0.156000000000000000,98.240458167069377282
0.157000000000000001,96.029954851857425524
0.158000000000000002,93.868031835626780435
0.159000000000000002,91.767691021913520899
0.160000000000000003,89.731880503696515916
0.161000000000000004,87.756491920256777917
0.162000000000000005,85.833584376070376720
0.163000000000000006,83.954064918736861500
0.164000000000000007,82.109573484689505563
0.165000000000000008,80.293589270688528359
0.166000000000000009,78.501896310743191520
0.167000000000000010,76.732582765096708499
0.168000000000000010,74.985740977154918596
0.169000000000000011,73.263007793505607879
0.170000000000000012,71.567050839724586808
0.171000000000000013,69.901073845581535693
0.172000000000000014,68.268386232662351176
0.173000000000000015,66.672060221570887961
0.174000000000000016,65.114682615970835400
0.175000000000000017,63.598197475580434457
0.176000000000000018,62.123829151854849329
0.177000000000000018,60.692071653362255290
0.178000000000000019,59.302729145304944325
0.179000000000000020,57.954992819913897506
0.180000000000000021,56.647540803155472133
0.181000000000000022,55.378649732879935641
0.182000000000000023,54.146308823741506444
0.183000000000000024,52.948329397755763637
0.184000000000000025,51.782444860781822626
0.185000000000000026,50.646397861180567190
0.186000000000000026,49.538012839410171750
0.187000000000000027,48.455253360011269592
0.188000000000000028,47.396264524766586135
0.189000000000000029,46.359401424833258432
0.190000000000000030,45.343245033891136586
0.191000000000000031,44.346607209586451859
0.192000000000000032,43.368526591832747386
0.193000000000000033,42.408257196367102893
0.194000000000000034,41.465251429268519701
0.195000000000000034,40.539139117762886144
0.196000000000000035,39.629703985261649279
0.197000000000000036,38.736858810923720853
0.198000000000000037,37.860620319180888771
0.199000000000000038,37.001084652508083650
0.200000000000000039,36.158404098384373526
0.201000000000000040,35.332765573719704832
0.202000000000000041,34.524371219990875659
0.203000000000000042,33.733421331439544133
0.204000000000000042,32.960099727297574645
0.205000000000000043,32.204561586646804017
0.206000000000000044,31.466923690113254963
0.207000000000000045,30.747256954675208362
0.208000000000000046,30.045581104721559740
0.209000000000000047,29.361861292318042871
0.210000000000000048,28.696006460595704368
0.211000000000000049,28.047869234492974755
0.212000000000000050,27.417247121089037165
0.213000000000000050,26.803884805930163537
0.214000000000000051,26.207477340689433021
0.215000000000000052,25.627674029997354666
0.216000000000000053,25.064082840283425924
0.217000000000000054,24.516275170076522016
0.218000000000000055,23.983790838679475144
0.219000000000000056,23.466143167846507112
0.220000000000000057,22.962824048561429890
0.221000000000000058,22.473308901863465081
0.222000000000000058,21.997061458605990936
0.223000000000000059,21.533538297865259636
0.224000000000000060,21.082193097303484564
0.225000000000000061,20.642480561059695532
0.226000000000000062,20.213860001664521349
0.227000000000000063,19.795798562059310655
0.228000000000000064,19.387774072085459665
0.229000000000000065,18.989277540855667326
0.230000000000000066,18.599815292302999126
0.231000000000000066,18.218910756012199670
0.232000000000000067,17.846105929265196011
0.233000000000000068,17.480962529175741338
0.234000000000000069,17.123062855943448568
0.235000000000000070,16.772010389720179546
0.236000000000000071,16.427430144443849969
0.237000000000000072,16.088968802340424702
0.238000000000000073,15.756294652707211412
0.239000000000000073,15.429097358142664476
0.240000000000000074,15.107087570645916230
0.241000000000000075,14.789996419037134245
0.242000000000000076,14.477574887998731157
0.243000000000000077,14.169593107757185280
0.244000000000000078,13.865839572056618323
0.245000000000000079,13.566120300654304742
0.246000000000000080,13.270257961126512569
0.247000000000000081,12.978090963333865915
0.248000000000000081,12.689472538483162367
0.249000000000000082,12.404269813351499252
0.250000000000000111,12.122362888924117286
0.251000000000000112,11.843643931449218343
0.252000000000000113,11.568016282738332379
0.253000000000000114,11.295393595446469703
0.254000000000000115,11.025698998052959610
0.255000000000000115,10.758864293335328455
0.256000000000000116,10.494829193282797064
0.257000000000000117,10.233540592632985877
0.258000000000000118,9.974951882532476333
0.259000000000000119,9.719022305215565538
0.260000000000000120,9.465716350062606921
0.261000000000000121,9.215003190936064570
0.262000000000000122,8.966856164293206533
0.263000000000000123,8.721252287236271883
0.264000000000000123,8.478171814377642335
0.265000000000000124,8.237597832165777234
0.266000000000000125,7.999515889131963320
0.267000000000000126,7.763913660374067938
0.268000000000000127,7.530780644486948283
0.269000000000000128,7.300107891076474509
0.270000000000000129,7.071887756950323123
0.271000000000000130,6.846113689060774554
0.272000000000000131,6.622780032279306894
0.273000000000000131,6.401881860106151123
0.274000000000000132,6.183414826457692470
0.275000000000000133,5.967375036727510462
0.276000000000000134,5.753758936380924283
0.277000000000000135,5.542563215415929889
0.278000000000000136,5.333784727102584000
0.279000000000000137,5.127420419497690673
0.280000000000000138,4.923467278319748175
0.281000000000000139,4.721922279858742577
0.282000000000000139,4.522782352686692597
0.283000000000000140,4.326044347025110426
0.284000000000000141,4.131705010715384319
0.285000000000000142,3.939760970825615605
0.286000000000000143,3.750208720012758956
0.287000000000000144,3.563044606841302198
0.288000000000000145,3.378264829338223585
0.289000000000000146,3.195865431139761625
0.290000000000000147,3.015842299656102732
0.291000000000000147,2.838191165747891098
0.292000000000000148,2.662907604470844625
0.293000000000000149,2.489987036504067941
0.294000000000000150,2.319424729931714335
0.295000000000000151,2.151215802098292329
0.296000000000000152,1.985355221303910067
0.297000000000000153,1.821837808148282223
0.298000000000000154,1.660658236370394336
0.299000000000000155,1.501811033065681755
0.300000000000000155,1.345290578193455211
0.301000000000000156,1.191091103315445432
0.302000000000000157,1.039206689530433270
0.303000000000000158,0.889631264592004145
0.304000000000000159,0.742358599214957726
0.305000000000000160,0.597382302592198378
0.306000000000000161,0.454695817157711901
0.307000000000000162,0.314292412642653729
0.308000000000000163,0.176165179481147238
0.309000000000000163,0.040307021629964267
0.310000000000000164,-0.093289351127899683
0.311000000000000165,-0.224631431321384939
0.312000000000000166,-0.353726922293931600
0.313000000000000167,-0.480583746991423588
0.314000000000000168,-0.605210056955832409
0.315000000000000169,-0.727614241445363796
0.316000000000000170,-0.847804936603001380
0.317000000000000171,-0.965791034597420994
0.318000000000000171,-1.081581692662603844
0.319000000000000172,-1.195186341965970289
0.320000000000000173,-1.306614696237990314
0.321000000000000174,-1.415876760100394538
0.322000000000000175,-1.522982837034261516
0.323000000000000176,-1.627943536933554425
0.324000000000000177,-1.730769783194408884
0.325000000000000178,-1.831472819294877041
0.326000000000000179,-1.930064214824853908
0.327000000000000179,-2.026555870930238257
0.328000000000000180,-2.120960025140351313
0.329000000000000181,-2.213289255552045809
0.330000000000000182,-2.303556484348384892
0.331000000000000183,-2.391774980634362446
0.332000000000000184,-2.477958362576015983
0.333000000000000185,-2.562120598833542040
0.334000000000000186,-2.644276009282834128
0.335000000000000187,-2.724439265023425261
0.336000000000000187,-2.802625387674500423
0.337000000000000188,-2.878849747963508232
0.338000000000000189,-2.953128063615388044
0.339000000000000190,-3.025476396552975622
0.340000000000000191,-3.095911149421644470
0.341000000000000192,-3.164449061454026157
0.342000000000000193,-3.231107203692404006
0.343000000000000194,-3.295902973588657581
0.344000000000000195,-3.358854089003057375
0.345000000000000195,-3.419978581625252367
0.346000000000000196,-3.479294789841599567
0.347000000000000197,-3.536821351074609598
0.348000000000000198,-3.592577193621089293
0.349000000000000199,-3.646581528016329621
0.350000000000000200,-3.698853837952603474
0.351000000000000201,-3.749413870780456737
0.352000000000000202,-3.798281627621862278
0.353000000000000203,-3.845477353124417963
0.354000000000000203,-3.891021524886001171
0.355000000000000204,-3.934934842579050240
0.356000000000000205,-3.977238216803751669
0.357000000000000206,-4.017952757699159605
0.358000000000000207,-4.057099763340645815
0.359000000000000208,-4.094700707952101837
0.360000000000000209,-4.130777229960576946
0.361000000000000210,-4.165351119920385869
0.362000000000000210,-4.198444308333369790
0.363000000000000211,-4.230078853391038507
0.364000000000000212,-4.260276928663767393
0.365000000000000213,-4.289060810761332831
0.366000000000000214,-4.316452866988295334
0.367000000000000215,-4.342475543016858452
0.368000000000000216,-4.367151350599046467
0.369000000000000217,-4.390502855338939803
0.370000000000000218,-4.412552664545041026
0.371000000000000218,-4.433323415181678051
0.372000000000000219,-4.452837761937543881
0.373000000000000220,-4.471118365428579544
0.374000000000000221,-4.488187880551218534
0.375000000000000222,-4.504068945001305835
0.376000000000000223,-4.518784167973016075
0.377000000000000224,-4.532356119051042853
0.378000000000000225,-4.544807317308548811
0.379000000000000226,-4.556160220622325063
0.380000000000000226,-4.566437215215945145
0.381000000000000227,-4.575660605440445394
0.382000000000000228,-4.583852603801654269
0.383000000000000229,-4.591035321242067369
0.384000000000000230,-4.597230757684552138
0.385000000000000231,-4.602460792844447646
0.386000000000000232,-4.606747177315511976
0.387000000000000233,-4.610111523934933508
0.388000000000000234,-4.612575299431354026
0.389000000000000234,-4.614159816359665101
0.390000000000000235,-4.614886225325277813
0.391000000000000236,-4.614775507500160856
0.392000000000000237,-4.613848467432226208
0.393000000000000238,-4.612125726149130855
0.394000000000000239,-4.609627714556863154
0.395000000000000240,-4.606374667133133372
0.396000000000000241,-4.602386615914968004
0.397000000000000242,-4.597683384779378990
0.398000000000000242,-4.592284584015722260
0.399000000000000243,-4.586209605187675287
0.400000000000000244,-4.579477616282572328
0.401000000000000245,-4.572107557145367984
0.402000000000000246,-4.564118135194098258
0.403000000000000247,-4.555527821413481782
0.404000000000000248,-4.546354846622934431
0.405000000000000249,-4.536617198015006736
0.406000000000000250,-4.526332615959927530
0.407000000000000250,-4.515518591071824517
0.408000000000000251,-4.504192361531842437
0.409000000000000252,-4.492370910663249894
0.410000000000000253,-4.480070964753418927
0.411000000000000254,-4.467308991117416639
0.412000000000000255,-4.454101196397742157
0.413000000000000256,-4.440463525094755504
0.414000000000000257,-4.426411658322000342
0.415000000000000258,-4.411961012780806435
0.416000000000000258,-4.397126739948214791
0.417000000000000259,-4.381923725472395503
0.418000000000000260,-4.366366588769539092
0.419000000000000261,-4.350469682816285655
0.420000000000000262,-4.334247094131575828
0.421000000000000263,-4.317712642941985202
0.422000000000000264,-4.300879883524362235
0.423000000000000265,-4.283762104719831321
0.424000000000000266,-4.266372330613084074
0.425000000000000266,-4.248723321370933448
0.426000000000000267,-4.230827574234190536
0.427000000000000268,-4.212697324656904385
0.428000000000000269,-4.194344547587066430
0.429000000000000270,-4.175780958883033911
0.430000000000000271,-4.157018016859736598
0.431000000000000272,-4.138066923959169863
0.432000000000000273,-4.118938628539373425
0.433000000000000274,-4.099643826776466327
0.434000000000000274,-4.080192964674210998
0.435000000000000275,-4.060596240175740057
0.436000000000000276,-4.040863605372230438
0.437000000000000277,-4.021004768803208229
0.438000000000000278,-4.001029197843516627
0.439000000000000279,-3.980946121171933250
0.440000000000000280,-3.960764531316490089
0.441000000000000281,-3.940493187271795872
0.442000000000000282,-3.920140617183688114
0.443000000000000282,-3.899715121096599457
0.444000000000000283,-3.879224773759264000
0.445000000000000284,-3.858677427484389799
0.446000000000000285,-3.838080715058047154
0.447000000000000286,-3.817442052694804744
0.448000000000000287,-3.796768643034390323
0.449000000000000288,-3.776067478176251768
0.450000000000000289,-3.755345342748039883
0.451000000000000290,-3.734608817004502868
0.452000000000000290,-3.713864279953203784
0.453000000000000291,-3.693117912503604661
0.454000000000000292,-3.672375700636289597
0.455000000000000293,-3.651643438589028623
0.456000000000000294,-3.630926732056662054
0.457000000000000295,-3.610231001401808637
0.458000000000000296,-3.589561484873474484
0.459000000000000297,-3.568923241830883164
0.460000000000000298,-3.548321155969780705
0.461000000000000298,-3.527759938548700180
0.462000000000000299,-3.507244131612741622
0.463000000000000300,-3.486778111212449183
0.464000000000000301,-3.466366090615599749
0.465000000000000302,-3.446012123509709646
0.466000000000000303,-3.425720107193168218
0.467000000000000304,-3.405493785753082925
0.468000000000000305,-3.385336753227899287
0.469000000000000306,-3.365252456753021537
0.470000000000000306,-3.345244199687777975
0.471000000000000307,-3.325315144722006178
0.472000000000000308,-3.305468316960825437
0.473000000000000309,-3.285706606986084743
0.474000000000000310,-3.266032773893134511
0.475000000000000311,-3.246449448301579110
0.476000000000000312,-3.226959135338887563
0.477000000000000313,-3.207564217595586964
0.478000000000000314,-3.188266958051043432
0.479000000000000314,-3.169069502968813179
0.480000000000000315,-3.149973884760576048
0.481000000000000316,-3.130982024817834386
0.482000000000000317,-3.112095736310515282
0.483000000000000318,-3.093316726951751416
0.484000000000000319,-3.074646601728133533
0.485000000000000320,-3.056086865594801250
0.486000000000000321,-3.037638926134809569
0.487000000000000322,-3.019304096182222175
0.488000000000000322,-3.001083596408423038
0.489000000000000323,-2.982978557871331038
0.490000000000000324,-2.964990024527019763
0.491000000000000325,-2.947118955703488474
0.492000000000000326,-2.929366228536233852
0.493000000000000327,-2.911732640365478186
0.494000000000000328,-2.894218911094728508
0.495000000000000329,-2.876825685510626673
0.496000000000000330,-2.859553535563838178
0.497000000000000330,-2.842402962611052519
0.498000000000000331,-2.825374399617843313
0.499000000000000332,-2.808468213322574236
0.500000000000000333,-2.791684706361219348
0.501000000000000334,-2.775024119353173724
0.502000000000000335,-2.758486632948178752
0.503000000000000336,-2.742072369834401169
0.504000000000000337,-2.725781396707831039
0.505000000000000338,-2.709613726203115469
0.506000000000000338,-2.693569318786050992
0.507000000000000339,-2.677648084607888723
0.508000000000000340,-2.661849885321681430
0.509000000000000341,-2.646174535860972288
0.510000000000000342,-2.630621806180960753
0.511000000000000343,-2.615191422962579004
0.512000000000000344,-2.599883071279622371
0.513000000000000345,-2.584696396229356097
0.514000000000000346,-2.569631004526891527
0.515000000000000346,-2.554686466063643024
0.516000000000000347,-2.539862315430235551
0.517000000000000348,-2.525158053404294556
0.518000000000000349,-2.510573148403347332
0.519000000000000350,-2.496107037903405601
0.520000000000000351,-2.481759129823457144
0.521000000000000352,-2.467528803876429144
0.522000000000000353,-2.453415412886892355
0.523000000000000353,-2.439418284076039889
0.524000000000000354,-2.425536720314333650
0.525000000000000355,-2.411770001342229630
0.526000000000000356,-2.398117384959446596
0.527000000000000357,-2.384578108183257772
0.528000000000000358,-2.371151388376168789
0.529000000000000359,-2.357836424343549897
0.530000000000000360,-2.344632397401563928
0.531000000000000361,-2.331538472415960683
0.532000000000000361,-2.318553798812110323
0.533000000000000362,-2.305677511556803339
0.534000000000000363,-2.292908732112239001
0.535000000000000364,-2.280246569362716524
0.536000000000000365,-2.267690120514433971
0.537000000000000366,-2.255238471968939784
0.538000000000000367,-2.242890700170603768
0.539000000000000368,-2.230645872428707932
0.540000000000000369,-2.218503047714462717
0.541000000000000369,-2.206461277433577894
0.542000000000000370,-2.194519606174693216
0.543000000000000371,-2.182677072434262122
0.544000000000000372,-2.170932709318248666
0.545000000000000373,-2.159285545221167002
0.546000000000000374,-2.147734604482848475
0.547000000000000375,-2.136278908023431899
0.548000000000000376,-2.124917473957023795
0.549000000000000377,-2.113649318184436687
0.550000000000000377,-2.102473454965479327
0.551000000000000378,-2.091388897471204267
0.552000000000000379,-2.080394658316587098
0.553000000000000380,-2.069489750074007706
0.554000000000000381,-2.058673185767989189
0.555000000000000382,-2.047943979351657617
0.556000000000000383,-2.037301146165190424
0.557000000000000384,-2.026743703376876038
0.558000000000000385,-2.016270670406971721
0.559000000000000385,-2.005881069334924938
0.560000000000000386,-1.995573925290260675
0.561000000000000387,-1.985348266827552832
0.562000000000000388,-1.975203126285866251
0.563000000000000389,-1.965137540133037763
0.564000000000000390,-1.955150549295189055
0.565000000000000391,-1.945241199471801519
0.566000000000000392,-1.935408541436755003
0.567000000000000393,-1.925651631325690616
0.568000000000000393,-1.915969530909995999
0.569000000000000394,-1.906361307857810772
0.570000000000000395,-1.896826035982399405
0.571000000000000396,-1.887362795478161770
0.572000000000000397,-1.877970673144699898
0.573000000000000398,-1.868648762599190105
0.574000000000000399,-1.859396164477422175
0.575000000000000400,-1.850211986623810700
0.576000000000000401,-1.841095344270655243
0.577000000000000401,-1.832045360207030793
0.578000000000000402,-1.823061164937507694
0.579000000000000403,-1.814141896831040324
0.580000000000000404,-1.805286702260354259
0.581000000000000405,-1.796494735732009573
0.582000000000000406,-1.787765160007514398
0.583000000000000407,-1.779097146215699921
0.584000000000000408,-1.770489873956641036
0.585000000000000409,-1.761942531397387768
0.586000000000000409,-1.753454315359739724
0.587000000000000410,-1.745024431400352238
0.588000000000000411,-1.736652093883363168
0.589000000000000412,-1.728336526045838095
0.590000000000000413,-1.720076960056216908
0.591000000000000414,-1.711872637066026215
0.592000000000000415,-1.703722807255067195
0.593000000000000416,-1.695626729870289839
0.594000000000000417,-1.687583673258580053
0.595000000000000417,-1.679592914893694111
0.596000000000000418,-1.671653741397455706
0.597000000000000419,-1.663765448555554416
0.598000000000000420,-1.655927341327990687
0.599000000000000421,-1.648138733854490612
0.600000000000000422,-1.640398949454988209
0.601000000000000423,-1.632707320625383929
0.602000000000000424,-1.625063189028783439
0.603000000000000425,-1.617465905482358135
0.604000000000000425,-1.609914829939990799
0.605000000000000426,-1.602409331470910248
0.606000000000000427,-1.594948788234459736
0.607000000000000428,-1.587532587451096155
0.608000000000000429,-1.580160125369915125
0.609000000000000430,-1.572830807232671324
0.610000000000000431,-1.565544047234605163
0.611000000000000432,-1.558299268482102873
0.612000000000000433,-1.551095902947370764
0.613000000000000433,-1.543933391420280632
