# TricalciumSilicate-Wet-001_QUINOLINE-AC
# h[nm],U(h)[kJ/mol]
0.149999999999999994,127.631925392807232811
0.150999999999999995,125.172783180236052658
0.151999999999999996,122.792185894265088564
0.152999999999999997,120.404249837958303715
0.153999999999999998,118.001574183402652807
0.154999999999999999,115.604589455688213206
0.156000000000000000,113.237165674005012761
0.157000000000000001,110.916803829777066426
0.158000000000000002,108.652372874019789606
0.159000000000000002,106.445299846910273800
0.160000000000000003,104.291952549075432444
0.161000000000000004,102.186062899314265451
0.162000000000000005,100.120685998435973829
0.163000000000000006,98.089547689551650933
0.164000000000000007,96.087814944699871944
0.165000000000000008,94.112401335408534919
0.166000000000000009,92.161939987280334208
0.167000000000000010,90.236546976724596902
0.168000000000000010,88.337475872039490810
0.169000000000000011,86.466738541110856886
0.170000000000000012,84.626743403122787868
0.171000000000000013,82.819982218358546788
0.172000000000000014,81.048780939193591166
0.173000000000000015,79.315118890606157720
0.174000000000000016,77.620513013345401987
0.175000000000000017,75.965959353127942677
0.176000000000000018,74.351921688970691093
0.177000000000000018,72.778356518359103688
0.178000000000000019,71.244764022118403091
0.179000000000000020,69.750255697710812797
0.180000000000000021,68.293630761509433569
0.181000000000000022,66.873454953611357610
0.182000000000000023,65.488136881227802633
0.183000000000000024,64.135998413740992419
0.184000000000000025,62.815336841796259648
0.185000000000000026,61.524477512463249695
0.186000000000000026,60.261816451606549094
0.187000000000000027,59.025853095603295628
0.188000000000000028,57.815213697686012040
0.189000000000000029,56.628666273472944681
0.190000000000000030,55.465128130603588374
0.191000000000000031,54.323667112820032798
0.192000000000000032,53.203497701273349207
0.193000000000000033,52.103973074552492051
0.194000000000000034,51.024574150317015153
0.195000000000000034,49.964896528952003507
0.196000000000000035,48.924636144151193662
0.197000000000000036,47.903574305133382438
0.198000000000000037,46.901562696554805143
0.199000000000000038,45.918508789551431448
0.200000000000000039,44.954362013715964963
0.201000000000000040,44.009100946979245350
0.202000000000000041,43.082721699201933063
0.203000000000000042,42.175227595962972771
0.204000000000000042,41.286620211216479959
0.205000000000000043,40.416891750489568835
0.206000000000000044,39.566018749182987335
0.207000000000000045,38.733957022266494619
0.208000000000000046,37.920637781122408683
0.209000000000000047,37.125964819381849225
0.210000000000000048,36.349812661255612056
0.211000000000000049,35.592025562100545244
0.212000000000000050,34.852417250873777732
0.213000000000000050,34.130771306913615604
0.214000000000000051,33.426842068436414479
0.215000000000000052,32.740355976649908598
0.216000000000000053,32.071013266942223652
0.217000000000000054,31.418489926786254074
0.218000000000000055,30.782439848455720011
0.219000000000000056,30.162497113107868074
0.220000000000000057,29.558278351032452491
0.221000000000000058,28.969385130743233958
0.222000000000000058,28.395406336975646866
0.223000000000000059,27.835920504484374050
0.224000000000000060,27.290498080756730559
0.225000000000000061,26.758703596355786658
0.226000000000000062,26.240097726581048221
0.227000000000000063,25.734239232499895422
0.228000000000000064,25.240686773187768210
0.229000000000000065,24.759000584253122668
0.230000000000000066,24.288744020458238992
0.231000000000000066,23.829484962519121183
0.232000000000000067,23.380797090025442486
0.233000000000000068,22.942261023907398965
0.234000000000000069,22.513465343035981903
0.235000000000000070,22.094007480417047873
0.236000000000000071,21.683494505068829028
0.237000000000000072,21.281543796090804932
0.238000000000000073,20.887783615675651561
0.239000000000000073,20.501853587913739574
0.240000000000000074,20.123405090217051594
0.241000000000000075,19.752101564073598183
0.242000000000000076,19.387618751652116345
0.243000000000000077,19.029644864529377202
0.244000000000000078,18.677880690524396812
0.245000000000000079,18.332039644308093074
0.246000000000000080,17.991847767124248492
0.247000000000000081,17.657043680616798298
0.248000000000000081,17.327378499417861235
0.249000000000000082,17.002615706815074503
0.250000000000000111,16.682530997490687241
0.251000000000000112,16.366912091012345343
0.252000000000000113,16.055558519457907352
0.253000000000000114,15.748281392277084123
0.254000000000000115,15.444903141230378552
0.255000000000000115,15.145257248002788941
0.256000000000000116,14.849187956864705384
0.257000000000000117,14.556549974545635706
0.258000000000000118,14.267208159297592118
0.259000000000000119,13.981037200951877963
0.260000000000000120,13.697921293616198923
0.261000000000000121,13.417753802516852346
0.262000000000000122,13.140436926361235948
0.263000000000000123,12.865881356479899722
0.264000000000000123,12.594005933901401662
0.265000000000000124,12.324737305417864164
0.266000000000000125,12.058009579613004902
0.267000000000000126,11.793763983745758850
0.268000000000000127,11.531948522311392225
0.269000000000000128,11.272517638037218290
0.270000000000000129,11.015431876010342904
0.271000000000000130,10.760657551580102620
0.272000000000000131,10.508166422627400749
0.273000000000000131,10.257935366746011141
0.274000000000000132,10.009946063837251273
0.275000000000000133,9.764184684577884354
0.276000000000000134,9.520641585182376687
0.277000000000000135,9.279311008843901476
0.278000000000000136,9.040190794202935365
0.279000000000000137,8.803282091158845191
0.280000000000000138,8.568589084307692616
0.281000000000000139,8.336118724258051671
0.282000000000000139,8.105880467046992166
0.283000000000000140,7.877886021849119125
0.284000000000000141,7.652149107143721096
0.285000000000000142,7.428685215477884185
0.286000000000000143,7.207511386937177633
0.287000000000000144,6.988645991410426639
0.288000000000000145,6.772108519710101859
0.289000000000000146,6.557919383587071493
0.290000000000000147,6.346099724654926000
0.291000000000000147,6.136671232218162686
0.292000000000000148,5.929655969976869834
0.293000000000000149,5.725076211561473727
0.294000000000000150,5.522954284831554261
0.295000000000000151,5.323312424855243030
0.296000000000000152,5.126172635468471128
0.297000000000000153,4.931556559297741060
0.298000000000000154,4.739485356114878201
0.299000000000000155,4.549979589378583711
0.300000000000000155,4.363059120804575031
0.301000000000000156,4.178743012794524425
0.302000000000000157,3.997049438542810584
0.303000000000000158,3.817995599630710668
0.304000000000000159,3.641597650908533268
0.305000000000000160,3.467870632458525115
0.306000000000000161,3.296828408424476553
0.307000000000000162,3.128483612487904075
0.308000000000000163,2.962847599765803697
0.309000000000000163,2.799930404900722536
0.310000000000000164,2.639740706110565771
0.311000000000000165,2.482285794963127845
0.312000000000000166,2.327571551638539127
0.313000000000000167,2.175602425441932386
0.314000000000000168,2.026381420328323468
0.315000000000000169,1.879910085202148640
0.316000000000000170,1.736188508754848758
0.317000000000000171,1.595215318605670562
0.318000000000000171,1.456987684513031844
0.319000000000000172,1.321501325426287954
0.320000000000000173,1.188750520151280465
0.321000000000000174,1.058728121406451894
0.322000000000000175,0.931425573050348232
0.323000000000000176,0.806832930265886317
0.324000000000000177,0.684938882491291090
0.325000000000000178,0.565730778892942099
0.326000000000000179,0.449194656180224250
0.327000000000000179,0.335315268568512626
0.328000000000000180,0.224076119701759335
0.329000000000000181,0.115459496352207230
0.330000000000000182,0.009446503720871125
0.331000000000000183,-0.093982897831668660
0.332000000000000184,-0.194849854788073484
0.333000000000000185,-0.293176581368463085
0.334000000000000186,-0.388986319467467090
0.335000000000000187,-0.482303297779081430
0.336000000000000187,-0.573152690248168062
0.337000000000000188,-0.661560573980676470
0.338000000000000189,-0.747553886738854145
0.339000000000000190,-0.831160384141184094
0.340000000000000191,-0.912408596680478468
0.341000000000000192,-0.991327786667875133
0.342000000000000193,-1.067947905204040371
0.343000000000000194,-1.142299549273362747
0.344000000000000195,-1.214413919050689294
0.345000000000000195,-1.284322775505114533
0.346000000000000196,-1.352058398379166304
0.347000000000000197,-1.417653544616816585
0.348000000000000198,-1.481141407308307123
0.349000000000000199,-1.542555575214684449
0.350000000000000200,-1.601929992930164248
0.351000000000000201,-1.659298921735467669
0.352000000000000202,-1.714696901190832179
0.353000000000000203,-1.768158711512876735
0.354000000000000203,-1.819719336775297736
0.355000000000000204,-1.869413928969094085
0.356000000000000205,-1.917277772954293580
0.357000000000000206,-1.963346252331304553
0.358000000000000207,-2.007654816256216446
0.359000000000000208,-2.050238947221217245
0.360000000000000209,-2.091134129817891374
0.361000000000000210,-2.130375820497873995
0.362000000000000210,-2.167999418342675622
0.363000000000000211,-2.204040236851397605
0.364000000000000212,-2.238533476752610163
0.365000000000000213,-2.271514199843985615
0.366000000000000214,-2.303017303861048859
0.367000000000000215,-2.333077498374047209
0.368000000000000216,-2.361729281710066797
0.369000000000000217,-2.389006918895268061
0.370000000000000218,-2.414944420610615428
0.371000000000000218,-2.439575523152521797
0.372000000000000219,-2.462933669388408742
0.373000000000000220,-2.485051990695715141
0.374000000000000221,-2.505963289871484534
0.375000000000000222,-2.525700024998385196
0.376000000000000223,-2.544294294252177124
0.377000000000000224,-2.561777821634210195
0.378000000000000225,-2.578181943611934646
0.379000000000000226,-2.593537596649343691
0.380000000000000226,-2.607875305608826189
0.381000000000000227,-2.621225173004777531
0.382000000000000228,-2.633616869089286272
0.383000000000000229,-2.645079622749262782
0.384000000000000230,-2.655642213194152834
0.385000000000000231,-2.665332962413097473
0.386000000000000232,-2.674179728379825427
0.387000000000000233,-2.682209898983695773
0.388000000000000234,-2.689450386664752557
0.389000000000000234,-2.695927623730903999
0.390000000000000235,-2.701667558334968078
0.391000000000000236,-2.706695651089499499
0.392000000000000237,-2.711036872297232669
0.393000000000000238,-2.714715699775150703
0.394000000000000239,-2.717756117250131442
0.395000000000000240,-2.720181613304479828
0.396000000000000241,-2.722015180849652882
0.397000000000000242,-2.723279317106769515
0.398000000000000242,-2.723996024072803834
0.399000000000000243,-2.724186809451448976
0.400000000000000244,-2.723872688028116773
0.401000000000000245,-2.723074183468785492
0.402000000000000246,-2.721811330522624139
0.403000000000000247,-2.720103677608892934
0.404000000000000248,-2.717970289768813608
0.405000000000000249,-2.715429751963548188
0.406000000000000250,-2.712500172699811252
0.407000000000000250,-2.709199187965054101
0.408000000000000251,-2.705543965454571431
0.409000000000000252,-2.701551209073291826
0.410000000000000253,-2.697237163695461071
0.411000000000000254,-2.692617620165853598
0.412000000000000255,-2.687707920526564376
0.413000000000000256,-2.682522963453976672
0.414000000000000257,-2.677077209890734277
0.415000000000000258,-2.671384688858292833
0.416000000000000258,-2.665459003435761698
0.417000000000000259,-2.659313336891428570
0.418000000000000260,-2.652960458953678824
0.419000000000000261,-2.646412732208498042
0.420000000000000262,-2.639682118611176076
0.421000000000000263,-2.632780186100320385
0.422000000000000264,-2.625718115302579037
0.423000000000000265,-2.618506706317062172
0.424000000000000266,-2.611156385568813132
0.425000000000000266,-2.603677212720987288
0.426000000000000267,-2.596078887636001920
0.427000000000000268,-2.588370757376158515
0.428000000000000269,-2.580561823234691854
0.429000000000000270,-2.572660747788656721
0.430000000000000271,-2.564675861965263426
0.431000000000000272,-2.556615172113887446
0.432000000000000273,-2.548486367076106873
0.433000000000000274,-2.540296825246663115
0.434000000000000274,-2.532053621618467254
0.435000000000000275,-2.523763534805175901
0.436000000000000276,-2.515433054035197458
0.437000000000000277,-2.507068386111241942
0.438000000000000278,-2.498675462329931651
0.439000000000000279,-2.490259945356278148
0.440000000000000280,-2.481827236048034901
0.441000000000000281,-2.473382480225347457
0.442000000000000282,-2.464930575381392597
0.443000000000000282,-2.456476177329816046
0.444000000000000283,-2.448023706785284137
0.445000000000000284,-2.439577355873507436
0.446000000000000285,-2.431141094567424332
0.447000000000000286,-2.422718677046590496
0.448000000000000287,-2.414313647976733090
0.449000000000000288,-2.405929348707064541
0.450000000000000289,-2.397568923382779715
0.451000000000000290,-2.389235324970647500
0.452000000000000290,-2.380931321195669526
0.453000000000000291,-2.372659500386960385
0.454000000000000292,-2.364422277231301273
0.455000000000000293,-2.356221898432842465
0.456000000000000294,-2.348060448277741408
0.457000000000000295,-2.339939854102598638
0.458000000000000296,-2.331861891665715003
0.459000000000000297,-2.323828190420399231
0.460000000000000298,-2.315840238689626407
0.461000000000000298,-2.307899388741546431
0.462000000000000299,-2.300006861765422350
0.463000000000000300,-2.292163752747710337
0.464000000000000301,-2.284371035248169868
0.465000000000000302,-2.276629566075911715
0.466000000000000303,-2.268940089865462806
0.467000000000000304,-2.261303243553012265
0.468000000000000305,-2.253719560753084217
0.469000000000000306,-2.246189476035993060
0.470000000000000306,-2.238713329106546190
0.471000000000000307,-2.231291368884423143
0.472000000000000308,-2.223923757486924835
0.473000000000000309,-2.216610574114697307
0.474000000000000310,-2.209351818841160497
0.475000000000000311,-2.202147416306456496
0.476000000000000312,-2.194997219316772608
0.477000000000000313,-2.187901012349932728
0.478000000000000314,-2.180858514968197159
0.479000000000000314,-2.173869385139358013
0.480000000000000315,-2.166933222467064546
0.481000000000000316,-2.160049571331595253
0.482000000000000317,-2.153217923942091883
0.483000000000000318,-2.146437723301525935
0.484000000000000319,-2.139708366085511848
0.485000000000000320,-2.133029205436229869
0.486000000000000321,-2.126399553672725595
0.487000000000000322,-2.119818684918839402
0.488000000000000322,-2.113285837650010102
0.489000000000000323,-2.106800217160401445
0.490000000000000324,-2.100360997951545627
0.491000000000000325,-2.093967326043924881
0.492000000000000326,-2.087618321212795447
0.493000000000000327,-2.081313079149683887
0.494000000000000328,-2.075050673550859592
0.495000000000000329,-2.068830158134219666
0.496000000000000330,-2.062650568585900679
0.497000000000000330,-2.056510924438115229
0.498000000000000331,-2.050410230879428308
0.499000000000000332,-2.044347480499052239
0.500000000000000333,-2.038321654966408936
0.501000000000000334,-2.032331726647359726
0.502000000000000335,-2.026376660158535792
0.503000000000000336,-2.020455413861083294
0.504000000000000337,-2.014566941295211855
0.505000000000000338,-2.008710192556878216
0.506000000000000338,-2.002884115617987071
0.507000000000000339,-1.997087657591418708
0.508000000000000340,-1.991319765942187514
0.509000000000000341,-1.985579389646127124
0.510000000000000342,-1.979865480297287261
0.511000000000000343,-1.974176993165446037
0.512000000000000344,-1.968512888204917433
0.513000000000000345,-1.962872131015965138
0.514000000000000346,-1.957253693760088620
0.515000000000000346,-1.951656556030339829
0.516000000000000347,-1.946079705677940197
0.517000000000000348,-1.940522139596410511
0.518000000000000349,-1.934982864464321439
0.519000000000000350,-1.929460897447921486
0.520000000000000351,-1.923955266864696423
0.521000000000000352,-1.918465012809100312
0.522000000000000353,-1.912989187741442887
0.523000000000000353,-1.907526857041134560
0.524000000000000354,-1.902077099525310455
0.525000000000000355,-1.896639007933913046
0.526000000000000356,-1.891211689382231498
0.527000000000000357,-1.885794265782006152
0.528000000000000358,-1.880385874231977450
0.529000000000000359,-1.874985667379000187
0.530000000000000360,-1.869592813750545535
0.531000000000000361,-1.864206498059663542
0.532000000000000361,-1.858825921483252541
0.533000000000000362,-1.853450301914567389
0.534000000000000363,-1.848078874190863585
0.535000000000000364,-1.842710890297046378
0.536000000000000365,-1.837345619546159714
0.537000000000000366,-1.831982348737586364
0.538000000000000367,-1.826620382293707268
0.539000000000000368,-1.821259042375927617
0.540000000000000369,-1.815897668980710034
0.541000000000000369,-1.810535620016523684
0.542000000000000370,-1.805172271362312397
0.543000000000000371,-1.799807016908324453
0.544000000000000372,-1.794439268579935742
0.545000000000000373,-1.789068456345205949
0.546000000000000374,-1.783694028206807003
0.547000000000000375,-1.778315450178997281
0.548000000000000376,-1.772932206250299458
0.549000000000000377,-1.767543798332470883
0.550000000000000377,-1.762149746196409072
0.551000000000000378,-1.756749587395548984
0.552000000000000379,-1.751342877177379354
0.553000000000000380,-1.745929188383585240
0.554000000000000381,-1.740508111339378106
0.555000000000000382,-1.735079253732604299
0.556000000000000383,-1.729642240483019178
0.557000000000000384,-1.724196713602385245
0.558000000000000385,-1.718742332045732457
0.559000000000000385,-1.713278771554367363
0.560000000000000386,-1.707805724491031185
0.561000000000000387,-1.702322899667663592
0.562000000000000388,-1.696830022166202934
0.563000000000000389,-1.691326833152861253
0.564000000000000390,-1.685813089686251320
0.565000000000000391,-1.680288564519772931
0.566000000000000392,-1.674753045898639048
0.567000000000000393,-1.669206337351929026
0.568000000000000393,-1.663648257479976467
0.569000000000000394,-1.658078639737479376
0.570000000000000395,-1.652497332212680137
0.571000000000000396,-1.646904197402862424
0.572000000000000397,-1.641299111986582515
0.573000000000000398,-1.635681966592838821
0.574000000000000399,-1.630052665567536696
0.575000000000000400,-1.624411126737499655
0.576000000000000401,-1.618757281172280571
0.577000000000000401,-1.613091072944109472
0.578000000000000402,-1.607412458886118944
0.579000000000000403,-1.601721408349162434
0.580000000000000404,-1.596017902957478807
0.581000000000000405,-1.590301936363327062
0.582000000000000406,-1.584573514000928274
0.583000000000000407,-1.578832652839819106
0.584000000000000408,-1.573079381137887811
0.585000000000000409,-1.567313738194247907
0.586000000000000409,-1.561535774102121410
0.587000000000000410,-1.555745549501968750
0.588000000000000411,-1.549943135334932887
0.589000000000000412,-1.544128612596874728
0.590000000000000413,-1.538302072093043815
0.591000000000000414,-1.532463614193611878
0.592000000000000415,-1.526613348590180497
0.593000000000000416,-1.520751394053371452
0.594000000000000417,-1.514877878191664751
0.595000000000000417,-1.508992937211624419
0.596000000000000418,-1.503096715679522299
0.597000000000000419,-1.497189366284632728
0.598000000000000420,-1.491271049604124377
0.599000000000000421,-1.485341933869813946
0.600000000000000422,-1.479402194736750165
0.601000000000000423,-1.473452015053769326
0.602000000000000424,-1.467491584636121615
0.603000000000000425,-1.461521100040216847
0.604000000000000425,-1.455540764340554905
0.605000000000000426,-1.449550786908949673
0.606000000000000427,-1.443551383196106652
0.607000000000000428,-1.437542774515530697
0.608000000000000429,-1.431525187829990831
0.609000000000000430,-1.425498855540388909
0.610000000000000431,-1.419464015277278168
0.611000000000000432,-1.413420909694915739
0.612000000000000433,-1.407369786267994360
0.613000000000000433,-1.401310897091056162
