# ZnO1m210NB_TRPSCA-AC
# h[nm],U(h)[kJ/mol]
0.149999999999999994,132.737150821585515814
0.150999999999999995,131.333127231442460925
0.151999999999999996,129.958879506441149942
0.152999999999999997,128.583639474596282071
0.153999999999999998,127.197706074192367964
0.154999999999999999,125.802970102119388685
0.156000000000000000,124.406277840130769619
0.157000000000000001,123.015274956483835922
0.158000000000000002,121.636169474241881971
0.159000000000000002,120.272842366550179349
0.160000000000000003,118.926813211315021590
0.161000000000000004,117.597677799691695100
0.162000000000000005,116.283743701924180414
0.163000000000000006,114.982684088388936061
0.164000000000000007,113.692104563475908208
0.165000000000000008,112.409972443528360486
0.166000000000000009,111.134895270425388958
0.167000000000000010,109.866258761070028527
0.168000000000000010,108.604247259010065818
0.169000000000000011,107.349775118027622511
0.170000000000000012,106.104357815505593976
0.171000000000000013,104.869948914362453252
0.172000000000000014,103.648764704825836702
0.173000000000000015,102.443113468662573950
0.174000000000000016,101.255241481717419560
0.175000000000000017,100.087203506182717661
0.176000000000000018,98.940761830793292120
0.177000000000000018,97.817314970607341706
0.178000000000000019,96.717854926010531358
0.179000000000000020,95.642950357674777706
0.180000000000000021,94.592752066908133202
0.181000000000000022,93.567016674934023968
0.182000000000000023,92.565144266818919050
0.183000000000000024,91.586225910665135075
0.184000000000000025,90.629097296812645368
0.185000000000000026,89.692395195128526098
0.186000000000000026,88.774613944584459091
0.187000000000000027,87.874159724553052797
0.188000000000000028,86.989400879287828161
0.189000000000000029,86.118713053329415175
0.190000000000000030,85.260518331599740804
0.191000000000000031,84.413317955653525360
0.192000000000000032,83.575718503888623445
0.193000000000000033,82.746451679104154664
0.194000000000000034,81.924388044902116235
0.195000000000000034,81.108545198035983503
0.196000000000000035,80.298090962927858527
0.197000000000000036,79.492342253680789099
0.198000000000000037,78.690760274531825758
0.199000000000000038,77.892942728120729612
0.200000000000000039,77.098613678032222651
0.201000000000000040,76.307611673092992532
0.202000000000000041,75.519876690512248274
0.203000000000000042,74.735436397144056286
0.204000000000000042,73.954392166266728736
0.205000000000000043,73.176905224063446553
0.206000000000000044,72.403183237626350888
0.207000000000000045,71.633467596470751459
0.208000000000000046,70.868021583473847613
0.209000000000000047,70.107119579696657752
0.210000000000000048,69.351037401246898639
0.211000000000000049,68.600043825466258340
0.212000000000000050,67.854393328337550884
0.213000000000000050,67.114320025000509418
0.214000000000000051,66.380032780405770154
0.215000000000000052,65.651711437101283764
0.216000000000000053,64.929504091547386224
0.217000000000000054,64.213525338770324424
0.218000000000000055,63.503855397147539463
0.219000000000000056,62.800540020224580928
0.220000000000000057,62.103591100257972357
0.221000000000000058,61.412987868245366485
0.222000000000000058,60.728678597149965412
0.223000000000000059,60.050582718493195955
0.224000000000000060,59.378593267147969925
0.225000000000000061,58.712579574721189601
0.226000000000000062,58.052390138109856821
0.227000000000000063,57.397855596422608926
0.228000000000000064,56.748791756286536270
0.229000000000000065,56.105002612438582332
0.230000000000000066,55.466283317303336275
0.231000000000000066,54.832423059865639914
0.232000000000000067,54.203207820476450252
0.233000000000000068,53.578422974212188024
0.234000000000000069,52.957855720994487569
0.235000000000000070,52.341297325834446497
0.236000000000000071,51.728545157273444488
0.237000000000000072,51.119404516342015654
0.238000000000000073,50.513690252150226456
0.239000000000000073,49.911228163567201932
0.240000000000000074,49.311856189354692503
0.241000000000000075,48.715425391615426065
0.242000000000000076,48.121800739517780698
0.243000000000000077,47.530861701995988255
0.244000000000000078,46.942502659522169495
0.245000000000000079,46.356633146134832657
0.246000000000000080,45.773177933714819687
0.247000000000000081,45.192076971053033674
0.248000000000000081,44.613285190582580242
0.249000000000000082,44.036772195778162597
0.250000000000000111,43.462521842183022613
0.251000000000000112,42.890531724832520410
0.252000000000000113,42.320812584525796751
0.253000000000000114,41.753387644976520221
0.254000000000000115,41.188291892364624402
0.255000000000000115,40.625571308236089862
0.256000000000000116,40.065282066070025735
0.257000000000000117,39.507489701166051077
0.258000000000000118,38.952268262814520483
0.259000000000000119,38.399699457006981618
0.260000000000000120,37.849871787234647513
0.261000000000000121,37.302879700217673076
0.262000000000000122,36.758822742714073684
0.263000000000000123,36.217804734880488127
0.264000000000000123,35.679932965002805645
0.265000000000000124,35.145317409786699159
0.266000000000000125,34.614069983800369812
0.267000000000000126,34.086303821095036426
0.268000000000000127,33.562132591496542489
0.269000000000000128,33.041669853564130221
0.270000000000000129,32.525028445750400863
0.271000000000000130,32.012319916869920178
0.272000000000000131,31.503653996593591557
0.273000000000000131,30.999138106329450437
0.274000000000000132,30.498876910529389761
0.275000000000000133,30.002971908171343074
0.276000000000000134,29.511521063909913920
0.277000000000000135,29.024618478161507085
0.278000000000000136,28.542354095191036834
0.279000000000000137,28.064813448096622039
0.280000000000000138,27.592077439443393416
0.281000000000000139,27.124222156174699450
0.282000000000000139,26.661318717330431127
0.283000000000000140,26.203433153021968849
0.284000000000000141,25.750626313053395222
0.285000000000000142,25.302953803535125132
0.286000000000000143,24.860465949808251196
0.287000000000000144,24.423207783984775432
0.288000000000000145,23.991219055407459138
0.289000000000000146,23.564534262344089655
0.290000000000000147,23.143182703250708698
0.291000000000000147,22.727188545968097344
0.292000000000000148,22.316570913252103736
0.293000000000000149,21.911343983082325337
0.294000000000000150,21.511517102241899835
0.295000000000000151,21.117094911715231120
0.296000000000000152,20.728077482507273999
0.297000000000000153,20.344460460548695835
0.298000000000000154,19.966235219413309920
0.299000000000000155,19.593389019638649984
0.300000000000000155,19.225905173505466905
0.301000000000000156,18.863763214197938112
0.302000000000000157,18.506939068331554665
0.303000000000000158,18.155405230901550340
0.304000000000000159,17.809130941768959389
0.305000000000000160,17.468082362864933543
0.306000000000000161,17.132222755356330879
0.307000000000000162,16.801512656075775709
0.308000000000000163,16.475910052578505827
0.309000000000000163,16.155370556245092217
0.310000000000000164,15.839847572903618556
0.311000000000000165,15.529292470497818357
0.312000000000000166,15.223654743377514009
0.313000000000000167,14.922882172835997494
0.314000000000000168,14.626920983564298595
0.315000000000000169,14.335715995735508699
0.316000000000000170,14.049210772473003317
0.317000000000000171,13.767347762494932084
0.318000000000000171,13.490068437763218512
0.319000000000000172,13.217313425998884924
0.320000000000000173,12.949022637957217086
0.321000000000000174,12.685135389385285620
0.322000000000000175,12.425590517611180275
0.323000000000000176,12.170326492739722113
0.324000000000000177,11.919281523451763505
0.325000000000000178,11.672393657425715219
0.326000000000000179,11.429600876418460231
0.327000000000000179,11.190841186060747958
0.328000000000000180,10.956052700437172831
0.329000000000000181,10.725173721535483651
0.330000000000000182,10.498142813661797135
0.331000000000000183,10.274898872929862037
0.332000000000000184,10.055381191941789254
0.333000000000000185,9.839529519786356815
0.334000000000000186,9.627284117487830528
0.335000000000000187,9.418585809044596857
0.336000000000000187,9.213376028201558654
0.337000000000000188,9.011596861104644418
0.338000000000000189,8.813191084988515556
0.339000000000000190,8.618102203050899135
0.340000000000000191,8.426274475668661168
0.341000000000000192,8.237652948111289675
0.342000000000000193,8.052183474907533167
0.343000000000000194,7.869812741020600022
0.344000000000000195,7.690488279986487541
0.345000000000000195,7.514158489167840571
0.346000000000000196,7.340772642274677295
0.347000000000000197,7.170280899300290223
0.348000000000000198,7.002634314018303385
0.349000000000000199,6.837784839183804309
0.350000000000000200,6.675685329578149307
0.351000000000000201,6.516289543033638942
0.352000000000000202,6.359552139570530116
0.353000000000000203,6.205428678775087192
0.354000000000000203,6.053875615543129918
0.355000000000000204,5.904850294309884617
0.356000000000000205,5.758310941882352374
0.357000000000000206,5.614216658986220132
0.358000000000000207,5.472527410635415812
0.359000000000000208,5.333204015427646993
0.360000000000000209,5.196208133865117595
0.361000000000000210,5.061502255795516270
0.362000000000000210,4.929049687063754348
0.363000000000000211,4.798814535460959263
0.364000000000000212,4.670761696052942114
0.365000000000000213,4.544856835966237796
0.366000000000000214,4.421066378705804212
0.367000000000000215,4.299357488074514677
0.368000000000000216,4.179698051760533772
0.369000000000000217,4.062056664655226967
0.370000000000000218,3.946402611960068363
0.371000000000000218,3.832705852137988423
0.372000000000000219,3.720936999760601882
0.373000000000000220,3.611067308299690470
0.374000000000000221,3.503068652907975977
0.375000000000000222,3.396913513231172743
0.376000000000000223,3.292574956289891386
0.377000000000000224,3.190026619467608349
0.378000000000000225,3.089242693637642478
0.379000000000000226,2.990197906459700405
0.380000000000000226,2.892867505873660594
0.381000000000000227,2.797227243816181819
0.382000000000000228,2.703253360183025755
0.383000000000000229,2.610922567057935684
0.384000000000000230,2.520212033226751469
0.385000000000000231,2.431099368993278720
0.386000000000000232,2.343562611311782007
0.387000000000000233,2.257580209248741809
0.388000000000000234,2.173131009785271850
0.389000000000000234,2.090194243969526244
0.390000000000000235,2.008749513427136701
0.391000000000000236,1.928776777236283824
0.392000000000000237,1.850256339172452913
0.393000000000000238,1.773168835326882853
0.394000000000000239,1.697495222101409906
0.395000000000000240,1.623216764581266958
0.396000000000000241,1.550315025286442383
0.397000000000000242,1.478771853301246386
0.398000000000000242,1.408569373780690803
0.399000000000000243,1.339689977831769685
0.400000000000000244,1.272116312766546242
0.401000000000000245,1.205831272723643988
0.402000000000000246,1.140817989653987397
0.403000000000000247,1.077059824665794752
0.404000000000000248,1.014540359723747009
0.405000000000000249,0.953243389696400101
0.406000000000000250,0.893152914745719451
0.407000000000000250,0.834253133052060947
0.408000000000000251,0.776528433867694989
0.409000000000000252,0.719963390891664834
0.410000000000000253,0.664542755958402731
0.411000000000000254,0.610251453032460645
0.412000000000000255,0.557074572501428777
0.413000000000000256,0.504997365758903305
0.414000000000000257,0.454005240069432159
0.415000000000000258,0.404083753706994897
0.416000000000000258,0.355218611358826930
0.417000000000000259,0.307395659785990705
0.418000000000000260,0.260600883732434563
0.419000000000000261,0.214820402073923139
0.420000000000000262,0.170040464198609353
0.421000000000000263,0.126247446610662367
0.422000000000000264,0.083427849748822253
0.423000000000000265,0.041568295011442526
0.424000000000000266,0.000655521979919538
0.425000000000000266,-0.039323614167531627
0.426000000000000267,-0.078382145059852609
0.427000000000000268,-0.116532991362632468
0.428000000000000269,-0.153788964840850223
0.429000000000000270,-0.190162770262554737
0.430000000000000271,-0.225667007150786747
0.431000000000000272,-0.260314171391196114
0.432000000000000273,-0.294116656702376855
0.433000000000000274,-0.327086755975958876
0.434000000000000274,-0.359236662493273462
0.435000000000000275,-0.390578471025182616
0.436000000000000276,-0.421124178821604467
0.437000000000000277,-0.450885686496980409
0.438000000000000278,-0.479874798817807480
0.439000000000000279,-0.508103225398188640
0.440000000000000280,-0.535582581309129391
0.441000000000000281,-0.562324387607137099
0.442000000000000282,-0.588340071787592178
0.443000000000000282,-0.613640968167977419
0.444000000000000283,-0.638238318206126087
0.445000000000000284,-0.662143270758226543
0.446000000000000285,-0.685366882281314482
0.447000000000000286,-0.707920116984792736
0.448000000000000287,-0.729813846935174149
0.449000000000000288,-0.751058852118359987
0.450000000000000289,-0.771665820463297569
0.451000000000000290,-0.791645347830912560
0.452000000000000290,-0.811007937971998771
0.453000000000000291,-0.829764002457447303
0.454000000000000292,-0.847923860584267053
0.455000000000000293,-0.865497739260518983
0.456000000000000294,-0.882495772872200157
0.457000000000000295,-0.898928003135008091
0.458000000000000296,-0.914804378933630757
0.459000000000000297,-0.930134756151284492
0.460000000000000298,-0.944928897491850939
0.461000000000000298,-0.959196472297029090
0.462000000000000299,-0.972947056360659368
0.463000000000000300,-0.986190131742276543
0.464000000000000301,-0.998935086581914988
0.465000000000000302,-1.011191214917938508
0.466000000000000303,-1.022967716509612712
0.467000000000000304,-1.034273696666116571
0.468000000000000305,-1.045118166083356614
0.469000000000000306,-1.055510040690088802
0.470000000000000306,-1.065458141504657785
0.471000000000000307,-1.074971194503429262
0.472000000000000308,-1.084057830502163977
0.473000000000000309,-1.092726585051299715
0.474000000000000310,-1.100985898346040770
0.475000000000000311,-1.108844115152160414
0.476000000000000312,-1.116309484748247538
0.477000000000000313,-1.123390160885150868
0.478000000000000314,-1.130094201763132578
0.479000000000000314,-1.136429570027428948
0.480000000000000315,-1.142404132782565807
0.481000000000000316,-1.148025661625962979
0.482000000000000317,-1.153301832701095098
0.483000000000000318,-1.158240226770588022
0.484000000000000319,-1.162848329309459583
0.485000000000000320,-1.167133530618679416
0.486000000000000321,-1.171103125959259694
0.487000000000000322,-1.174764315706924522
0.488000000000000322,-1.178124205527372848
0.489000000000000323,-1.181189806572267909
0.490000000000000324,-1.183968035695804666
0.491000000000000325,-1.186465715691831457
0.492000000000000326,-1.188689575551428845
0.493000000000000327,-1.190646250740815315
0.494000000000000328,-1.192342283499372879
0.495000000000000329,-1.193784123157654253
0.496000000000000330,-1.194978126475052083
0.497000000000000330,-1.195930557997046062
0.498000000000000331,-1.196647590431493935
0.499000000000000332,-1.197135305043965037
0.500000000000000333,-1.197399692071593025
0.501000000000000334,-1.197446651155132047
0.502000000000000335,-1.197281991788981426
0.503000000000000336,-1.196911433788663270
0.504000000000000337,-1.196340607775480347
0.505000000000000338,-1.195575055677875920
0.506000000000000338,-1.194620231249133413
0.507000000000000339,-1.193481500600991563
0.508000000000000340,-1.192164142752686118
0.509000000000000341,-1.190673350195111890
0.510000000000000342,-1.189014229469476769
0.511000000000000343,-1.187191801760184129
0.512000000000000344,-1.185211003501323024
0.513000000000000345,-1.183076686996409554
0.514000000000000346,-1.180793621050902464
0.515000000000000346,-1.178366491616960499
0.516000000000000347,-1.175799902450040291
0.517000000000000348,-1.173098375776852276
0.518000000000000349,-1.170266352974158375
0.519000000000000350,-1.167308195258024650
0.520000000000000351,-1.164228184382934739
0.521000000000000352,-1.161030523350471633
0.522000000000000353,-1.157719337126905668
0.523000000000000353,-1.154298673369382078
0.524000000000000354,-1.150772503160176319
0.525000000000000355,-1.147144721748571072
0.526000000000000356,-1.143419149299888860
0.527000000000000357,-1.139599531651304565
0.528000000000000358,-1.135689541073860109
0.529000000000000359,-1.131692777040435249
0.530000000000000360,-1.127612766999019689
0.531000000000000361,-1.123452967151069348
0.532000000000000361,-1.119216763234383238
0.533000000000000362,-1.114907471310176756
0.534000000000000363,-1.110528338553860905
0.535000000000000364,-1.106082544049249883
0.536000000000000365,-1.101573199585661245
0.537000000000000366,-1.097003350457662840
0.538000000000000367,-1.092375976266946047
0.539000000000000368,-1.087693991726134346
0.540000000000000369,-1.082960247463961467
0.541000000000000369,-1.078177530831676112
0.542000000000000370,-1.073348566710109697
0.543000000000000371,-1.068476018317279230
0.544000000000000372,-1.063562488016027041
0.545000000000000373,-1.058610518121503086
0.546000000000000374,-1.053622591708070377
0.547000000000000375,-1.048601133415409947
0.548000000000000376,-1.043548510253480277
0.549000000000000377,-1.038467032406059420
0.550000000000000377,-1.033358954032613131
0.551000000000000378,-1.028226474068128171
0.552000000000000379,-1.023071737020790906
0.553000000000000380,-1.017896833767106601
0.554000000000000381,-1.012703802344290915
0.555000000000000382,-1.007494628739721731
0.556000000000000383,-1.002271247677095189
0.557000000000000384,-0.997035543399243274
0.558000000000000385,-0.991789350447188633
0.559000000000000385,-0.986534454435402219
0.560000000000000386,-0.981272592822988843
0.561000000000000387,-0.976005455680575729
0.562000000000000388,-0.970734686452767503
0.563000000000000389,-0.965461882715993092
0.564000000000000390,-0.960188596931525140
0.565000000000000391,-0.954916337193538078
0.566000000000000392,-0.949646567972042055
0.567000000000000393,-0.944380710850565408
0.568000000000000393,-0.939120145258378836
0.569000000000000394,-0.933866209197172892
0.570000000000000395,-0.928620199962082560
0.571000000000000396,-0.923383374856829642
0.572000000000000397,-0.918156951903008833
0.573000000000000398,-0.912942110543269125
0.574000000000000399,-0.907739992338384427
0.575000000000000400,-0.902551701658055650
0.576000000000000401,-0.897378306365347655
0.577000000000000401,-0.892220838494763080
0.578000000000000402,-0.887080294923718204
0.579000000000000403,-0.881957638037458524
0.580000000000000404,-0.876853796387344842
0.581000000000000405,-0.871769665342329581
0.582000000000000406,-0.866706107733722808
0.583000000000000407,-0.861663954493030793
0.584000000000000408,-0.856644005282946486
0.585000000000000409,-0.851647029121369803
0.586000000000000409,-0.846673764998412515
0.587000000000000410,-0.841724922486426941
0.588000000000000411,-0.836801182342891581
0.589000000000000412,-0.831903197106289682
0.590000000000000413,-0.827031591684787015
0.591000000000000414,-0.822186963937815207
0.592000000000000415,-0.817369885250492367
0.593000000000000416,-0.812580901100843911
0.594000000000000417,-0.807820531619845239
0.595000000000000417,-0.803089272144332234
0.596000000000000418,-0.798387593762603709
0.597000000000000419,-0.793715943852956962
0.598000000000000420,-0.789074746614923050
0.599000000000000421,-0.784464403593399195
0.600000000000000422,-0.779885294195567069
0.601000000000000423,-0.775337776200638373
0.602000000000000424,-0.770822186262494435
0.603000000000000425,-0.766338840405168753
0.604000000000000425,-0.761888034511212897
0.605000000000000426,-0.757470044802992737
0.606000000000000427,-0.753085128316949293
0.607000000000000428,-0.748733523370736731
0.608000000000000429,-0.744415450023494074
0.609000000000000430,-0.740131110529004266
0.610000000000000431,-0.735880689782029918
0.611000000000000432,-0.731664355757685181
0.612000000000000433,-0.727482259943952547
0.613000000000000433,-0.723334537767404195
0.614000000000000434,-0.719221309012123000
