# ZnO1m210NB_TRPSCA-JS
# h[nm],U(h)[kJ/mol]
0.200000000000000011,101.021597890860419966
0.201000000000000012,99.468311214066972070
0.202000000000000013,97.636711497592145292
0.203000000000000014,95.684201699100555061
0.204000000000000015,93.701079363545659362
0.205000000000000016,91.734968205526030260
0.206000000000000016,89.807400912033173768
0.207000000000000017,87.924833518178431291
0.208000000000000018,86.085760315633464757
0.209000000000000019,84.285140684432121816
0.210000000000000020,82.517008673052202994
0.211000000000000021,80.775884248864201709
0.212000000000000022,79.057420144345769586
0.213000000000000023,77.358583479354038559
0.214000000000000024,75.677574137869825677
0.215000000000000024,74.013612556085462302
0.216000000000000025,72.366680819206095521
0.217000000000000026,70.737267248862281122
0.218000000000000027,69.126141851734004717
0.219000000000000028,67.534175004641070927
0.220000000000000029,65.962202283202984177
0.221000000000000030,64.410932716734066616
0.222000000000000031,62.880894743982182149
0.223000000000000032,61.372412867227502886
0.224000000000000032,59.885607825481351085
0.225000000000000033,58.420413588916062508
0.226000000000000034,56.976605312385558477
0.227000000000000035,55.553833372681047820
0.228000000000000036,54.151659620927219407
0.229000000000000037,52.769592928320605552
0.230000000000000038,51.407121945857966239
0.231000000000000039,50.063743716545396012
0.232000000000000040,48.738987367441936271
0.233000000000000040,47.432432574334242759
0.234000000000000041,46.143722845200819904
0.235000000000000042,44.872573924137938661
0.236000000000000043,43.618777790276190842
0.237000000000000044,42.382202831328484649
0.238000000000000045,41.162790822630519472
0.239000000000000046,39.960551352268360858
0.240000000000000047,38.775554311871971436
0.241000000000000048,37.607921029976075999
0.242000000000000048,36.457814567980058484
0.243000000000000049,35.325429633687335240
0.244000000000000050,34.210982498884789038
0.245000000000000051,33.114701239000005728
0.246000000000000052,32.036816547180400505
0.247000000000000053,30.977553313988419603
0.248000000000000054,29.937123108485820921
0.249000000000000055,28.915717647450730254
0.250000000000000056,27.913503297097228995
0.251000000000000056,26.930616615911652900
0.252000000000000057,25.967160917822194932
0.253000000000000058,25.023203811467546132
0.254000000000000059,24.098775653308848632
0.255000000000000060,23.193868839172502305
0.256000000000000061,22.308437849919759088
0.257000000000000062,21.442399961726380297
0.258000000000000063,20.595636529345334509
0.259000000000000064,19.767994751183348257
0.260000000000000064,18.959289827548865048
0.261000000000000065,18.169307427579266090
0.262000000000000066,17.397806385723217915
0.263000000000000067,16.644521554897405480
0.264000000000000068,15.909166750246580335
0.265000000000000069,15.191437724559628819
0.266000000000000070,14.491015123618945282
0.267000000000000071,13.807567376908215451
0.268000000000000071,13.140753486039846720
0.269000000000000072,12.490225679876182596
0.270000000000000073,11.855631911529611600
0.271000000000000074,11.236618178179135441
0.272000000000000075,10.632830649896149566
0.273000000000000076,10.043917598413823811
0.274000000000000077,9.469531120993440965
0.275000000000000078,8.909328658245897259
0.276000000000000079,8.362974307971381194
0.277000000000000079,7.830139939805431659
0.278000000000000080,7.310506117736129461
0.279000000000000081,6.803762839410985919
0.280000000000000082,6.309610102621188155
0.281000000000000083,5.827758310465950942
0.282000000000000084,5.357928527498744486
0.283000000000000085,4.899852599673051756
0.284000000000000086,4.453273151171256217
0.285000000000000087,4.017943471251738785
0.286000000000000087,3.593627304112433141
0.287000000000000088,3.180098554476874284
0.288000000000000089,2.777140921185258904
0.289000000000000090,2.384547470543339820
0.290000000000000091,2.002120160569746510
0.291000000000000092,1.629669326604621604
0.292000000000000093,1.267013138020821827
0.293000000000000094,0.913977035026412921
0.294000000000000095,0.570393153779382600
0.295000000000000095,0.236099747262899340
0.296000000000000096,-0.089059391395461596
0.297000000000000097,-0.405235497228316865
0.298000000000000098,-0.712575388152369316
0.299000000000000099,-1.011222001607869903
0.300000000000000100,-1.301314909276538589
0.301000000000000101,-1.582990806672651463
0.302000000000000102,-1.856383974993153219
0.303000000000000103,-2.121626713165105649
0.304000000000000103,-2.378849738537413661
0.305000000000000104,-2.628182555132080545
0.306000000000000105,-2.869753788795873728
0.307000000000000106,-3.103691488977552204
0.308000000000000107,-3.330123397200573265
0.309000000000000108,-3.549177182606293002
0.310000000000000109,-3.760980645211581930
0.311000000000000110,-3.965661887756755100
0.312000000000000111,-4.163349457220182792
0.313000000000000111,-4.354172457243029370
0.314000000000000112,-4.538260632846644604
0.315000000000000113,-4.715744428936484489
0.316000000000000114,-4.886755024172911632
0.317000000000000115,-5.051424341852575495
0.318000000000000116,-5.209885039486872316
0.319000000000000117,-5.362270478787728223
0.320000000000000118,-5.508714677777816426
0.321000000000000119,-5.649352246734530070
0.322000000000000119,-5.784318309655413159
0.323000000000000120,-5.913748412899902718
0.324000000000000121,-6.037778422619714647
0.325000000000000122,-6.156544412538429434
0.326000000000000123,-6.270182543582530243
0.327000000000000124,-6.378828936801655303
0.328000000000000125,-6.482619540946899406
0.329000000000000126,-6.581689996003051490
0.330000000000000127,-6.676175493895335933
0.331000000000000127,-6.766210637514069148
0.332000000000000128,-6.851929299122336836
0.333000000000000129,-6.933464479133365721
0.334000000000000130,-7.010948166165931639
0.335000000000000131,-7.084511199209205579
0.336000000000000132,-7.154283132651883648
0.337000000000000133,-7.220392104856797388
0.338000000000000134,-7.282964710889973325
0.339000000000000135,-7.342125879943116828
0.340000000000000135,-7.397998757922103152
0.341000000000000136,-7.450704595609375147
0.342000000000000137,-7.500362642747293584
0.343000000000000138,-7.547090048331313028
0.344000000000000139,-7.591001767347192342
0.345000000000000140,-7.632210474134801359
0.346000000000000141,-7.670826482512739020
0.347000000000000142,-7.706957672752915656
0.348000000000000143,-7.740709425452672932
0.349000000000000143,-7.772184562313005252
0.350000000000000144,-7.801483293796325214
0.351000000000000145,-7.828703173604395715
0.352000000000000146,-7.853939059887844465
0.353000000000000147,-7.877283083071747960
0.354000000000000148,-7.898824620158080734
0.355000000000000149,-7.918650275344342404
0.356000000000000150,-7.936843866779000223
0.357000000000000151,-7.953486419257994378
0.358000000000000151,-7.968656162652325570
0.359000000000000152,-7.982428535844809048
0.360000000000000153,-7.994876195944193853
0.361000000000000154,-8.006069032536473173
0.362000000000000155,-8.016074186727164985
0.363000000000000156,-8.024956074723455401
0.364000000000000157,-8.032776415701842865
0.365000000000000158,-8.039594263705517108
0.366000000000000159,-8.045466043314604576
0.367000000000000159,-8.050445588833678556
0.368000000000000160,-8.054584186742335561
0.369000000000000161,-8.057930621157460394
0.370000000000000162,-8.060531222059470480
0.371000000000000163,-8.062429916039189237
0.372000000000000164,-8.063668279326982713
0.373000000000000165,-8.064285592871756947
0.374000000000000166,-8.064318899243467342
0.375000000000000167,-8.063803061139413586
0.376000000000000167,-8.062770821282082778
0.377000000000000168,-8.061252863503353794
0.378000000000000169,-8.059277874817746934
0.379000000000000170,-8.056872608295426730
0.380000000000000171,-8.054061946553577656
0.381000000000000172,-8.050868965693130264
0.382000000000000173,-8.047314999515943867
0.383000000000000174,-8.043419703866145909
0.384000000000000175,-8.039201120947211621
0.385000000000000175,-8.034675743475045095
0.386000000000000176,-8.029858578535343128
0.387000000000000177,-8.024763211021474163
0.388000000000000178,-8.019401866537499757
0.389000000000000179,-8.013785473658307623
0.390000000000000180,-8.007923725446890018
0.391000000000000181,-8.001825140136109127
0.392000000000000182,-7.995497120889629272
0.393000000000000183,-7.988946014563820697
0.394000000000000183,-7.982177169399241379
0.395000000000000184,-7.975194991577102321
0.396000000000000185,-7.968003000582397632
0.397000000000000186,-7.960603883321580199
0.398000000000000187,-7.952999546948744225
0.399000000000000188,-7.945191170359824362
0.400000000000000189,-7.937179254319718602
0.401000000000000190,-7.928963670192734625
0.402000000000000191,-7.920543707251377796
0.403000000000000191,-7.911918118543367129
0.404000000000000192,-7.903085165301293458
0.405000000000000193,-7.894042659883377056
0.406000000000000194,-7.884788007237996332
0.407000000000000195,-7.875318244888221741
0.408000000000000196,-7.865630081436248311
0.409000000000000197,-7.855719933590822102
0.410000000000000198,-7.845583961724098110
0.411000000000000199,-7.835218103966747449
0.412000000000000199,-7.824618108853508502
0.413000000000000200,-7.813779566533137100
0.414000000000000201,-7.802697938559653323
0.415000000000000202,-7.791368586283281772
0.416000000000000203,-7.779786797861969028
0.417000000000000204,-7.767947813915682787
0.418000000000000205,-7.755846851847539192
0.419000000000000206,-7.743479128857194027
0.420000000000000207,-7.730839883673036539
0.421000000000000207,-7.717924397031296735
0.422000000000000208,-7.704728010930561588
0.423000000000000209,-7.691246146691694818
0.424000000000000210,-7.677474321853514638
0.425000000000000211,-7.663408165935240213
0.426000000000000212,-7.649043435097553356
0.427000000000000213,-7.634376025734022519
0.428000000000000214,-7.619401987025528733
0.429000000000000214,-7.604117532490067610
0.430000000000000215,-7.588519050560783796
0.431000000000000216,-7.572603114224958354
0.432000000000000217,-7.556366489756778826
0.433000000000000218,-7.539806144576462366
0.434000000000000219,-7.522919254268383149
0.435000000000000220,-7.505703208790484027
0.436000000000000221,-7.488155617906963712
0.437000000000000222,-7.470274315875973237
0.438000000000000222,-7.452057365423735646
0.439000000000000223,-7.433503061035965587
0.440000000000000224,-7.414609931597067494
0.441000000000000225,-7.395376742407077764
0.442000000000000226,-7.375802496605965430
0.443000000000000227,-7.355886436033932441
0.444000000000000228,-7.335628041556377710
0.445000000000000229,-7.315027032880992763
0.446000000000000230,-7.294083367894219627
0.447000000000000230,-7.272797241543590196
0.448000000000000231,-7.251169084291677613
0.449000000000000232,-7.229199560166877703
0.450000000000000233,-7.206889564435530637
0.451000000000000234,-7.184240220919106079
0.452000000000000235,-7.161252878979681213
0.453000000000000236,-7.137929110195993410
0.454000000000000237,-7.114270704751996632
0.455000000000000238,-7.090279667558746723
0.456000000000000238,-7.065958214130112935
0.457000000000000239,-7.041308766231904492
0.458000000000000240,-7.016333947323415643
0.459000000000000241,-6.991036577809578212
0.460000000000000242,-6.965419670121512752
0.461000000000000243,-6.939486423642188484
0.462000000000000244,-6.913240219493734351
0.463000000000000245,-6.886684615201707160
0.464000000000000246,-6.859823339251652996
0.465000000000000246,-6.832660285552027979
0.466000000000000247,-6.805199507817375704
0.467000000000000248,-6.777445213884808695
0.468000000000000249,-6.749401759976374926
0.469000000000000250,-6.721073644919196788
0.470000000000000251,-6.692465504334798254
0.471000000000000252,-6.663582104808324580
0.472000000000000253,-6.634428338048162566
0.473000000000000254,-6.605009215045356541
0.474000000000000254,-6.575329860242345781
0.475000000000000255,-6.545395505719499241
0.476000000000000256,-6.515211485407829350
0.477000000000000257,-6.484783229335557841
0.478000000000000258,-6.454116257915801569
0.479000000000000259,-6.423216176282240397
0.480000000000000260,-6.392088668679205554
0.481000000000000261,-6.360739492912058424
0.482000000000000262,-6.329174474863545896
0.483000000000000262,-6.297399503081293481
0.484000000000000263,-6.265420523441154188
0.485000000000000264,-6.233243533890977517
0.486000000000000265,-6.200874579278819354
0.487000000000000266,-6.168319746269324888
0.488000000000000267,-6.135585158351750223
0.489000000000000268,-6.102676970942741086
0.490000000000000269,-6.069601366586614866
0.491000000000000270,-6.036364550255774120
0.492000000000000270,-6.002972744753366285
0.493000000000000271,-5.969432186220323899
0.494000000000000272,-5.935749119748388480
0.495000000000000273,-5.901929795100670617
0.496000000000000274,-5.867980462541035003
0.497000000000000275,-5.833907368773244784
0.498000000000000276,-5.799716752990842217
0.499000000000000277,-5.765414843038271009
0.500000000000000222,-5.731007851683768806
0.501000000000000334,-5.696501973004248320
0.502000000000000224,-5.661903378882310989
0.503000000000000336,-5.627218215615238606
0.504000000000000226,-5.592452600635907878
0.505000000000000338,-5.557612619345055904
0.506000000000000227,-5.522704322054619475
0.507000000000000339,-5.487733721041353263
0.508000000000000229,-5.452706787710114078
0.509000000000000341,-5.417629449865818181
0.510000000000000231,-5.382507589093346922
0.511000000000000343,-5.347347038244053330
0.512000000000000233,-5.312153579027989458
0.513000000000000345,-5.276932939710391679
0.514000000000000234,-5.241690792911440688
0.515000000000000346,-5.206432753507455047
0.516000000000000236,-5.171164376632579440
0.517000000000000348,-5.135891155779026107
0.518000000000000238,-5.100618520994673055
0.519000000000000350,-5.065351837176087280
0.520000000000000240,-5.030096402455557225
0.521000000000000352,-4.994857446680320834
0.522000000000000242,-4.959640129982287426
0.523000000000000353,-4.924449541436467292
0.524000000000000243,-4.889290697806337072
0.525000000000000355,-4.854168542374313944
0.526000000000000245,-4.819087943855530298
0.527000000000000357,-4.784053695392944228
0.528000000000000247,-4.749070513632101864
0.529000000000000359,-4.714143037873467890
0.530000000000000249,-4.679275829300610035
0.531000000000000361,-4.644473370282203639
0.532000000000000250,-4.609740063746093242
0.533000000000000362,-4.575080232623395027
0.534000000000000252,-4.540498119360837137
0.535000000000000364,-4.505997885499397171
0.536000000000000254,-4.471583611317448970
0.537000000000000366,-4.437259295536335912
0.538000000000000256,-4.403028855086862592
0.539000000000000368,-4.368896124934444458
0.540000000000000258,-4.334864857961496121
0.541000000000000369,-4.300938724904862731
0.542000000000000259,-4.267121314346841388
0.543000000000000371,-4.233416132757729322
0.544000000000000261,-4.199826604588337453
0.545000000000000373,-4.166356072410624556
0.546000000000000263,-4.133007797104847114
0.547000000000000375,-4.099784958091289511
0.548000000000000265,-4.066690653605329331
0.549000000000000377,-4.033727901013705264
0.550000000000000266,-4.000899637170799217
0.551000000000000378,-3.968208718813021285
0.552000000000000268,-3.935657922989969304
0.553000000000000380,-3.903249947530651021
0.554000000000000270,-3.870987411543425960
0.555000000000000382,-3.838872855947977225
0.556000000000000272,-3.806908744038155934
0.557000000000000384,-3.775097462073900179
0.558000000000000274,-3.743441319901261721
0.559000000000000385,-3.711942551598752971
0.560000000000000275,-3.680603316149053228
0.561000000000000387,-3.649425698134484808
0.562000000000000277,-3.618411708455162135
0.563000000000000389,-3.587563285068481100
0.564000000000000279,-3.556882293748775847
0.565000000000000391,-3.526370528865919063
0.566000000000000281,-3.496029714181752901
0.567000000000000393,-3.465861503663159482
0.568000000000000282,-3.435867482310793086
0.569000000000000394,-3.406049167002199063
0.570000000000000284,-3.376408007348533857
0.571000000000000396,-3.346945386563631164
0.572000000000000286,-3.317662622344656143
0.573000000000000398,-3.288560967763144216
0.574000000000000288,-3.259641612165746771
0.575000000000000400,-3.230905682083593522
0.576000000000000290,-3.202354242149508590
0.577000000000000401,-3.173988296022161482
0.578000000000000291,-3.145808787316392241
0.579000000000000403,-3.117816600538863447
0.580000000000000293,-3.090012562028336518
0.581000000000000405,-3.062397440899699230
0.582000000000000295,-3.034971949991241313
0.583000000000000407,-3.007736746814226425
0.584000000000000297,-2.980692434504307542
0.585000000000000409,-2.953839562773992178
0.586000000000000298,-2.927178628865653387
0.587000000000000410,-2.900710078504340927
0.588000000000000300,-2.874434306850000453
0.589000000000000412,-2.848351659448327133
0.590000000000000302,-2.822462433179924179
0.591000000000000414,-2.796766877207112145
0.592000000000000304,-2.771265193917984426
0.593000000000000416,-2.745957539867119657
0.594000000000000306,-2.720844026712681440
0.595000000000000417,-2.695924722149265929
0.596000000000000307,-2.671199650836247663
0.597000000000000419,-2.646668795321108991
0.598000000000000309,-2.622332096957487035
0.599000000000000421,-2.598189456817432408
0.600000000000000311,-2.574240736597715351
0.601000000000000423,-2.550485759519657059
0.602000000000000313,-2.526924311222380037
0.603000000000000425,-2.503556140648951267
0.604000000000000314,-2.480380960925416822
0.605000000000000426,-2.457398450232151088
0.606000000000000316,-2.434608252667577410
0.607000000000000428,-2.412009979103750368
0.608000000000000318,-2.389603208033832971
0.609000000000000430,-2.367387486411011377
0.610000000000000320,-2.345362330478891089
0.611000000000000432,-2.323527226592973172
0.612000000000000322,-2.301881632033237590
0.613000000000000433,-2.280424975807508581
0.614000000000000323,-2.259156659445584747
0.615000000000000435,-2.238076057783920270
0.616000000000000325,-2.217182519740764413
0.617000000000000437,-2.196475369081622109
0.618000000000000327,-2.175953905175010750
0.619000000000000439,-2.155617403738266269
0.620000000000000329,-2.135465117573497551
0.621000000000000441,-2.115496277293469340
0.622000000000000330,-2.095710092037438521
0.623000000000000442,-2.076105750176822973
0.624000000000000332,-2.056682420010718104
0.625000000000000444,-2.037439250451153150
0.626000000000000334,-2.018375371698129861
0.627000000000000446,-1.999489895904331238
0.628000000000000336,-1.980781917829567362
0.629000000000000448,-1.962250515484877722
0.630000000000000338,-1.943894750766358426
0.631000000000000449,-1.925713670078615491
0.632000000000000339,-1.907706304947967890
0.633000000000000451,-1.889871672625311749
0.634000000000000341,-1.872208776678746078
0.635000000000000453,-1.854716607575928933
0.636000000000000343,-1.837394143256219525
0.637000000000000455,-1.820240349692626491
0.638000000000000345,-1.803254181443659787
0.639000000000000457,-1.786434582194993625
0.640000000000000346,-1.769780485291183370
0.641000000000000458,-1.753290814257287833
0.642000000000000348,-1.736964483310639462
0.643000000000000460,-1.720800397862644271
0.644000000000000350,-1.704797455010857110
0.645000000000000462,-1.688954544021216808
0.646000000000000352,-1.673270546800688319
0.647000000000000464,-1.657744338360207736
0.648000000000000353,-1.642374787268212843
0.649000000000000465,-1.627160756094589100
0.650000000000000355,-1.612101101845382134
0.651000000000000467,-1.597194676388105972
0.652000000000000357,-1.582440326867958991
0.653000000000000469,-1.567836896114831235
0.654000000000000359,-1.553383223041390648
0.655000000000000471,-1.539078143032148960
0.656000000000000361,-1.524920488323777912
0.657000000000000473,-1.510909088376610310
0.658000000000000362,-1.497042770237572151
0.659000000000000474,-1.483320358894505864
0.660000000000000364,-1.469740677622121350
0.661000000000000476,-1.456302548319526435
0.662000000000000366,-1.443004791839577639
0.663000000000000478,-1.429846228310062139
