# ZnO1m210NB_HSPSCA-JS
# h[nm],U(h)[kJ/mol]
0.149999999999999994,111.314643525406580693
0.150999999999999995,109.270313642276235555
0.151999999999999996,108.002942908892350715
0.152999999999999997,106.927835168041795555
0.153999999999999998,105.819844388893145037
0.154999999999999999,104.627760128328503697
0.156000000000000000,103.371959906429964349
0.157000000000000001,102.091904878567575565
0.158000000000000002,100.822347795760549616
0.159000000000000002,99.585193728423874404
0.160000000000000003,98.389178067337169864
0.161000000000000004,97.232847888175371054
0.162000000000000005,96.108397667102821060
0.163000000000000006,95.005156527096332297
0.164000000000000007,93.912246028862341518
0.165000000000000008,92.820320717547403433
0.166000000000000009,91.722496660287873738
0.167000000000000010,90.614649040122770884
0.168000000000000010,89.495271034147691580
0.169000000000000011,88.365065073483350488
0.170000000000000012,87.226403397886841162
0.171000000000000013,86.082758408663238470
0.172000000000000014,84.938170266498318028
0.173000000000000015,83.796791875739842226
0.174000000000000016,82.662530411258813956
0.175000000000000017,81.538789466277762585
0.176000000000000018,80.428305862606265464
0.177000000000000018,79.333069157573845587
0.178000000000000019,78.254308922235935597
0.179000000000000020,77.192534085769139551
0.180000000000000021,76.147609322839358015
0.181000000000000022,75.118855038002124047
0.182000000000000023,74.105159547604031900
0.183000000000000024,73.105094268844823091
0.184000000000000025,72.117024889164355272
0.185000000000000026,71.139213475185002267
0.186000000000000026,70.169908215188158351
0.187000000000000027,69.207418940626297399
0.188000000000000028,68.250177737641394060
0.189000000000000029,67.296784855142647075
0.190000000000000030,66.346040769172020646
0.191000000000000031,65.396965707264996581
0.192000000000000032,64.448808206245544739
0.193000000000000033,63.501044406416497168
0.194000000000000034,62.553369805865294495
0.195000000000000034,61.605685138507780607
0.196000000000000035,60.658077922497128043
0.197000000000000036,59.710801071686411490
0.198000000000000037,58.764249788093344762
0.199000000000000038,57.818937770433514345
0.200000000000000039,56.875473592358801511
0.201000000000000040,55.934537931017459300
0.202000000000000041,54.996862166706442565
0.203000000000000042,54.063208730691300730
0.204000000000000042,53.134353452276151586
0.205000000000000043,52.211070048381813535
0.206000000000000044,51.294116808877660674
0.207000000000000045,50.384225457779791668
0.208000000000000046,49.482092112851269405
0.209000000000000047,48.588370222558033618
0.210000000000000048,47.703665328074087881
0.211000000000000049,46.828531477392445481
0.212000000000000050,45.963469106927462349
0.213000000000000050,45.108924201730381753
0.214000000000000051,44.265288547137032538
0.215000000000000052,43.432900891029149193
0.216000000000000053,42.612048845768477179
0.217000000000000054,41.802971371254663779
0.218000000000000055,41.005861694617159685
0.219000000000000056,40.220870537060349648
0.220000000000000057,39.448109533757175882
0.221000000000000058,38.687654747961779833
0.222000000000000058,37.939550195315348446
0.223000000000000059,37.203811308381418144
0.224000000000000060,36.480428284562051999
0.225000000000000061,35.769369272587617559
0.226000000000000062,35.070583363656943732
0.227000000000000063,34.384003363001532705
0.228000000000000064,33.709548326158525811
0.229000000000000065,33.047125851590479328
0.230000000000000066,32.396634127542561998
0.231000000000000066,31.757963736240572672
0.232000000000000067,31.130999222789405678
0.233000000000000068,30.515620439511344841
0.234000000000000069,29.911703679056888205
0.235000000000000070,29.319122611513773080
0.236000000000000071,28.737749042019732570
0.237000000000000072,28.167453506132783758
0.238000000000000073,27.608105720508895331
0.239000000000000073,27.059574906354299628
0.240000000000000074,26.521730002722271990
0.241000000000000075,25.994439786078629595
0.242000000000000076,25.477572911716080739
0.243000000000000077,24.970997891606593555
0.244000000000000078,24.474583022185626646
0.245000000000000079,23.988196274398355001
0.246000000000000080,23.511705157140038835
0.247000000000000081,23.044976564014127973
0.248000000000000081,22.587876612138483523
0.249000000000000082,22.140270480567917133
0.250000000000000111,21.702022254785710231
0.251000000000000112,21.272994782659232271
0.252000000000000113,20.853049546262802494
0.253000000000000114,20.442046553052076518
0.254000000000000115,20.039844249029940215
0.255000000000000115,19.646299455777722187
0.256000000000000116,19.261267332537130414
0.257000000000000117,18.884601363916363681
0.258000000000000118,18.516153373257189685
0.259000000000000119,18.155773561234248348
0.260000000000000120,17.803310568860929664
0.261000000000000121,17.458611563743417605
0.262000000000000122,17.121522348151547277
0.263000000000000123,16.791887487257575629
0.264000000000000123,16.469550455726697180
0.265000000000000124,16.154353800722184076
0.266000000000000125,15.846139319308113258
0.267000000000000126,15.544748248189666384
0.268000000000000127,15.250021463719829029
0.269000000000000128,14.961799690119534034
0.270000000000000129,14.679923713899674098
0.271000000000000130,14.404234602535899157
0.272000000000000131,14.134573925527188720
0.273000000000000131,13.870783976062407206
0.274000000000000132,13.612707991624484194
0.275000000000000133,13.360190371974919543
0.276000000000000134,13.113076893080963359
0.277000000000000135,12.871214915671725265
0.278000000000000136,12.634453587234974137
0.279000000000000137,12.402644036392661775
0.280000000000000138,12.175639558719010935
0.281000000000000139,11.953295793187617591
0.282000000000000139,11.735470888554546676
0.283000000000000140,11.522025659099924155
0.284000000000000141,11.312823729261925365
0.285000000000000142,11.107731666802479253
0.286000000000000143,10.906619104244059670
0.287000000000000144,10.709358848410641230
0.288000000000000145,10.515826977992956515
0.289000000000000146,10.325902929139406439
0.290000000000000147,10.139469569147717465
0.291000000000000147,9.956413258400424127
0.292000000000000148,9.776623900748237617
0.293000000000000149,9.599994982600303928
0.294000000000000150,9.426423601028947274
0.295000000000000151,9.255810481239180376
0.296000000000000152,9.088059983790328644
0.297000000000000153,8.923080101988563939
0.298000000000000154,8.760782449895547330
0.299000000000000155,8.601082241419874208
0.300000000000000155,8.443898260974885162
0.301000000000000156,8.289152826199190471
0.302000000000000157,8.136771743244734623
0.303000000000000158,7.986684255142516342
0.304000000000000159,7.838822983757587792
0.305000000000000160,7.693123865843789488
0.306000000000000161,7.549526083704407142
0.307000000000000162,7.407971990958428066
0.308000000000000163,7.268407033903281800
0.309000000000000163,7.130779668954138728
0.310000000000000164,6.995041276627354421
0.311000000000000165,6.861146072521691508
0.312000000000000166,6.729051015735672436
0.313000000000000167,6.598715715143120164
0.314000000000000168,6.470102333931755823
0.315000000000000169,6.343175492791763403
0.316000000000000170,6.217902172122857785
0.317000000000000171,6.094251613609483975
0.318000000000000171,5.972195221494879469
0.319000000000000172,5.851706463865189889
0.320000000000000173,5.732760774235963197
0.321000000000000174,5.615335453714051184
0.322000000000000175,5.499409573988980782
0.323000000000000176,5.384963881389266405
0.324000000000000177,5.271980702220765203
0.325000000000000178,5.160443849586286547
0.326000000000000179,5.050338531868092673
0.327000000000000179,4.941651263038086661
0.328000000000000180,4.834369774944029530
0.329000000000000181,4.728482931704212078
0.330000000000000182,4.623980646327924049
0.331000000000000183,4.520853799664278583
0.332000000000000184,4.419094161768152063
0.333000000000000185,4.318694315758611069
0.334000000000000186,4.219647584232558479
0.335000000000000187,4.121947958284367886
0.336000000000000187,4.025590029170855288
0.337000000000000188,3.930568922650550689
0.338000000000000189,3.836880236015820067
0.339000000000000190,3.744519977827303059
0.340000000000000191,3.653484510351353354
0.341000000000000192,3.563770494692928281
0.342000000000000193,3.475374838608902728
0.343000000000000194,3.388294646979802760
0.344000000000000195,3.302527174911753072
0.345000000000000195,3.218069783434160946
0.346000000000000196,3.134919897753881024
0.347000000000000197,3.053074968021331159
0.348000000000000198,2.972532432559973348
0.349000000000000199,2.893289683506594656
0.350000000000000200,2.815344034806392504
0.351000000000000201,2.738692692503869708
0.352000000000000202,2.663332727267978761
0.353000000000000203,2.589261049087594024
0.354000000000000203,2.516474384071591963
0.355000000000000204,2.444969253286295441
0.356000000000000205,2.374741953561736008
0.357000000000000206,2.305788540197144521
0.358000000000000207,2.238104811495737589
0.359000000000000208,2.171686295058084859
0.360000000000000209,2.106528235763325263
0.361000000000000210,2.042625585367668251
0.362000000000000210,1.979972993649594670
0.363000000000000211,1.918564801031848788
0.364000000000000212,1.858395032610782760
0.365000000000000213,1.799457393524428239
0.366000000000000214,1.741745265591570391
0.367000000000000215,1.685251705155162316
0.368000000000000216,1.629969442064448160
0.369000000000000217,1.575890879731627336
0.370000000000000218,1.523008096200015427
0.371000000000000218,1.471312846162279531
0.372000000000000219,1.420796563868660822
0.373000000000000220,1.371450366866727943
0.374000000000000221,1.323265060515855573
0.375000000000000222,1.276231143221258524
0.376000000000000223,1.230338812333920950
0.377000000000000224,1.185577970664786207
0.378000000000000225,1.141938233563063232
0.379000000000000226,1.099408936510365642
0.380000000000000226,1.057979143184038406
0.381000000000000227,1.017637653945002274
0.382000000000000228,0.978373014706923505
0.383000000000000229,0.940173526145475558
0.384000000000000230,0.903027253208128711
0.385000000000000231,0.866922034886501769
0.386000000000000232,0.831845494215258441
0.387000000000000233,0.797785048462891555
0.388000000000000234,0.764727919481714147
0.389000000000000234,0.732661144185674074
0.390000000000000235,0.701571585126461006
0.391000000000000236,0.671445941139760527
0.392000000000000237,0.642270758035106026
0.393000000000000238,0.614032439304226907
0.394000000000000239,0.586717256824287881
0.395000000000000240,0.560311361533739616
0.396000000000000241,0.534800794059936302
0.397000000000000242,0.510171495279002185
0.398000000000000242,0.486409316789631618
0.399000000000000243,0.463500031283899161
0.400000000000000244,0.441429342799196434
0.401000000000000245,0.420182896836666209
0.402000000000000246,0.399746290332679555
0.403000000000000247,0.380105081470799744
0.404000000000000248,0.361244799322918753
0.405000000000000249,0.343150953309082241
0.406000000000000250,0.325809042466625454
0.407000000000000250,0.309204564519999836
0.408000000000000251,0.293323024743687100
0.409000000000000252,0.278149944611351896
0.410000000000000253,0.263670870225209908
0.411000000000000254,0.249871380520358150
0.412000000000000255,0.236737095239537343
0.413000000000000256,0.224253682674446425
0.414000000000000257,0.212406867170498753
0.415000000000000258,0.201182436392339931
0.416000000000000258,0.190566248348274098
0.417000000000000259,0.180544238172068383
0.418000000000000260,0.171102424661320501
0.419000000000000261,0.162226916571923618
0.420000000000000262,0.153903918668757439
0.421000000000000263,0.146119737533018629
0.422000000000000264,0.138860787127206231
0.423000000000000265,0.132113594118978550
0.424000000000000266,0.125864802965523104
0.425000000000000266,0.120101180760513862
0.426000000000000267,0.114809621845816598
0.427000000000000268,0.109977152190637278
0.428000000000000269,0.105590933540893148
0.429000000000000270,0.101638267341865693
0.430000000000000271,0.098106598437538578
0.431000000000000272,0.094983518550009111
0.432000000000000273,0.092256769542775133
0.433000000000000274,0.089914246471674009
0.434000000000000274,0.087944000427553431
0.435000000000000275,0.086334241174776588
0.436000000000000276,0.085073339589835803
0.437000000000000277,0.084149829904471576
0.438000000000000278,0.083552411757722614
0.439000000000000279,0.083269952061458638
0.440000000000000280,0.083291486684007626
0.441000000000000281,0.083606221956542950
0.442000000000000282,0.084203536006868834
0.443000000000000282,0.085072979925448378
0.444000000000000283,0.086204278768295908
0.445000000000000284,0.087587332401598508
0.446000000000000285,0.089212216192823268
0.447000000000000286,0.091069181552986975
0.448000000000000287,0.093148656334986590
0.449000000000000288,0.095441245092581936
0.450000000000000289,0.097937729204849250
0.451000000000000290,0.100629066870725398
0.452000000000000290,0.103506392978260878
0.453000000000000291,0.106561018853264716
0.454000000000000292,0.109784431891779374
0.455000000000000293,0.113168295080961462
0.456000000000000294,0.116704446412775997
0.457000000000000295,0.120384898194854359
0.458000000000000296,0.124201836262895021
0.459000000000000297,0.128147619098771814
0.460000000000000298,0.132214776858599781
0.461000000000000298,0.136396010314794536
0.462000000000000299,0.140684189716193286
0.463000000000000300,0.145072353570191576
0.464000000000000301,0.149553707350727594
0.465000000000000302,0.154121622135926367
0.466000000000000303,0.158769633179142333
0.467000000000000304,0.163491438416957846
0.468000000000000305,0.168280896917747558
0.469000000000000306,0.173132027274237238
0.470000000000000306,0.178039005943388895
0.471000000000000307,0.182996165537001293
0.472000000000000308,0.187997993066125274
0.473000000000000309,0.193039128142461325
0.474000000000000310,0.198114361139761608
0.475000000000000311,0.203218631318199450
0.476000000000000312,0.208347024914512957
0.477000000000000313,0.213494773200763988
0.478000000000000314,0.218657250514381840
0.479000000000000314,0.223829972262066079
0.480000000000000315,0.229008592900145747
0.481000000000000316,0.234188903893762124
0.482000000000000317,0.239366831657316592
0.483000000000000318,0.244538435478400290
0.484000000000000319,0.249699905427470725
0.485000000000000320,0.254847560255354988
0.486000000000000321,0.259977845280666919
0.487000000000000322,0.265087330269085208
0.488000000000000322,0.270172707306465809
0.489000000000000323,0.275230788667491233
0.490000000000000324,0.280258504681749288
0.491000000000000325,0.285252901598849695
0.492000000000000326,0.290211139454241152
0.493000000000000327,0.295130489937236451
0.494000000000000328,0.300008334262788945
0.495000000000000329,0.304842161048389904
0.496000000000000330,0.309629564197508089
0.497000000000000330,0.314368240790771414
0.498000000000000331,0.319055988986277572
0.499000000000000332,0.323690705930049116
0.500000000000000333,0.328270385677856769
0.501000000000000334,0.332793117129486671
0.502000000000000335,0.337257081976379491
0.503000000000000336,0.341660552663686334
0.504000000000000337,0.346001890367591103
0.505000000000000338,0.350279542988801096
0.506000000000000338,0.354492043162966231
0.507000000000000339,0.358638006288833078
0.508000000000000340,0.362716128574842700
0.509000000000000341,0.366725185104787188
0.510000000000000342,0.370664027923246542
0.511000000000000343,0.374531584141299945
0.512000000000000344,0.378326854063136486
0.513000000000000345,0.382048909334014919
0.514000000000000346,0.385696891110043183
0.515000000000000346,0.389270008250256816
0.516000000000000347,0.392767535531356515
0.517000000000000348,0.396188811885435754
0.518000000000000349,0.399533238661116730
0.519000000000000350,0.402800277908286486
0.520000000000000351,0.405989450686797315
0.521000000000000352,0.409100335399274484
0.522000000000000353,0.412132566148324220
0.523000000000000353,0.415085831118268467
0.524000000000000354,0.417959870981569448
0.525000000000000355,0.420754477330093302
0.526000000000000356,0.423469491131307219
0.527000000000000357,0.426104801209463868
0.528000000000000358,0.428660342751899126
0.529000000000000359,0.431136095840384592
0.530000000000000360,0.433532084007663632
0.531000000000000361,0.435848372819065688
0.532000000000000361,0.438085068479250939
0.533000000000000362,0.440242316463996086
0.534000000000000363,0.442320300177016734
0.535000000000000364,0.444319239631687068
0.536000000000000365,0.446239390157643689
0.537000000000000366,0.448081041132100677
0.538000000000000367,0.449844514735834811
0.539000000000000368,0.451530164733609296
0.540000000000000369,0.453138375279017847
0.541000000000000369,0.454669559743473062
0.542000000000000370,0.456124159569276155
0.543000000000000371,0.457502643146520782
0.544000000000000372,0.458805504713675316
0.545000000000000373,0.460033263281644289
0.546000000000000374,0.461186461581105600
0.547000000000000375,0.462265665032916329
0.548000000000000376,0.463271460741332297
0.549000000000000377,0.464204456509877961
0.550000000000000377,0.465065279879557647
0.551000000000000378,0.465854577189243113
0.552000000000000379,0.466573012657915343
0.553000000000000380,0.467221267488569958
0.554000000000000381,0.467800038993512857
0.555000000000000382,0.468310039740740092
0.556000000000000383,0.468751996721230690
0.557000000000000384,0.469126650536765943
0.558000000000000385,0.469434754608126004
0.559000000000000385,0.469677074403283712
0.560000000000000386,0.469854386685374048
0.561000000000000387,0.469967478780154935
0.562000000000000388,0.470017147862670348
0.563000000000000389,0.470004200262809757
0.564000000000000390,0.469929450789527414
0.565000000000000391,0.469793722073386988
0.566000000000000392,0.469597843927188674
0.567000000000000393,0.469342652724333398
0.568000000000000393,0.469028990794710665
0.569000000000000394,0.468657705837753291
0.570000000000000395,0.468229650352407656
0.571000000000000396,0.467745681083743370
0.572000000000000397,0.467206658485851523
0.573000000000000398,0.466613446200851267
0.574000000000000399,0.465966910553590963
0.575000000000000400,0.465267920061882723
0.576000000000000401,0.464517344961910328
0.577000000000000401,0.463716056748524341
0.578000000000000402,0.462864927730206932
0.579000000000000403,0.461964830598385112
0.580000000000000404,0.461016638010783630
0.581000000000000405,0.460021222188629508
0.582000000000000406,0.458979454527347230
0.583000000000000407,0.457892205220533088
0.584000000000000408,0.456760342896911531
0.585000000000000409,0.455584734270012892
0.586000000000000409,0.454366243800326142
0.587000000000000410,0.453105733369620178
0.588000000000000411,0.451804061967248871
0.589000000000000412,0.450462085388091016
0.590000000000000413,0.449080655941967610
0.591000000000000414,0.447660622174214762
0.592000000000000415,0.446202828597188905
0.593000000000000416,0.444708115432476236
0.594000000000000417,0.443177318363553785
0.595000000000000417,0.441611268298618576
0.596000000000000418,0.440010791143455093
0.597000000000000419,0.438376707583984337
0.598000000000000420,0.436709832878369952
0.599000000000000421,0.435010976658377735
0.600000000000000422,0.433280942739814712
0.601000000000000423,0.431520528941819026
0.602000000000000424,0.429730526914752442
0.603000000000000425,0.427911721976518167
0.604000000000000425,0.426064892957091768
0.605000000000000426,0.424190812051038590
0.606000000000000427,0.422290244677795079
0.607000000000000428,0.420363949349620847
0.608000000000000429,0.418412677546825318
0.609000000000000430,0.416437173600323784
0.610000000000000431,0.414438174581094831
0.611000000000000432,0.412416410196517647
0.612000000000000433,0.410372602693342858
0.613000000000000433,0.408307466767083072
0.614000000000000434,0.406221709477714299
0.615000000000000435,0.404116030171471574
0.616000000000000436,0.401991120408576208
0.617000000000000437,0.399847663896700900
0.618000000000000438,0.397686336430058240
0.619000000000000439,0.395507805833922588
0.620000000000000440,0.393312731914403080
