# ZnO1m210NB_MAMM-AC
# h[nm],U(h)[kJ/mol]
0.200000000000000011,46.223888651528113769
0.201000000000000012,45.394502636002613372
0.202000000000000013,44.679224764922068402
0.203000000000000014,43.993660846468252146
0.204000000000000015,43.298193728225477628
0.205000000000000016,42.579379673661897243
0.206000000000000016,41.837860067670867181
0.207000000000000017,41.080777628474592689
0.208000000000000018,40.317250140504057754
0.209000000000000019,39.555871671993614314
0.210000000000000020,38.803517463816042721
0.211000000000000021,38.064951809896832913
0.212000000000000022,37.342899351463344715
0.213000000000000023,36.638355265819633644
0.214000000000000024,35.950990938644665107
0.215000000000000024,35.279567974938260022
0.216000000000000025,34.622311654035151207
0.217000000000000026,33.977220256822739941
0.218000000000000027,33.342302857315594622
0.219000000000000028,32.715747947483450275
0.220000000000000029,32.096030674401710314
0.221000000000000030,31.481968970992408430
0.222000000000000031,30.872739496025339179
0.223000000000000032,30.267863796464574477
0.224000000000000032,29.667173969549629930
0.225000000000000033,29.070765672145661540
0.226000000000000034,28.478944821307958790
0.227000000000000035,27.892172889090272037
0.228000000000000036,27.311014394238963376
0.229000000000000037,26.736089071515671378
0.230000000000000038,26.168030267551415591
0.231000000000000039,25.607450365220522315
0.232000000000000040,25.054913461506551187
0.233000000000000040,24.510915096520459855
0.234000000000000041,23.975868531531954631
0.235000000000000042,23.450096879474639167
0.236000000000000043,22.933830281610674717
0.237000000000000044,22.427207280181313820
0.238000000000000045,21.930279542605468635
0.239000000000000046,21.443019134270784321
0.240000000000000047,20.965327602720140732
0.241000000000000048,20.497046216805308916
0.242000000000000048,20.037966792849314146
0.243000000000000049,19.587842630429491919
0.244000000000000050,19.146399168914790323
0.245000000000000051,18.713344059413252296
0.246000000000000052,18.288376423351120792
0.247000000000000053,17.871195137332044567
0.248000000000000054,17.461506043650491193
0.249000000000000055,17.059028036759208646
0.250000000000000056,16.663498018360716202
0.251000000000000056,16.274674748094280829
0.252000000000000057,15.892341643670258478
0.253000000000000058,15.516308604506289015
0.254000000000000059,15.146412947231064905
0.255000000000000060,14.782519550637426065
0.256000000000000061,14.424520312559369728
0.257000000000000062,14.072333022448916040
0.258000000000000063,13.725899751815759942
0.259000000000000064,13.385184860778839067
0.260000000000000064,13.050172713312301553
0.261000000000000065,12.720865186828806515
0.262000000000000066,12.397279053943623950
0.263000000000000067,12.079443305957150656
0.264000000000000068,11.767396479071589255
0.265000000000000069,11.461184035860583208
0.266000000000000070,11.160855846229326360
0.267000000000000071,10.866463804184757436
0.268000000000000071,10.578059609292882470
0.269000000000000072,10.295692734810410585
0.270000000000000073,10.019408598192914184
0.271000000000000074,9.749246944028934436
0.272000000000000075,9.485240444437957663
0.273000000000000076,9.227413517594197145
0.274000000000000077,8.975781361278263759
0.275000000000000078,8.730349195187880440
0.276000000000000079,8.491111703121990928
0.277000000000000079,8.258052664049653657
0.278000000000000080,8.031144759444643455
0.279000000000000081,7.810349543062828914
0.280000000000000082,7.595617558519057511
0.281000000000000083,7.386888589537868199
0.282000000000000084,7.184092027566367555
0.283000000000000085,6.987147341506077858
0.284000000000000086,6.795964634605295984
0.285000000000000087,6.610445274018796447
0.286000000000000087,6.430482579153419920
0.287000000000000088,6.255962555647189838
0.288000000000000089,6.086764662647368596
0.289000000000000090,5.922762601935784410
0.290000000000000091,5.763825118375875078
0.291000000000000092,5.609816802105624056
0.292000000000000093,5.460598883858579278
0.293000000000000094,5.316030015746157744
0.294000000000000095,5.175967030767632870
0.295000000000000095,5.040265675218895680
0.296000000000000096,4.908781309039982332
0.297000000000000097,4.781369569967713673
0.298000000000000098,4.657886998139098900
0.299000000000000099,4.538191618519567427
0.300000000000000100,4.422143479205855598
0.301000000000000101,4.309605144274526012
0.302000000000000102,4.200442140413994885
0.303000000000000103,4.094523357089858706
0.304000000000000103,3.991721400452727941
0.305000000000000104,3.891912901604356989
0.306000000000000105,3.794978780195145784
0.307000000000000106,3.700804464635220281
0.308000000000000107,3.609280070465266110
0.309000000000000108,3.520300538654697498
0.310000000000000109,3.433765735776127315
0.311000000000000110,3.349580518149987363
0.312000000000000111,3.267654762163314963
0.313000000000000111,3.187903363046542093
0.314000000000000112,3.110246204442929319
0.315000000000000113,3.034608101131067492
0.316000000000000114,2.960918717263498312
0.317000000000000115,2.889112462467098741
0.318000000000000116,2.819128368115503935
0.319000000000000117,2.750909946033083919
0.320000000000000118,2.684405031825944921
0.321000000000000119,2.619565614960007505
0.322000000000000119,2.556347657621625746
0.323000000000000120,2.494710904303945487
0.324000000000000121,2.434618683963831298
0.325000000000000122,2.376037706491500145
0.326000000000000123,2.318937855129022285
0.327000000000000124,2.263291976365900293
0.328000000000000125,2.209075668730992259
0.329000000000000126,2.156267071791423184
0.330000000000000127,2.104846656561005780
0.331000000000000127,2.054797018414590504
0.332000000000000128,2.006102673500626654
0.333000000000000129,1.958749859543094329
0.334000000000000130,1.912726341826024079
0.335000000000000131,1.868021225059480539
0.336000000000000132,1.824624771735741557
0.337000000000000133,1.782528227498111573
0.338000000000000134,1.741723653963190843
0.339000000000000135,1.702203769360233876
0.340000000000000135,1.663961797278513455
0.341000000000000136,1.626991323745719198
0.342000000000000137,1.591286162796985648
0.343000000000000138,1.556840230635445854
0.344000000000000139,1.523647428430856321
0.345000000000000140,1.491701533753123643
0.346000000000000141,1.460996100591993141
0.347000000000000142,1.431524367872945458
0.348000000000000143,1.403279176341972745
0.349000000000000143,1.376252893658677090
0.350000000000000144,1.350437347507365216
0.351000000000000145,1.325823766509834467
0.352000000000000146,1.302402728700711165
0.353000000000000147,1.280164117306770377
0.354000000000000148,1.259097083555023033
0.355000000000000149,1.239190016220726109
0.356000000000000150,1.220430517615337829
0.357000000000000151,1.202805385705824737
0.358000000000000151,1.186300602050366582
0.359000000000000152,1.170901325231292089
0.360000000000000153,1.156591889463672418
0.361000000000000154,1.143355808057587186
0.362000000000000155,1.131175781413019665
0.363000000000000156,1.120033709228958507
0.364000000000000157,1.109910706612128539
0.365000000000000158,1.100787123775720744
0.366000000000000159,1.092642569024727450
0.367000000000000159,1.085455934731355709
0.368000000000000160,1.079205426011897728
0.369000000000000161,1.073868591824933105
0.370000000000000162,1.069422358219854541
0.371000000000000163,1.065843063474310570
0.372000000000000164,1.063106494869225482
0.373000000000000165,1.061187926860360786
0.374000000000000166,1.060062160415991217
0.375000000000000167,1.059703563301121365
0.376000000000000167,1.060086111099425521
0.377000000000000168,1.061183428775159587
0.378000000000000169,1.062968832588191637
0.379000000000000170,1.065415372186159448
0.380000000000000171,1.068495872708622230
0.381000000000000172,1.072182976748671690
0.382000000000000173,1.076449186028034966
0.383000000000000174,1.081266902651874862
0.384000000000000175,1.086608469819679845
0.385000000000000175,1.092446211878356666
0.386000000000000176,1.098752473613161751
0.387000000000000177,1.105499658681434960
0.388000000000000178,1.112660267102870471
0.389000000000000179,1.120206931728869648
0.390000000000000180,1.128112453621596067
0.391000000000000181,1.136349836281471903
0.392000000000000182,1.144892318669333608
0.393000000000000183,1.153713406976824896
0.394000000000000183,1.162786905105453794
0.395000000000000184,1.172086943821320393
0.396000000000000185,1.181588008558821290
0.397000000000000186,1.191264965852431912
0.398000000000000187,1.201093088381273377
0.399000000000000188,1.211048078616405732
0.400000000000000189,1.221106091065663479
0.401000000000000190,1.231243753115446316
0.402000000000000191,1.241438184473126816
0.403000000000000191,1.251667015217772905
0.404000000000000192,1.261908402470478530
0.405000000000000193,1.272141045699068940
0.406000000000000194,1.282344200675010537
0.407000000000000195,1.292497692103252049
0.408000000000000196,1.302581924948309711
0.409000000000000197,1.312577894482289009
0.410000000000000198,1.322467195082605684
0.411000000000000199,1.332232027809168828
0.412000000000000199,1.341855206792370137
0.413000000000000200,1.351320164464791862
0.414000000000000201,1.360610955670764843
0.415000000000000202,1.369712260689115002
0.416000000000000203,1.378609387205237180
0.417000000000000204,1.387288271269548456
0.418000000000000205,1.395735477279867798
0.419000000000000206,1.403938197025805579
0.420000000000000207,1.411884247833608885
0.421000000000000207,1.419562069849966246
0.422000000000000208,1.426960722503609391
0.423000000000000209,1.434069880183250545
0.424000000000000210,1.440879827170479910
0.425000000000000211,1.447381451865933588
0.426000000000000212,1.453566240346700456
0.427000000000000213,1.459426269292658507
0.428000000000000214,1.464954198318816792
0.429000000000000214,1.470143261750351815
0.430000000000000215,1.474987259876322510
0.431000000000000216,1.479480549717441695
0.432000000000000217,1.483618035342596508
0.433000000000000218,1.487395157768044651
0.434000000000000219,1.490807884472415967
0.435000000000000220,1.493852698559857917
0.436000000000000221,1.496526587602806879
0.437000000000000222,1.498827032194993025
0.438000000000000222,1.500751994244376331
0.439000000000000223,1.502299905034806038
0.440000000000000224,1.503469653084297031
0.441000000000000225,1.504260571826838033
0.442000000000000226,1.504672427143693536
0.443000000000000227,1.504705404769290489
0.444000000000000228,1.504360097595703438
0.445000000000000229,1.503637492898927785
0.446000000000000230,1.502538959509082339
0.447000000000000230,1.501066234945806599
0.448000000000000231,1.499221412539127218
0.449000000000000232,1.497006928555203675
0.450000000000000233,1.494425549345378856
0.451000000000000234,1.491480358536108941
0.452000000000000235,1.488174744276418604
0.453000000000000236,1.484512386558710206
0.454000000000000237,1.480497244627781317
0.455000000000000238,1.476133544492223892
0.456000000000000238,1.471425766551389014
0.457000000000000239,1.466378633350425842
0.458000000000000240,1.460997097475027928
0.459000000000000241,1.455286329596807038
0.460000000000000242,1.449251706679435925
0.461000000000000243,1.442898800354998290
0.462000000000000244,1.436233365479246071
0.463000000000000245,1.429261328873855597
0.464000000000000246,1.421988778262982978
0.465000000000000246,1.414421951410929079
0.466000000000000247,1.406567225466986093
0.467000000000000248,1.398431106523009726
0.468000000000000249,1.390020219388653056
0.469000000000000250,1.381341297588654315
0.470000000000000251,1.372401173586046852
0.471000000000000252,1.363206769234645011
0.472000000000000253,1.353765086463621703
0.473000000000000254,1.344083198196635909
0.474000000000000254,1.334168239507384612
0.475000000000000255,1.324027399013130823
0.476000000000000256,1.313667910507284375
0.477000000000000257,1.303097044831763140
0.478000000000000258,1.292322101989451744
0.479000000000000259,1.281350403496772650
0.480000000000000260,1.270189284975996369
0.481000000000000261,1.258846088986641965
0.482000000000000262,1.247328158094994199
0.483000000000000262,1.235642828180496311
0.484000000000000263,1.223797421977510957
0.485000000000000264,1.211799242850675862
0.486000000000000265,1.199655568801857974
0.487000000000000266,1.187373646706506358
0.488000000000000267,1.174960686776963303
0.489000000000000268,1.162423857250124426
0.490000000000000269,1.149770279296671749
0.491000000000000270,1.137007022148907920
0.492000000000000270,1.124141098444104481
0.493000000000000271,1.111179459780095025
0.494000000000000272,1.098128992479788124
0.495000000000000273,1.084996513561042653
0.496000000000000274,1.071788766908386092
0.497000000000000275,1.058512419642849478
0.498000000000000276,1.045174058686136442
0.499000000000000277,1.031780187515329406
0.500000000000000222,1.018337223104160527
0.501000000000000334,1.004851493046930333
0.502000000000000224,0.991329232861033249
0.503000000000000336,0.977776583464017301
0.504000000000000226,0.964199588821142983
0.505000000000000338,0.950604193759244098
0.506000000000000227,0.936996241942850694
0.507000000000000339,0.923381474008330039
0.508000000000000229,0.909765525851999990
0.509000000000000341,0.896153927067953715
0.510000000000000231,0.882552099531552114
0.511000000000000343,0.868965356124358990
0.512000000000000233,0.855398899596494511
0.513000000000000345,0.841857821562208342
0.514000000000000234,0.828347101624691051
0.515000000000000346,0.814871606626007994
0.516000000000000236,0.801436090018220026
0.517000000000000348,0.788045191351619989
0.518000000000000238,0.774703435876267443
0.519000000000000350,0.761415234252806772
0.520000000000000240,0.748184882368857052
0.521000000000000352,0.735016561257032963
0.522000000000000242,0.721914337111005944
0.523000000000000353,0.708882161395751220
0.524000000000000243,0.695923871048511278
0.525000000000000355,0.683043188766734644
0.526000000000000245,0.670243723379617351
0.527000000000000357,0.657528970299653404
0.528000000000000247,0.644902312050915416
0.529000000000000359,0.632367018870631514
0.530000000000000249,0.619926249380858385
0.531000000000000361,0.607583051326987311
0.532000000000000250,0.595340362380004540
0.533000000000000362,0.583201010999343294
0.534000000000000252,0.571167717353446625
0.535000000000000364,0.559243094294932575
0.536000000000000254,0.547429648387665169
0.537000000000000366,0.535729780982777570
0.538000000000000256,0.524145789341011747
0.539000000000000368,0.512679867798629507
0.540000000000000258,0.501334108974361925
0.541000000000000369,0.490110505014774822
0.542000000000000259,0.479010948875687625
0.543000000000000371,0.468037235637134341
0.544000000000000261,0.457191063849622825
0.545000000000000373,0.446474036909346339
0.546000000000000263,0.435887664460219981
0.547000000000000375,0.425433363820516219
0.548000000000000265,0.415112461432112223
0.549000000000000377,0.404926194330254952
0.550000000000000266,0.394875711631968551
0.551000000000000378,0.384962076041149459
0.552000000000000268,0.375186265368587624
0.553000000000000380,0.365549174065084304
0.554000000000000270,0.356051614766020319
0.555000000000000382,0.346694319845678389
0.556000000000000272,0.337477942979759971
0.557000000000000384,0.328403060714555717
0.558000000000000274,0.319470174041280974
0.559000000000000385,0.310679709974171214
0.560000000000000275,0.302032023130959615
0.561000000000000387,0.293527397314409799
0.562000000000000277,0.285166047093679265
0.563000000000000389,0.276948119384232139
0.564000000000000279,0.268873695025219128
0.565000000000000391,0.260942790353129617
0.566000000000000281,0.253155358770722372
0.567000000000000393,0.245511292310144652
0.568000000000000282,0.238010423189326581
0.569000000000000394,0.230652525360660110
0.570000000000000284,0.223437316051148860
0.571000000000000396,0.216364457293089479
0.572000000000000286,0.209433557444567986
0.573000000000000398,0.202644172698954600
0.574000000000000288,0.195995808582701436
0.575000000000000400,0.189487921440716967
0.576000000000000290,0.183119919908736384
0.577000000000000401,0.176891166371986264
0.578000000000000291,0.170800978409657106
0.579000000000000403,0.164848630224558729
0.580000000000000293,0.159033354057519200
0.581000000000000405,0.153354341585981435
0.582000000000000295,0.147810745306419633
0.583000000000000407,0.142401679900086175
0.584000000000000297,0.137126223581784112
0.585000000000000409,0.131983419431213667
0.586000000000000298,0.126972276706658643
0.587000000000000410,0.122091772140615173
0.588000000000000300,0.117340851217171235
0.589000000000000412,0.112718429430807371
0.590000000000000302,0.108223393526455519
0.591000000000000414,0.103854602720546224
0.592000000000000304,0.099610889902919997
0.593000000000000416,0.095491062819404240
0.594000000000000306,0.091493905234925232
0.595000000000000417,0.087618178077028666
0.596000000000000307,0.083862620559733494
0.597000000000000419,0.080225951287594979
0.598000000000000309,0.076706869339941391
0.599000000000000421,0.073304055335243506
0.600000000000000311,0.070016172475553445
0.601000000000000423,0.066841867571025768
0.602000000000000313,0.063779772044524202
0.603000000000000425,0.060828502916299133
0.604000000000000314,0.057986663768800330
0.605000000000000426,0.055252845691642384
0.606000000000000316,0.052625628206795519
0.607000000000000428,0.050103580174057062
0.608000000000000318,0.047685260676884410
0.609000000000000430,0.045369219888689596
0.610000000000000320,0.043153999919687970
0.611000000000000432,0.041038135644408988
0.612000000000000322,0.039020155510004262
0.613000000000000433,0.037098582325464771
0.614000000000000323,0.035271934031897344
0.615000000000000435,0.033538724453997151
0.616000000000000325,0.031897464032893341
0.617000000000000437,0.030346660540489699
0.618000000000000327,0.028884819775505367
0.619000000000000439,0.027510446241375396
0.620000000000000329,0.026222043806186458
0.621000000000000441,0.025018116344840156
0.622000000000000330,0.023897168363643306
0.623000000000000442,0.022857705607496191
0.624000000000000332,0.021898235649919284
0.625000000000000444,0.021017268466077987
0.626000000000000334,0.020213316989053199
0.627000000000000446,0.019484897649546074
0.628000000000000336,0.018830530899246956
0.629000000000000448,0.018248741718071025
0.630000000000000338,0.017738060105508845
0.631000000000000449,0.017297021556278713
0.632000000000000339,0.016924167520546617
0.633000000000000451,0.016618045848910322
0.634000000000000341,0.016377211222397547
0.635000000000000453,0.016200225567688631
0.636000000000000343,0.016085658457827702
0.637000000000000455,0.016032087498616863
0.638000000000000345,0.016038098700958105
0.639000000000000457,0.016102286839366885
0.640000000000000346,0.016223255796883586
0.641000000000000458,0.016399618896636270
0.642000000000000348,0.016629999220269219
0.643000000000000460,0.016913029913492084
0.644000000000000350,0.017247354478969947
0.645000000000000462,0.017631627056795950
0.646000000000000352,0.018064512692777156
0.647000000000000464,0.018544687594769693
0.648000000000000353,0.019070839377285355
0.649000000000000465,0.019641667294622377
0.650000000000000355,0.020255882462719522
0.651000000000000467,0.020912208069998273
0.652000000000000357,0.021609379577377186
0.653000000000000469,0.022346144907737221
0.654000000000000359,0.023121264625004568
0.655000000000000471,0.023933512103127486
0.656000000000000361,0.024781673685123407
0.657000000000000473,0.025664548832454115
0.658000000000000362,0.026580950264910398
0.659000000000000474,0.027529704091252750
0.660000000000000364,0.028509649930798409
0.661000000000000476,0.029519641026181188
0.662000000000000366,0.030558544347482029
0.663000000000000478,0.031625240687949682
0.664000000000000368,0.032718624751502515
0.665000000000000480,0.033837605232220853
0.666000000000000369,0.034981104886035341
0.667000000000000481,0.036148060594792801
0.668000000000000371,0.037337423422915260
0.669000000000000483,0.038548158666831658
0.670000000000000373,0.039779245897365000
0.671000000000000485,0.041029678995295568
0.672000000000000375,0.042298466180236118
