# ZnO1m210NB_PHESCA-AC
# h[nm],U(h)[kJ/mol]
0.149999999999999994,133.315673183581594685
0.150999999999999995,131.940908257611823728
0.151999999999999996,130.872376088851069653
0.152999999999999997,129.841944244777010908
0.153999999999999998,128.758490762361475390
0.154999999999999999,127.613116115343615320
0.156000000000000000,126.427692318186046805
0.157000000000000001,125.229209526314889445
0.158000000000000002,124.038838645174763542
0.159000000000000002,122.868877252973760505
0.160000000000000003,121.723499425975617783
0.161000000000000004,120.600981027232791121
0.162000000000000005,119.496159138196503591
0.163000000000000006,118.402538029846510881
0.164000000000000007,117.313829853573068362
0.165000000000000008,116.224919812701912747
0.166000000000000009,115.132341243696288302
0.167000000000000010,114.034380010416754203
0.168000000000000010,112.930927928479519551
0.169000000000000011,111.823188871910204512
0.170000000000000012,110.713319018791253256
0.171000000000000013,109.604060098521927102
0.172000000000000014,108.498404415114691801
0.173000000000000015,107.399314031870858344
0.174000000000000016,106.309504020821151471
0.175000000000000017,105.231290790254590206
0.176000000000000018,104.166500652550368500
0.177000000000000018,103.116430361065297916
0.178000000000000019,102.081849733532266100
0.179000000000000020,101.063036167466435700
0.180000000000000021,100.059831408198562031
0.181000000000000022,99.071712011808912735
0.182000000000000023,98.097866296760273030
0.183000000000000024,97.137272014715250634
0.184000000000000025,96.188770367036482867
0.185000000000000026,95.251133269264514070
0.186000000000000026,94.323121876979882927
0.187000000000000027,93.403535313975083909
0.188000000000000028,92.491249286504341853
0.189000000000000029,91.585244836160313753
0.190000000000000030,90.684627896311354789
0.191000000000000031,89.788640594284046870
0.192000000000000032,88.896665405998149367
0.193000000000000033,88.008223343432661068
0.194000000000000034,87.122967358414001637
0.195000000000000034,86.240672096848200567
0.196000000000000035,85.361221051268643123
0.197000000000000036,84.484592049490160548
0.198000000000000037,83.610841893863380392
0.199000000000000038,82.740090837485084307
0.200000000000000039,81.872507457110117457
0.201000000000000040,81.008294362093636209
0.202000000000000041,80.147675067666639848
0.203000000000000042,79.290882261237754847
0.204000000000000042,78.438147603280498288
0.205000000000000043,77.589693130035385593
0.206000000000000044,76.745724263497123729
0.207000000000000045,75.906424384330961175
0.208000000000000046,75.071950884560251893
0.209000000000000047,74.242432588007474692
0.210000000000000048,73.417968406383323554
0.211000000000000049,72.598627086408228593
0.212000000000000050,71.784447897250274195
0.213000000000000050,70.975442106753831695
0.214000000000000051,70.171595098387697931
0.215000000000000052,69.372868987618417691
0.216000000000000053,68.579205605681210045
0.217000000000000054,67.790529729748598697
0.218000000000000055,67.006752450657415920
0.219000000000000056,66.227774582124396829
0.220000000000000057,65.453490028316309690
0.221000000000000058,64.683789039402057597
0.222000000000000058,63.918561297011237343
0.223000000000000059,63.157698783159240463
0.224000000000000060,62.401098397012432883
0.225000000000000061,61.648664293760191413
0.226000000000000062,60.900309928771889645
0.227000000000000063,60.155959798120647974
0.228000000000000064,59.415550873454115788
0.229000000000000065,58.679033735108909298
0.230000000000000066,57.946373412343930909
0.231000000000000066,57.217549943659719247
0.232000000000000067,56.492558673442623274
0.233000000000000068,55.771410303690245769
0.234000000000000069,55.054130721414061611
0.235000000000000070,54.340760623544326791
0.236000000000000071,53.631354961860722597
0.237000000000000072,52.925982230702345532
0.238000000000000073,52.224723620045075734
0.239000000000000073,51.527672056035363823
0.240000000000000074,50.834931150290621815
0.241000000000000075,50.146614078280727256
0.242000000000000076,49.462842405930686596
0.243000000000000077,48.783744882284842959
0.244000000000000078,48.109456214679475750
0.245000000000000079,47.440115841422887399
0.246000000000000080,46.775866715505770799
0.247000000000000081,46.116854111388271065
0.248000000000000081,45.463224465452455547
0.249000000000000082,44.815124259290563202
0.250000000000000111,44.172698953631922336
0.251000000000000112,43.536091979409022201
0.252000000000000113,42.905443791231952844
0.253000000000000114,42.280890987390364444
0.254000000000000115,41.662565499433405591
0.255000000000000115,41.050593853396755151
0.256000000000000116,40.445096503850848535
0.257000000000000117,39.846187241136512114
0.258000000000000118,39.253972671431213826
0.259000000000000119,38.668551768649543021
0.260000000000000120,38.090015496621155933
0.261000000000000121,37.518446499505884617
0.262000000000000122,36.953918857993933500
0.263000000000000123,36.396497908495490492
0.264000000000000123,35.846240122242903681
0.265000000000000124,35.303193041006849739
0.266000000000000125,34.767395265959073924
0.267000000000000126,34.238876496095095092
0.268000000000000127,33.717657612554418733
0.269000000000000128,33.203750805141410751
0.270000000000000129,32.697159737349430486
0.271000000000000130,32.197879746222582753
0.272000000000000131,31.705898073448508967
0.273000000000000131,31.221194124157836569
0.274000000000000132,30.743739750009201117
0.275000000000000133,30.273499553258364614
0.276000000000000134,29.810431208643052514
0.277000000000000135,29.354485800061677736
0.278000000000000136,28.905608169176041145
0.279000000000000137,28.463737273229476443
0.280000000000000138,28.028806549536074755
0.281000000000000139,27.600744284263651451
0.282000000000000139,27.179473983301285500
0.283000000000000140,26.764914743169565980
0.284000000000000141,26.356981620097752028
0.285000000000000142,25.955585995554297796
0.286000000000000143,25.560635936676781910
0.287000000000000144,25.172036550201070781
0.288000000000000145,24.789690328639220951
0.289000000000000146,24.413497487598476710
0.290000000000000147,24.043356293270800705
0.291000000000000147,23.679163379253306942
0.292000000000000148,23.320814051982853954
0.293000000000000149,22.968202584185707593
0.294000000000000150,22.621222495852045142
0.295000000000000151,22.279766822348403110
0.296000000000000152,21.943728369376188425
0.297000000000000153,21.612999954573680839
0.298000000000000154,21.287474635640240450
0.299000000000000155,20.967045924937217194
0.300000000000000155,20.651607990588335184
0.301000000000000156,20.341055844165484956
0.302000000000000157,20.035285515101627141
0.303000000000000158,19.734194212024146253
0.304000000000000159,19.437680471246601144
0.305000000000000160,19.145644292697316047
0.306000000000000161,18.857987263598307237
0.307000000000000162,18.574612670238416001
0.308000000000000163,18.295425598210659501
0.309000000000000163,18.020333021506001359
0.310000000000000164,17.749243880873553536
0.311000000000000165,17.482069151872025259
0.312000000000000166,17.218721903048535893
0.313000000000000167,16.959117344688984019
0.314000000000000168,16.703172868589820865
0.315000000000000169,16.450808079303637754
0.316000000000000170,16.201944817311883185
0.317000000000000171,15.956507174576007202
0.318000000000000171,15.714421502915323359
0.319000000000000172,15.475616415654073421
0.320000000000000173,15.240022782973952076
0.321000000000000174,15.007573721399989353
0.322000000000000175,14.778204577838295108
0.323000000000000176,14.551852908574208101
0.324000000000000177,14.328458453627703761
0.325000000000000178,14.107963106851382662
0.326000000000000179,13.890310882143433346
0.327000000000000179,13.675447876135095271
0.328000000000000180,13.463322227698421685
0.329000000000000181,13.253884074606599341
0.330000000000000182,13.047085507664707649
0.331000000000000183,12.842880522614972705
0.332000000000000184,12.641224970106023306
0.333000000000000185,12.442076504001885695
0.334000000000000186,12.245394528291761560
0.335000000000000187,12.051140142848121073
0.336000000000000187,11.859276088266454963
0.337000000000000188,11.669766690006765586
0.338000000000000189,11.482577802043092419
0.339000000000000190,11.297676750214675323
0.340000000000000191,11.115032275459430622
0.341000000000000192,10.934614477098126173
0.342000000000000193,10.756394756325425632
0.343000000000000194,10.580345760052480841
0.344000000000000195,10.406441325234562001
0.345000000000000195,10.234656423806033132
0.346000000000000196,10.064967108335000745
0.347000000000000197,9.897350458499543535
0.348000000000000198,9.731784528478083729
0.349000000000000199,9.568248295337232534
0.350000000000000200,9.406721608491602993
0.351000000000000201,9.247185140301898088
0.352000000000000202,9.089620337869593669
0.353000000000000203,8.934009376079000475
0.354000000000000203,8.780335111930423153
0.355000000000000204,8.628581040201536823
0.356000000000000205,8.478731250467605562
0.357000000000000206,8.330770385505205766
0.358000000000000207,8.184683601098866390
0.359000000000000208,8.040456527264456810
0.360000000000000209,7.898075230898345289
0.361000000000000210,7.757526179857121562
0.362000000000000210,7.618796208467981224
0.363000000000000211,7.481872484466379092
0.364000000000000212,7.346742477353723544
0.365000000000000213,7.213393928164609115
0.366000000000000214,7.081814820630103036
0.367000000000000215,6.951993353720778757
0.368000000000000216,6.823917915550522295
0.369000000000000217,6.697577058620200141
0.370000000000000218,6.572959476377720378
0.371000000000000218,6.450053981069691744
0.372000000000000219,6.328849482857729747
0.373000000000000220,6.209334970171418888
0.374000000000000221,6.091499491268399069
0.375000000000000222,5.975332136971209351
0.376000000000000223,5.860822024549139364
0.377000000000000224,5.747958282713136136
0.378000000000000225,5.636730037690683481
0.379000000000000226,5.527126400347383672
0.380000000000000226,5.419136454321320073
0.381000000000000227,5.312749245136300758
0.382000000000000228,5.207953770259694082
0.383000000000000229,5.104738970070613391
0.384000000000000230,5.003093719704255093
0.385000000000000231,4.903006821738218335
0.386000000000000232,4.804466999687035944
0.387000000000000233,4.707462892271084165
0.388000000000000234,4.611983048426798959
0.389000000000000234,4.518015923025155089
0.390000000000000235,4.425549873266014345
0.391000000000000236,4.334573155716428872
0.392000000000000237,4.245073923961474094
0.393000000000000238,4.157040226836810959
0.394000000000000239,4.070460007212824749
0.395000000000000240,3.985321101300759672
0.396000000000000241,3.901611238452018515
0.397000000000000242,3.819318041422493870
0.398000000000000242,3.738429027074421818
0.399000000000000243,3.658931607489176230
0.400000000000000244,3.580813091464926323
0.401000000000000245,3.504060686374016687
0.402000000000000246,3.428661500355751457
0.403000000000000247,3.354602544820691978
0.404000000000000248,3.281870737243832714
0.405000000000000249,3.210452904224374127
0.406000000000000250,3.140335784790894813
0.407000000000000250,3.071506033931242996
0.408000000000000251,3.003950226327424478
0.409000000000000252,2.937654860276448510
0.410000000000000253,2.872606361778778705
0.411000000000000254,2.808791088776925626
0.412000000000000255,2.746195335527339410
0.413000000000000256,2.684805337089452681
0.414000000000000257,2.624607273916601091
0.415000000000000258,2.565587276533998207
0.416000000000000258,2.507731430289904750
0.417000000000000259,2.451025780166496304
0.418000000000000260,2.395456335637910605
0.419000000000000261,2.341009075563241559
0.420000000000000262,2.287669953103241394
0.421000000000000263,2.235424900649740643
0.422000000000000264,2.184259834757695362
0.423000000000000265,2.134160661070128473
0.424000000000000266,2.085113279226836536
0.425000000000000266,2.037103587748436251
0.426000000000000267,1.990117488887534147
0.427000000000000268,1.944140893439647799
0.428000000000000269,1.899159725506774477
0.429000000000000270,1.855159927207000070
0.430000000000000271,1.812127463324171073
0.431000000000000272,1.770048325891800944
0.432000000000000273,1.728908538706124487
0.433000000000000274,1.688694161763364843
0.434000000000000274,1.649391295616822406
0.435000000000000275,1.610986085649727784
0.436000000000000276,1.573464726260143776
0.437000000000000277,1.536813464954580155
0.438000000000000278,1.501018606347314543
0.439000000000000279,1.466066516062704661
0.440000000000000280,1.431943624538100313
0.441000000000000281,1.398636430725303637
0.442000000000000282,1.366131505688648939
0.443000000000000282,1.334415496098283915
0.444000000000000283,1.303475127617197860
0.445000000000000284,1.273297208181053630
0.446000000000000285,1.243868631169918748
0.447000000000000286,1.215176378471244378
0.448000000000000287,1.187207523433765122
0.449000000000000288,1.159949233711966121
0.450000000000000289,1.133388774001192756
0.451000000000000290,1.107513508663449553
0.452000000000000290,1.082310904244166316
0.453000000000000291,1.057768531880447060
0.454000000000000292,1.033874069601308676
0.455000000000000293,1.010615304520640079
0.456000000000000294,0.987980134923771347
0.457000000000000295,0.965956572248503398
0.458000000000000296,0.944532742961807004
0.459000000000000297,0.923696890333202014
0.460000000000000298,0.903437376106209555
0.461000000000000298,0.883742682069120988
0.462000000000000299,0.864601411526559560
0.463000000000000300,0.846002290673349755
0.464000000000000301,0.827934169872168724
0.465000000000000302,0.810386024836704855
0.466000000000000303,0.793346957721963841
0.467000000000000304,0.776806198123370040
0.468000000000000305,0.760753103986593460
0.469000000000000306,0.745177162429775053
0.470000000000000306,0.730067990480009699
0.471000000000000307,0.715415335726047541
0.472000000000000308,0.701209076889020344
0.473000000000000309,0.687439224313117769
0.474000000000000310,0.674095920378209978
0.475000000000000311,0.661169439836296280
0.476000000000000312,0.648650190073791322
0.477000000000000313,0.636528711301544980
0.478000000000000314,0.624795676674664402
0.479000000000000314,0.613441892343996487
0.480000000000000315,0.602458297441328838
0.481000000000000316,0.591835964000196446
0.482000000000000317,0.581566096814320366
0.483000000000000318,0.571640033235550460
0.484000000000000319,0.562049242913293279
0.485000000000000320,0.552785327477345101
0.486000000000000321,0.543840020165990645
0.487000000000000322,0.535205185401279371
0.488000000000000322,0.526872818313404045
0.489000000000000323,0.518835044215887331
0.490000000000000324,0.511084118033541146
0.491000000000000325,0.503612423684930977
0.492000000000000326,0.496412473421145417
0.493000000000000327,0.489476907122581850
0.494000000000000328,0.482798491555547549
0.495000000000000329,0.476370119590289687
0.496000000000000330,0.470184809382227953
0.497000000000000330,0.464235703517873410
0.498000000000000331,0.458516068127275911
0.499000000000000332,0.453019291964342208
0.500000000000000333,0.447738885456710811
0.501000000000000334,0.442668479726746444
0.502000000000000335,0.437801825584989146
0.503000000000000336,0.433132792497683827
0.504000000000000337,0.428655367529688136
0.505000000000000338,0.424363654264256873
0.506000000000000338,0.420251871700985824
0.507000000000000339,0.416314353133301895
0.508000000000000340,0.412545545006804404
0.509000000000000341,0.408940005759638570
0.510000000000000342,0.405492404646289384
0.511000000000000343,0.402197520545836185
0.512000000000000344,0.399050240755991381
0.513000000000000345,0.396045559773965272
0.514000000000000346,0.393178578065274731
0.515000000000000346,0.390444500821657769
0.516000000000000347,0.387838636709049223
0.517000000000000348,0.385356396606681251
0.518000000000000349,0.382993292338304925
0.519000000000000350,0.380744935396442941
0.520000000000000351,0.378607035660714242
0.521000000000000352,0.376575400110947200
0.522000000000000353,0.374645931536167875
0.523000000000000353,0.372814627240134644
0.524000000000000354,0.371077577744325260
0.525000000000000355,0.369430965489128904
0.526000000000000356,0.367871063534045972
0.527000000000000357,0.366394234257549023
0.528000000000000358,0.364996928057427505
0.529000000000000359,0.363675682052155669
0.530000000000000360,0.362427118784111546
0.531000000000000361,0.361247944925112030
0.532000000000000361,0.360134949984993291
0.533000000000000362,0.359085005023746795
0.534000000000000363,0.358095061367841860
0.535000000000000364,0.357162149331168355
0.536000000000000365,0.356283376941247787
0.537000000000000366,0.355455928671076504
0.538000000000000367,0.354677064177196300
0.539000000000000368,0.353944117044307061
0.540000000000000369,0.353254493537004499
0.541000000000000369,0.352605671358887651
0.542000000000000370,0.351995198419617683
0.543000000000000371,0.351420691610109304
0.544000000000000372,0.350879835586345334
0.545000000000000373,0.350370381562080335
0.546000000000000374,0.349890146110787836
0.547000000000000375,0.349437009977127899
0.548000000000000376,0.349008916898226940
0.549000000000000377,0.348603872435050977
0.550000000000000377,0.348219942814080419
0.551000000000000378,0.347855253779611018
0.552000000000000379,0.347507989456779520
0.553000000000000380,0.347176391225635872
0.554000000000000381,0.346858756606407748
0.555000000000000382,0.346553438156089633
0.556000000000000383,0.346258842376641340
0.557000000000000384,0.345973428634794966
0.558000000000000385,0.345695708093785192
0.559000000000000385,0.345424242656968916
0.560000000000000386,0.345157643923549085
0.561000000000000387,0.344894572156489054
0.562000000000000388,0.344633735262718843
0.563000000000000389,0.344373887785662969
0.564000000000000390,0.344113829910251634
0.565000000000000391,0.343852406480413042
0.566000000000000392,0.343588506029146201
0.567000000000000393,0.343321059821151464
0.568000000000000393,0.343049040908163683
0.569000000000000394,0.342771463196918869
0.570000000000000395,0.342487380529809982
0.571000000000000396,0.342195885778281361
0.572000000000000397,0.341896109948876759
0.573000000000000398,0.341587221302051769
0.574000000000000399,0.341268424483632316
0.575000000000000400,0.340938959668994124
0.576000000000000401,0.340598101719893687
0.577000000000000401,0.340245159353888993
0.578000000000000402,0.339879474326407860
0.579000000000000403,0.339500420625365784
0.580000000000000404,0.339107403678238495
0.581000000000000405,0.338699859571678363
0.582000000000000406,0.338277254283451900
0.583000000000000407,0.337839082926780720
0.584000000000000408,0.337384869006933097
0.585000000000000409,0.336914163690018309
0.586000000000000409,0.336426545083947703
0.587000000000000410,0.335921617531405814
0.588000000000000411,0.335399010914862683
0.589000000000000412,0.334858379973405618
0.590000000000000413,0.334299403631443115
0.591000000000000414,0.333721784339095939
0.592000000000000415,0.333125247424190307
0.593000000000000416,0.332509540455821428
0.594000000000000417,0.331874432619326420
0.595000000000000417,0.331219714102539586
0.596000000000000418,0.330545195493361921
0.597000000000000419,0.329850707188346859
0.598000000000000420,0.329136098812382871
0.599000000000000421,0.328401238649208227
0.600000000000000422,0.327646013082753040
0.601000000000000423,0.326870326049160720
0.602000000000000424,0.326074098499342102
0.603000000000000425,0.325257267871995437
0.604000000000000425,0.324419787576964436
0.605000000000000426,0.323561626488804543
0.606000000000000427,0.322682768450405333
0.607000000000000428,0.321783211786684453
0.608000000000000429,0.320862968827996531
0.609000000000000430,0.319922065443426717
0.610000000000000431,0.318960540583570595
0.611000000000000432,0.317978445832877932
0.612000000000000433,0.316975844971353116
0.613000000000000433,0.315952813545478051
0.614000000000000434,0.314909438448271961
0.615000000000000435,0.313845817508358160
0.616000000000000436,0.312762059087925315
0.617000000000000437,0.311658281689375316
0.618000000000000438,0.310534613570675078
