# ZnO1m210NB_CS-582-AC
# h[nm],U(h)[kJ/mol]
0.149999999999999994,134.037034513058102903
0.150999999999999995,131.965152811377180342
0.151999999999999996,130.287900857136321520
0.152999999999999997,128.681713448660559607
0.153999999999999998,127.036143053671409575
0.154999999999999999,125.337999340998209163
0.156000000000000000,123.609580498864488618
0.157000000000000001,121.878607009054945820
0.158000000000000002,120.165898301413150762
0.159000000000000002,118.482315734654505945
0.160000000000000003,116.830003630994070818
0.161000000000000004,115.205159174052624849
0.162000000000000005,113.600904248504889438
0.163000000000000006,112.009622634655713114
0.164000000000000007,110.424567766851737360
0.165000000000000008,108.840773569873448423
0.166000000000000009,107.255400738927022530
0.167000000000000010,105.667678691072268293
0.168000000000000010,104.078593787859816189
0.169000000000000011,102.490448077802540183
0.170000000000000012,100.906381659678146434
0.171000000000000013,99.329922182974513589
0.172000000000000014,97.764599935883524040
0.173000000000000015,96.213647384369522797
0.174000000000000016,94.679787781082183074
0.175000000000000017,93.165107884747285993
0.176000000000000018,91.671004039934501861
0.177000000000000018,90.198187971190463941
0.178000000000000019,88.746737837404808147
0.179000000000000020,87.316180693306279181
0.180000000000000021,85.905593974895381848
0.181000000000000022,84.513715554420159037
0.182000000000000023,83.139054001735161137
0.183000000000000024,81.779992739768971433
0.184000000000000025,80.434883663585253544
0.185000000000000026,79.102127432557367115
0.186000000000000026,77.780239011841047159
0.187000000000000027,76.467898129481611136
0.188000000000000028,75.163985144677369021
0.189000000000000029,73.867603417685529621
0.190000000000000030,72.578089665042014644
0.191000000000000031,71.295014009383891107
0.192000000000000032,70.018171524576317211
0.193000000000000033,68.747567064878040810
0.194000000000000034,67.483395078890254126
0.195000000000000034,66.226015968483750385
0.196000000000000035,64.975930379299356332
0.197000000000000036,63.733752618504624365
0.198000000000000037,62.500184199560898435
0.199000000000000038,61.275988322059177449
0.200000000000000039,60.061965913875646095
0.201000000000000040,58.858933697443305277
0.202000000000000041,57.667704594546329133
0.203000000000000042,56.489070656020373917
0.204000000000000042,55.323788594309270650
0.205000000000000043,54.172567907424443945
0.206000000000000044,53.036061511332988516
0.207000000000000045,51.914858742666147862
0.208000000000000046,50.809480553158252292
0.209000000000000047,49.720376689574116824
0.210000000000000048,48.647924636225610584
0.211000000000000049,47.592430089740688004
0.212000000000000050,46.554128735860061283
0.213000000000000050,45.533189104169601080
0.214000000000000051,44.529716287446667877
0.215000000000000052,43.543756326497280895
0.216000000000000053,42.575301077930362226
0.217000000000000054,41.624293400363214346
0.218000000000000055,40.690632513330527331
0.219000000000000056,39.774179402068725153
0.220000000000000057,38.874762159877214174
0.221000000000000058,37.992181177548800974
0.222000000000000058,37.126214106121267378
0.223000000000000059,36.276620534742292534
0.224000000000000060,35.443146339624021834
0.225000000000000061,34.625527672825640479
0.226000000000000062,33.823494570916338375
0.227000000000000063,33.036774173453338221
0.228000000000000064,32.265093549706662657
0.229000000000000065,31.508182139236005526
0.230000000000000066,30.765773817867028583
0.231000000000000066,30.037608605410110130
0.232000000000000067,29.323434035223396421
0.233000000000000068,28.623006208541561080
0.234000000000000069,27.936090558479765633
0.235000000000000070,27.262462349879360346
0.236000000000000071,26.601906941786342742
0.237000000000000072,25.954219839437133288
0.238000000000000073,25.319206562256162840
0.239000000000000073,24.696682353627213757
0.240000000000000074,24.086471757152850159
0.241000000000000075,23.488408082837096913
0.242000000000000076,22.902332785166674256
0.243000000000000077,22.328094773481634405
0.244000000000000078,21.765549673360755634
0.245000000000000079,21.214559056038687856
0.246000000000000080,20.674989651155662784
0.247000000000000081,20.146712556440412811
0.248000000000000081,19.629602456270479394
0.249000000000000082,19.123536859455640524
0.250000000000000111,18.628395365066143796
0.251000000000000112,18.144058963688650010
0.252000000000000113,17.670409380146136158
0.253000000000000114,17.207328462471316755
0.254000000000000115,16.754697620775075961
0.255000000000000115,16.312397318608248042
0.256000000000000116,15.880306618471234259
0.257000000000000117,15.458302782283112720
0.258000000000000118,15.046260926875726582
0.259000000000000119,14.644053733923778182
0.260000000000000120,14.251551213156528064
0.261000000000000121,13.868620517214310439
0.262000000000000122,13.495125806107646227
0.263000000000000123,13.130928158904490388
0.264000000000000123,12.775885530004110535
0.265000000000000124,12.429852747150711423
0.266000000000000125,12.092681548188796370
0.267000000000000126,11.764220653461407551
0.268000000000000127,11.444315870694689252
0.269000000000000128,11.132810229195111873
0.270000000000000129,10.829544140201653235
0.271000000000000130,10.534355580281419051
0.272000000000000131,10.247080294729288497
0.273000000000000131,9.967552018025163107
0.274000000000000132,9.695602708513971990
0.275000000000000133,9.431062794599302634
0.276000000000000134,9.173761429878888762
0.277000000000000135,8.923526754796917260
0.278000000000000136,8.680186162540039163
0.279000000000000137,8.443566567061042250
0.280000000000000138,8.213494671273050329
0.281000000000000139,7.989797233615822059
0.282000000000000139,7.772301331354552367
0.283000000000000140,7.560834619126671541
0.284000000000000141,7.355225581404809532
0.285000000000000142,7.155303777691740308
0.286000000000000143,6.960900079405575980
0.287000000000000144,6.771846897550661382
0.288000000000000145,6.587978400399411960
0.289000000000000146,6.409130720534887082
0.290000000000000147,6.235142150719843457
0.291000000000000147,6.065853328168405945
0.292000000000000148,5.901107406898237429
0.293000000000000149,5.740750217936818167
0.294000000000000150,5.584630417243099387
0.295000000000000151,5.432599621286724911
0.296000000000000152,5.284512530301071820
0.297000000000000153,5.140227039293455036
0.298000000000000154,4.999604336956489092
0.299000000000000155,4.862508992679049236
0.300000000000000155,4.728809031903428384
0.301000000000000156,4.598376000118252982
0.302000000000000157,4.471085015813381247
0.303000000000000158,4.346814812755508406
0.304000000000000159,4.225447771970009647
0.305000000000000160,4.106869943837500259
0.306000000000000161,3.990971060731803188
0.307000000000000162,3.877644540640571513
0.308000000000000163,3.766787482220778749
0.309000000000000163,3.658300651748716437
0.310000000000000164,3.552088462428640181
0.311000000000000165,3.448058946525923485
0.312000000000000166,3.346123720789621281
0.313000000000000167,3.246197945626362547
0.314000000000000168,3.148200278482170766
0.315000000000000169,3.052052821881884093
0.316000000000000170,2.957681066567110939
0.317000000000000171,2.865013830163781972
0.318000000000000171,2.773983191798985892
0.319000000000000172,2.684524423074432953
0.320000000000000173,2.596575915790765521
0.321000000000000174,2.510079106803015936
0.322000000000000175,2.424978400372818754
0.323000000000000176,2.341221088368193204
0.324000000000000177,2.258757268646161442
0.325000000000000178,2.177539761938084517
0.326000000000000179,2.097524027541615599
0.327000000000000179,2.018668078107642927
0.328000000000000180,1.940932393794710054
0.329000000000000181,1.864279836047681771
0.330000000000000182,1.788675561242214940
0.331000000000000183,1.714086934420939290
0.332000000000000184,1.640483443332669822
0.333000000000000185,1.567836612971083232
0.334000000000000186,1.496119920795007996
0.335000000000000187,1.425308712798692978
0.336000000000000187,1.355380120586702208
0.337000000000000188,1.286312979595401806
0.338000000000000189,1.218087748589971042
0.339000000000000190,1.150686430554051842
0.340000000000000191,1.084092495077545681
0.341000000000000192,1.018290802336667245
0.342000000000000193,0.953267528750004423
0.343000000000000194,0.889010094383932192
0.344000000000000195,0.825507092171450241
0.345000000000000195,0.762748218998820726
0.346000000000000196,0.700724208706293039
0.347000000000000197,0.639426767040581323
0.348000000000000198,0.578848508589295485
0.349000000000000199,0.518982895720196291
0.350000000000000200,0.459824179541331479
0.351000000000000201,0.401367342891817303
0.352000000000000202,0.343608045367099324
0.353000000000000203,0.286542570376948691
0.354000000000000203,0.230167774229418531
0.355000000000000204,0.174481037229309383
0.356000000000000205,0.119480216775229436
0.357000000000000206,0.065163602435345649
0.358000000000000207,0.011529872978532829
0.359000000000000208,-0.041421944666022711
0.360000000000000209,-0.093692514550577768
0.361000000000000210,-0.145282228984259854
0.362000000000000210,-0.196191243977285129
0.363000000000000211,-0.246419512890855008
0.364000000000000212,-0.295966818331783454
0.365000000000000213,-0.344832802332378840
0.366000000000000214,-0.393016994857622426
0.367000000000000215,-0.440518840682813384
0.368000000000000216,-0.487337724686018103
0.369000000000000217,-0.533472995600182465
0.370000000000000218,-0.578923988270755974
0.371000000000000218,-0.623690044464817239
0.372000000000000219,-0.667770532278267659
0.373000000000000220,-0.711164864187706969
0.374000000000000221,-0.753872513793657162
0.375000000000000222,-0.795893031301649678
0.376000000000000223,-0.837226057787793798
0.377000000000000224,-0.877871338294706982
0.378000000000000225,-0.917828733803656149
0.379000000000000226,-0.957098232128063331
0.380000000000000226,-0.995679957773179858
0.381000000000000227,-1.033574180805790999
0.382000000000000228,-1.070781324777489996
0.383000000000000229,-1.107301973744021062
0.384000000000000230,-1.143136878422486014
0.385000000000000231,-1.178286961527489130
0.386000000000000232,-1.212753322326123318
0.387000000000000233,-1.246537240451135009
0.388000000000000234,-1.279640179010278711
0.389000000000000234,-1.312063787029296602
0.390000000000000235,-1.343809901264588547
0.391000000000000236,-1.374880547420933796
0.392000000000000237,-1.405277940808380199
0.393000000000000238,-1.435004486471593399
0.394000000000000239,-1.464062778823689737
0.395000000000000240,-1.492455600815789207
0.396000000000000241,-1.520185922672289136
0.397000000000000242,-1.547256900220940867
0.398000000000000242,-1.573671872845773256
0.399000000000000243,-1.599434361089791867
0.400000000000000244,-1.624548063933529018
0.401000000000000245,-1.649016855774451340
0.402000000000000246,-1.672844783131105073
0.403000000000000247,-1.696036061095233194
0.404000000000000248,-1.718595069553790156
0.405000000000000249,-1.740526349202134115
0.406000000000000250,-1.761834597368502342
0.407000000000000250,-1.782524663669221798
0.408000000000000251,-1.802601545513022874
0.409000000000000252,-1.822070383472078614
0.410000000000000253,-1.840936456536525601
0.411000000000000254,-1.859205177268379527
0.412000000000000255,-1.876882086869952060
0.413000000000000256,-1.893972850181235845
0.414000000000000257,-1.910483250619678497
0.415000000000000258,-1.926419185075432861
0.416000000000000258,-1.941786658774044882
0.417000000000000259,-1.956591780118209556
0.418000000000000260,-1.970840755519311482
0.419000000000000261,-1.984539884228976536
0.420000000000000262,-1.997695553180128147
0.421000000000000263,-2.010314231846597188
0.422000000000000264,-2.022402467129503556
0.423000000000000265,-2.033966878278367751
0.424000000000000266,-2.045014151854201323
0.425000000000000266,-2.055551036741264603
0.426000000000000267,-2.065584339213877296
0.427000000000000268,-2.075120918064005338
0.428000000000000269,-2.084167679794986405
0.429000000000000270,-2.092731573886346563
0.430000000000000271,-2.100819588134107185
0.431000000000000272,-2.108438744070797455
0.432000000000000273,-2.115596092468764677
0.433000000000000274,-2.122298708930238309
0.434000000000000274,-2.128553689567078244
0.435000000000000275,-2.134368146772909203
0.436000000000000276,-2.139749205090029083
0.437000000000000277,-2.144703997173088794
0.438000000000000278,-2.149239659851388318
0.439000000000000279,-2.153363330291274913
0.440000000000000280,-2.157082142259887814
0.441000000000000281,-2.160403222491266373
0.442000000000000282,-2.163333687155674312
0.443000000000000282,-2.165880638432589933
0.444000000000000283,-2.168051161187874776
0.445000000000000284,-2.169852319755198877
0.446000000000000285,-2.171291154821744840
0.447000000000000286,-2.172374680418116100
0.448000000000000287,-2.173109881011964450
0.449000000000000288,-2.173503708705041060
0.450000000000000289,-2.173563080532929348
0.451000000000000290,-2.173294875866791820
0.452000000000000290,-2.172705933916305732
0.453000000000000291,-2.171803051332726664
0.454000000000000292,-2.170592979911128317
0.455000000000000293,-2.169082424390585739
0.456000000000000294,-2.167278040351076740
0.457000000000000295,-2.165186432205817191
0.458000000000000296,-2.162814151287549169
0.459000000000000297,-2.160167694027431473
0.460000000000000298,-2.157253500224904030
0.461000000000000298,-2.154077951407046942
0.462000000000000299,-2.150647369275750176
0.463000000000000300,-2.146968014241037448
0.464000000000000301,-2.143046084038896293
0.465000000000000302,-2.138887712431817967
0.466000000000000303,-2.134498967990316132
0.467000000000000304,-2.129885852953656400
0.468000000000000305,-2.125054302167954656
0.469000000000000306,-2.120010182099853147
0.470000000000000306,-2.114759289923986429
0.471000000000000307,-2.109307352682272985
0.472000000000000308,-2.103660026513348491
0.473000000000000309,-2.097822895950188116
0.474000000000000310,-2.091801473284105484
0.475000000000000311,-2.085601197993297795
0.476000000000000312,-2.079227436234104331
0.477000000000000313,-2.072685480393153590
0.478000000000000314,-2.065980548698537866
0.479000000000000314,-2.059117784888327307
0.480000000000000315,-2.052102257934488527
0.481000000000000316,-2.044938961820588208
0.482000000000000317,-2.037632815371394734
0.483000000000000318,-2.030188662132754285
0.484000000000000319,-2.022611270299953468
0.485000000000000320,-2.014905332692921824
0.486000000000000321,-2.007075466776599981
0.487000000000000322,-1.999126214724832096
0.488000000000000322,-1.991062043526107939
0.489000000000000323,-1.982887345129698442
0.490000000000000324,-1.974606436630480077
0.491000000000000325,-1.966223560490991673
0.492000000000000326,-1.957742884799177574
0.493000000000000327,-1.949168503560375854
0.494000000000000328,-1.940504437022049000
0.495000000000000329,-1.931754632029901941
0.496000000000000330,-1.922922962413888381
0.497000000000000330,-1.914013229402919292
0.498000000000000331,-1.905029162066692150
0.499000000000000332,-1.895974417783602650
0.500000000000000333,-1.886852582733289152
0.501000000000000334,-1.877667172412599728
0.502000000000000335,-1.868421632173834723
0.503000000000000336,-1.859119337784011616
0.504000000000000337,-1.849763596004046828
0.505000000000000338,-1.840357645186689428
0.506000000000000338,-1.830904655892166888
0.507000000000000339,-1.821407731520435336
0.508000000000000340,-1.811869908959005571
0.509000000000000341,-1.802294159245401373
0.510000000000000342,-1.792683388243164755
0.511000000000000343,-1.783040437330577488
0.512000000000000344,-1.773368084101081266
0.513000000000000345,-1.763669043074562737
0.514000000000000346,-1.753945966418657409
0.515000000000000346,-1.744201444679160717
0.516000000000000347,-1.734438007518781522
0.517000000000000348,-1.724658124463504860
0.518000000000000349,-1.714864205655675988
0.519000000000000350,-1.705058602613221508
0.520000000000000351,-1.695243608994167150
0.521000000000000352,-1.685421461365891771
0.522000000000000353,-1.675594339978339731
0.523000000000000353,-1.665764369540645218
0.524000000000000354,-1.655933620000528350
0.525000000000000355,-1.646104107325847110
0.526000000000000356,-1.636277794287768872
0.527000000000000357,-1.626456591245022620
0.528000000000000358,-1.616642356928653657
0.529000000000000359,-1.606836899226866011
0.530000000000000360,-1.597041975969361483
0.531000000000000361,-1.587259295710810703
0.532000000000000361,-1.577490518512947304
0.533000000000000362,-1.567737256724893058
0.534000000000000363,-1.558001075761276777
0.535000000000000364,-1.548283494877808808
0.536000000000000365,-1.538585987943870359
0.537000000000000366,-1.528909984211845208
0.538000000000000367,-1.519256869082745709
0.539000000000000368,-1.509627984867966566
0.540000000000000369,-1.500024631546682752
0.541000000000000369,-1.490448067518771458
0.542000000000000370,-1.480899510352831072
0.543000000000000371,-1.471380137529153309
0.544000000000000372,-1.461891087177337401
0.545000000000000373,-1.452433458808340738
0.546000000000000374,-1.443008314040722828
0.547000000000000375,-1.433616677320886712
0.548000000000000376,-1.424259536637150214
0.549000000000000377,-1.414937844227404984
0.550000000000000377,-1.405652517280260971
0.551000000000000378,-1.396404438629433198
0.552000000000000379,-1.387194457441330631
0.553000000000000380,-1.378023389895601802
0.554000000000000381,-1.368892019858557019
0.555000000000000382,-1.359801099549398540
0.556000000000000383,-1.350751350199017375
0.557000000000000384,-1.341743462701426193
0.558000000000000385,-1.332778098257572985
0.559000000000000385,-1.323855889011584797
0.560000000000000386,-1.314977438679290511
0.561000000000000387,-1.306143323168988957
0.562000000000000388,-1.297354091194377279
0.563000000000000389,-1.288610264879643363
0.564000000000000390,-1.279912340356603062
0.565000000000000391,-1.271260788353912652
0.566000000000000392,-1.262656054778277248
0.567000000000000393,-1.254098561287685376
0.568000000000000393,-1.245588705856575107
0.569000000000000394,-1.237126863332994375
0.570000000000000395,-1.228713385987721951
0.571000000000000396,-1.220348604055303321
0.572000000000000397,-1.212032826267109176
0.573000000000000398,-1.203766340376298150
0.574000000000000399,-1.195549413674815487
0.575000000000000400,-1.187382293502353026
0.576000000000000401,-1.179265207747330457
0.577000000000000401,-1.171198365339975123
0.578000000000000402,-1.163181956737415090
0.579000000000000403,-1.155216154400907635
0.580000000000000404,-1.147301113265245753
0.581000000000000405,-1.139436971200300075
0.582000000000000406,-1.131623849464847620
0.583000000000000407,-1.123861853152629431
0.584000000000000408,-1.116151071630779423
0.585000000000000409,-1.108491578970610458
0.586000000000000409,-1.100883434370830916
0.587000000000000410,-1.093326682573288799
0.588000000000000411,-1.085821354271209627
0.589000000000000412,-1.078367466510114836
0.590000000000000413,-1.070965023081357881
0.591000000000000414,-1.063614014908428107
0.592000000000000415,-1.056314420426077927
0.593000000000000416,-1.049066205952288611
0.594000000000000417,-1.041869326053196820
0.595000000000000417,-1.034723723901082471
0.596000000000000418,-1.027629331625354414
0.597000000000000419,-1.020586070656805289
0.598000000000000420,-1.013593852065011625
0.599000000000000421,-1.006652576889120576
0.600000000000000422,-0.999762136461981088
0.601000000000000423,-0.992922412727759607
0.602000000000000424,-0.986133278553107062
0.603000000000000425,-0.979394598031949726
0.604000000000000425,-0.972706226783968675
0.605000000000000426,-0.966068012246878438
0.606000000000000427,-0.959479793962593419
0.607000000000000428,-0.952941403857254676
0.608000000000000429,-0.946452666515417262
0.609000000000000430,-0.940013399448191955
0.610000000000000431,-0.933623413355709308
0.611000000000000432,-0.927282512383768909
0.612000000000000433,-0.920990494374857582
0.613000000000000433,-0.914747151113623480
0.614000000000000434,-0.908552268566845123
