# ZnO1m210NB_CS-5735-AC
# h[nm],U(h)[kJ/mol]
0.149999999999999994,123.402168213875256697
0.150999999999999995,121.363278482621964827
0.151999999999999996,119.829443732665140487
0.152999999999999997,118.370565439768569149
0.153999999999999998,116.849643304435019786
0.154999999999999999,115.259262629420248913
0.156000000000000000,113.635986434424651748
0.157000000000000001,112.019842856550866372
0.158000000000000002,110.438646034142919916
0.159000000000000002,108.904986063089921799
0.160000000000000003,107.418858784029751519
0.161000000000000004,105.972091947731613004
0.162000000000000005,104.552644786452304970
0.163000000000000006,103.147971025378041077
0.164000000000000007,101.747244019378427993
0.165000000000000008,100.342545075740872562
0.166000000000000009,98.929239493366097236
0.167000000000000010,97.505789662236736604
0.168000000000000010,96.073229951959973505
0.169000000000000011,94.634483184754458307
0.170000000000000012,93.193649543057972551
0.171000000000000013,91.755354161561456294
0.172000000000000014,90.324202980616817626
0.173000000000000015,88.904368544690115073
0.174000000000000016,87.499307723044736917
0.175000000000000017,86.111600557870147554
0.176000000000000018,84.742892155771556872
0.177000000000000018,83.393916332746726994
0.178000000000000019,82.064579377268131566
0.179000000000000020,80.754083809308966124
0.180000000000000021,79.461074607062570863
0.181000000000000022,78.183793472001667624
0.182000000000000023,76.920229902442244452
0.183000000000000024,75.668260879469357860
0.184000000000000025,74.425773676952871938
0.185000000000000026,73.190768608258309769
0.186000000000000026,71.961440390849929827
0.187000000000000027,70.736238258515470534
0.188000000000000028,69.513906015018534390
0.189000000000000029,68.293503951064067792
0.190000000000000030,67.074414992294592253
0.191000000000000031,65.856337663492837464
0.192000000000000032,64.639268493908531354
0.193000000000000033,63.423476396106934772
0.194000000000000034,62.209471365267532406
0.195000000000000034,60.997969600309637883
0.196000000000000035,59.789856869231151393
0.197000000000000036,58.586151649504458305
0.198000000000000037,57.387969286064638652
0.199000000000000038,56.196488135744687042
0.200000000000000039,55.012918415684964657
0.201000000000000040,53.838474249006267769
0.202000000000000041,52.674349206260842493
0.203000000000000042,51.521695476426543792
0.204000000000000042,50.381606665699464997
0.205000000000000043,49.255104114348824851
0.206000000000000044,48.143126539067260694
0.207000000000000045,47.046522747871350134
0.208000000000000046,45.966047133801843927
0.209000000000000047,44.902357629549797480
0.210000000000000048,43.856015794909879446
0.211000000000000049,42.827488710019132157
0.212000000000000050,41.817152357292592058
0.213000000000000050,40.825296191686810232
0.214000000000000051,39.852128620534053027
0.215000000000000052,38.897783139094102012
0.216000000000000053,37.962324894811480647
0.217000000000000054,37.045757480928713790
0.218000000000000055,36.148029787691321246
0.219000000000000056,35.269042766183240190
0.220000000000000057,34.408655985312620373
0.221000000000000058,33.566693886248728518
0.222000000000000058,32.742951660417887183
0.223000000000000059,31.937200696855718718
0.224000000000000060,31.149193562204221308
0.225000000000000061,30.378668491941674290
0.226000000000000062,29.625353384590489725
0.227000000000000063,28.888969301760209163
0.228000000000000064,28.169233486074450212
0.229000000000000065,27.465861916445881263
0.230000000000000066,26.778571425963768604
0.231000000000000066,26.107081412004401244
0.232000000000000067,25.451115171236061485
0.233000000000000068,24.810400894124683191
0.234000000000000069,24.184672354514077597
0.235000000000000070,23.573669329999653144
0.236000000000000071,22.977137788277939734
0.237000000000000072,22.394829873557522859
0.238000000000000073,21.826503725579538440
0.239000000000000073,21.271923161917158041
0.240000000000000074,20.730857252094576637
0.241000000000000075,20.203079809768315300
0.242000000000000076,19.688368826814276247
0.243000000000000077,19.186505870721397571
0.244000000000000078,18.697275464257778310
0.245000000000000079,18.220464463986196790
0.246000000000000080,17.755861451898333314
0.247000000000000081,17.303256152233309706
0.248000000000000081,16.862438883469735629
0.249000000000000082,16.433200053542584840
0.250000000000000111,16.015329704547561107
0.251000000000000112,15.608617111562200108
0.252000000000000113,15.212850438734744074
0.253000000000000114,14.827816454471644647
0.254000000000000115,14.453300306384496920
0.255000000000000115,14.089085355636864705
0.256000000000000116,13.734953069450742902
0.257000000000000117,13.390682969785739687
0.258000000000000118,13.056052635582625854
0.259000000000000119,12.730837755456642313
0.260000000000000120,12.414812227326951444
0.261000000000000121,12.107748301166781246
0.262000000000000122,11.809416760844570149
0.263000000000000123,11.519587140891358601
0.264000000000000123,11.238027973963649941
0.265000000000000124,10.964507064767087030
0.266000000000000125,10.698791786254663094
0.267000000000000126,10.440649394007859740
0.268000000000000127,10.189847354841379712
0.269000000000000128,9.946153685837009206
0.270000000000000129,9.709337300202369292
0.271000000000000130,9.479168356560476738
0.272000000000000131,9.255418608502241185
0.273000000000000131,9.037861751470149585
0.274000000000000132,8.826273764285001988
0.275000000000000133,8.620433242873721369
0.276000000000000134,8.420121724003056585
0.277000000000000135,8.225123997068417125
0.278000000000000136,8.035228402225882860
0.279000000000000137,7.850227113388399403
0.280000000000000138,7.669916404831454315
0.281000000000000139,7.494096900367907210
0.282000000000000139,7.322573804255940288
0.283000000000000140,7.155157113196362495
0.284000000000000141,6.991661808956239454
0.285000000000000142,6.831908031323839836
0.286000000000000143,6.675721231255428378
0.287000000000000144,6.522932304217659905
0.288000000000000145,6.373377703859157251
0.289000000000000146,6.226899536263661439
0.290000000000000147,6.083345635142353380
0.291000000000000147,5.942569618417827826
0.292000000000000148,5.804430926734770679
0.293000000000000149,5.668794844504870589
0.294000000000000150,5.535532504155321831
0.295000000000000151,5.404520874302450650
0.296000000000000152,5.275642732615179575
0.297000000000000153,5.148786624167424719
0.298000000000000154,5.023846806105147778
0.299000000000000155,4.900723179472821656
0.300000000000000155,4.779321209056429431
0.301000000000000156,4.659551832106335389
0.302000000000000157,4.541331356803500974
0.303000000000000158,4.424581351328127354
0.304000000000000159,4.309228524380185554
0.305000000000000160,4.195204597988071882
0.306000000000000161,4.082446173424415292
0.307000000000000162,3.970894591027740894
0.308000000000000163,3.860495784705809008
0.309000000000000163,3.751200131870901622
0.310000000000000164,3.642962299530004167
0.311000000000000165,3.535741087223775114
0.312000000000000166,3.429499267477818414
0.313000000000000167,3.324203424398520124
0.314000000000000168,3.219823791013463055
0.315000000000000169,3.116334085923965880
0.316000000000000170,3.013711349804319983
0.317000000000000171,2.911935782249485349
0.318000000000000171,2.810990579440251658
0.319000000000000172,2.710861773062198665
0.320000000000000173,2.611538070883041573
0.321000000000000174,2.513010699361298173
0.322000000000000175,2.415273248628504899
0.323000000000000176,2.318321520157295534
0.324000000000000177,2.222153377398467633
0.325000000000000178,2.126768599642161028
0.326000000000000179,2.032168739330931118
0.327000000000000179,1.938356983026624736
0.328000000000000180,1.845338016207853205
0.329000000000000181,1.753117892050919169
0.330000000000000182,1.661703904324526970
0.331000000000000183,1.571104464506688947
0.332000000000000184,1.481328983212086614
0.333000000000000185,1.392387755998672816
0.334000000000000186,1.304291853604146123
0.335000000000000187,1.217053016645962327
0.336000000000000187,1.130683554802439872
0.337000000000000188,1.045196250477969047
0.338000000000000189,0.960604266941156082
0.339000000000000190,0.876921060912198458
0.340000000000000191,0.794160299564105387
0.341000000000000192,0.712335781891261011
0.342000000000000193,0.631461364389309110
0.343000000000000194,0.551550890981027608
0.344000000000000195,0.472618127115217557
0.345000000000000195,0.394676697957725031
0.346000000000000196,0.317740030587849165
0.347000000000000197,0.241821300107161186
0.348000000000000198,0.166933379563021400
0.349000000000000199,0.093088793584555532
0.350000000000000200,0.020299675625196724
0.351000000000000201,-0.051422271297272795
0.352000000000000202,-0.122065810474701483
0.353000000000000203,-0.191620204110285797
0.354000000000000203,-0.260075242763178949
0.355000000000000204,-0.327421271752157961
0.356000000000000205,-0.393649214635280242
0.357000000000000206,-0.458750593882769842
0.358000000000000207,-0.522717548859913839
0.359000000000000208,-0.585542851236699691
0.360000000000000209,-0.647219917939968359
0.361000000000000210,-0.707742821762662788
0.362000000000000210,-0.767106299743733899
0.363000000000000211,-0.825305759430450814
0.364000000000000212,-0.882337283133268757
0.365000000000000213,-0.938197630281346173
0.366000000000000214,-0.992884237984756224
0.367000000000000215,-1.046395219907078289
0.368000000000000216,-1.098729363549832527
0.369000000000000217,-1.149886126047418689
0.370000000000000218,-1.199865628568925091
0.371000000000000218,-1.248668649420188848
0.372000000000000219,-1.296296615936970875
0.373000000000000220,-1.342751595257168251
0.374000000000000221,-1.388036284057121428
0.375000000000000222,-1.432153997334181472
0.376000000000000223,-1.475108656314996658
0.377000000000000224,-1.516904775565750096
0.378000000000000225,-1.557547449377895799
0.379000000000000226,-1.597042337499950060
0.380000000000000226,-1.635395650283125280
0.381000000000000227,-1.672614133305455608
0.382000000000000228,-1.708705051536631547
0.383000000000000229,-1.743676173102604254
0.384000000000000230,-1.777535752706447258
0.385000000000000231,-1.810292514759316962
0.386000000000000232,-1.841955636272448071
0.387000000000000233,-1.872534729558839262
0.388000000000000234,-1.902039824790412670
0.389000000000000234,-1.930481352454258559
0.390000000000000235,-1.957870125748865320
0.391000000000000236,-1.984217322959082708
0.392000000000000237,-2.009534469846154359
0.393000000000000238,-2.033833422087005793
0.394000000000000239,-2.057126347794702603
0.395000000000000240,-2.079425710150035744
0.396000000000000241,-2.100744250172087213
0.397000000000000242,-2.121094969653638529
0.398000000000000242,-2.140491114285552054
0.399000000000000243,-2.158946156992216370
0.400000000000000244,-2.176473781498613924
0.401000000000000245,-2.193087866147805265
0.402000000000000246,-2.208802467985888640
0.403000000000000247,-2.223631807130228122
0.404000000000000248,-2.237590251434971922
0.405000000000000249,-2.250692301466705292
0.406000000000000250,-2.262952575801528088
0.407000000000000250,-2.274385796653745739
0.408000000000000251,-2.285006775844998117
0.409000000000000252,-2.294830401121554786
0.410000000000000253,-2.303871622826374921
0.411000000000000254,-2.312145440931483886
0.412000000000000255,-2.319666892435187755
0.413000000000000256,-2.326451039127811704
0.414000000000000257,-2.332512955728562876
0.415000000000000258,-2.337867718395536087
0.416000000000000258,-2.342530393609826955
0.417000000000000259,-2.346516027434180529
0.418000000000000260,-2.349839635145778427
0.419000000000000261,-2.352516191242199461
0.420000000000000262,-2.354560619818876877
0.421000000000000263,-2.355987785315976080
0.422000000000000264,-2.356812483631835597
0.423000000000000265,-2.357049433599875066
0.424000000000000266,-2.356713268825322949
0.425000000000000266,-2.355818529877560685
0.426000000000000267,-2.354379656833772927
0.427000000000000268,-2.352410982168970044
0.428000000000000269,-2.349926723987289634
0.429000000000000270,-2.346940979589166254
0.430000000000000271,-2.343467719368578006
0.431000000000000272,-2.339520781034552854
0.432000000000000273,-2.335113864150655694
0.433000000000000274,-2.330260524986223380
0.434000000000000274,-2.324974171672746781
0.435000000000000275,-2.319268059658794900
0.436000000000000276,-2.313155287456715392
0.437000000000000277,-2.306648792674149018
0.438000000000000278,-2.299761348323487109
0.439000000000000279,-2.292505559402171045
0.440000000000000280,-2.284893859736755850
0.441000000000000281,-2.276938509083588968
0.442000000000000282,-2.268651590479039193
0.443000000000000282,-2.260045007831974040
0.444000000000000283,-2.251130483751469846
0.445000000000000284,-2.241919557602529700
0.446000000000000285,-2.232423583782693566
0.447000000000000286,-2.222653730212569734
0.448000000000000287,-2.212620977033083136
0.449000000000000288,-2.202336115502662839
0.450000000000000289,-2.191809747087289928
0.451000000000000290,-2.181052282736685832
0.452000000000000290,-2.170073942339843853
0.453000000000000291,-2.158884754353209701
0.454000000000000292,-2.147494555594966492
0.455000000000000293,-2.135912991198928523
0.456000000000000294,-2.124149514721631604
0.457000000000000295,-2.112213388396412483
0.458000000000000296,-2.100113683528205488
0.459000000000000297,-2.087859281023116687
0.460000000000000298,-2.075458872046725300
0.461000000000000298,-2.062920958805388505
0.462000000000000299,-2.050253855444780893
0.463000000000000300,-2.037465689060105500
0.464000000000000301,-2.024564400812557174
0.465000000000000302,-2.011557747146677677
0.466000000000000303,-1.998453301103386703
0.467000000000000304,-1.985258453723676819
0.468000000000000305,-1.971980415537955222
0.469000000000000306,-1.958626218136235719
0.470000000000000306,-1.945202715814573935
0.471000000000000307,-1.931716587293000220
0.472000000000000308,-1.918174337500719862
0.473000000000000309,-1.904582299424133485
0.474000000000000310,-1.890946636013549398
0.475000000000000311,-1.877273342144508472
0.476000000000000312,-1.863568246629846881
0.477000000000000313,-1.849837014278592040
0.478000000000000314,-1.836085147998072431
0.479000000000000314,-1.822317990935679033
0.480000000000000315,-1.808540728656757413
0.481000000000000316,-1.794758391355397276
0.482000000000000317,-1.780975856094805021
0.483000000000000318,-1.767197849074241489
0.484000000000000319,-1.753428947919455583
0.485000000000000320,-1.739673583993792905
0.486000000000000321,-1.725936044727182761
0.487000000000000322,-1.712220475960333443
0.488000000000000322,-1.698530884301524990
0.489000000000000323,-1.684871139493663961
0.490000000000000324,-1.671244976789088899
0.491000000000000325,-1.657655999329966878
0.492000000000000326,-1.644107680532027826
0.493000000000000327,-1.630603366469647764
0.494000000000000328,-1.617146278260209069
0.495000000000000329,-1.603739514445912118
0.496000000000000330,-1.590386053371139807
0.497000000000000330,-1.577088755553785138
0.498000000000000331,-1.563850366048697982
0.499000000000000332,-1.550673516801905460
0.500000000000000333,-1.537560728993962123
0.501000000000000334,-1.524514415371056586
0.502000000000000335,-1.511536882562579676
0.503000000000000336,-1.498630333383843327
0.504000000000000337,-1.485796869122769648
0.505000000000000338,-1.473038491809407713
0.506000000000000338,-1.460357106467239818
0.507000000000000339,-1.447754523345247124
0.508000000000000340,-1.435232460129790777
0.509000000000000341,-1.422792544135497383
0.510000000000000342,-1.410436314474202923
0.511000000000000343,-1.398165224201319834
0.512000000000000344,-1.385980642438794819
0.513000000000000345,-1.373883856474075404
0.514000000000000346,-1.361876073834470624
0.515000000000000346,-1.349958424336270779
0.516000000000000347,-1.338131962108173978
0.517000000000000348,-1.326397667588563367
0.518000000000000349,-1.314756449496105262
0.519000000000000350,-1.303209146773410598
0.520000000000000351,-1.291756530503289424
0.521000000000000352,-1.280399305797401910
0.522000000000000353,-1.269138113656928857
0.523000000000000353,-1.257973532805090944
0.524000000000000354,-1.246906081491310436
0.525000000000000355,-1.235936219266800418
0.526000000000000356,-1.225064348731479402
0.527000000000000357,-1.214290817252113408
0.528000000000000358,-1.203615918651537831
0.529000000000000359,-1.193039894869004414
0.530000000000000360,-1.182562937591515650
0.531000000000000361,-1.172185189856246756
0.532000000000000361,-1.161906747623990155
0.533000000000000362,-1.151727661323731722
0.534000000000000363,-1.141647937368369004
0.535000000000000364,-1.131667539641710629
0.536000000000000365,-1.121786390956797996
0.537000000000000366,-1.112004374485751290
0.538000000000000367,-1.102321335161171145
0.539000000000000368,-1.092737081049399039
0.540000000000000369,-1.083251384695647745
0.541000000000000369,-1.073863984441328245
0.542000000000000370,-1.064574585713670141
0.543000000000000371,-1.055382862287915557
0.544000000000000372,-1.046288457522281723
0.545000000000000373,-1.037290985565944235
0.546000000000000374,-1.028390032540270393
0.547000000000000375,-1.019585157693569277
0.548000000000000376,-1.010875894529654095
0.549000000000000377,-1.002261751910440202
0.550000000000000377,-0.993742215132909612
0.551000000000000378,-0.985316746980689828
0.552000000000000379,-0.976984788750605126
0.553000000000000380,-0.968745761254444782
0.554000000000000381,-0.960599065796270302
0.555000000000000382,-0.952544085125644591
0.556000000000000383,-0.944580184366970110
0.557000000000000384,-0.936706711925419100
0.558000000000000385,-0.928923000369636043
0.559000000000000385,-0.921228367291651251
0.560000000000000386,-0.913622116144288787
0.561000000000000387,-0.906103537056411334
0.562000000000000388,-0.898671907626337529
0.563000000000000389,-0.891326493693808453
0.564000000000000390,-0.884066550090774839
0.565000000000000391,-0.876891321371423005
0.566000000000000392,-0.869800042521714167
0.567000000000000393,-0.862791939648862138
0.568000000000000393,-0.855866230650984550
0.569000000000000394,-0.849022125867371025
0.570000000000000395,-0.842258828709673724
0.571000000000000396,-0.835575536274317243
0.572000000000000397,-0.828971439936571963
0.573000000000000398,-0.822445725926505888
0.574000000000000399,-0.815997575887276838
0.575000000000000400,-0.809626167415991582
0.576000000000000401,-0.803330674587532600
0.577000000000000401,-0.797110268461696525
0.578000000000000402,-0.790964117573912273
0.579000000000000403,-0.784891388409895918
0.580000000000000404,-0.778891245864627435
0.581000000000000405,-0.772962853685853934
0.582000000000000406,-0.767105374902555814
0.583000000000000407,-0.761317972238605645
0.584000000000000408,-0.755599808511998705
0.585000000000000409,-0.749950047019921184
0.586000000000000409,-0.744367851909978118
0.587000000000000410,-0.738852388537919014
0.588000000000000411,-0.733402823812078553
0.589000000000000412,-0.728018326524949133
0.590000000000000413,-0.722698067672055466
0.591000000000000414,-0.717441220758510689
0.592000000000000415,-0.712246962093517677
0.593000000000000416,-0.707114471073066686
0.594000000000000417,-0.702042930451137859
0.595000000000000417,-0.697031526599725448
0.596000000000000418,-0.692079449757823761
0.597000000000000419,-0.687185894269827013
0.598000000000000420,-0.682350058813422811
0.599000000000000421,-0.677571146617392706
0.600000000000000422,-0.672848365669466264
0.601000000000000423,-0.668180928914537731
0.602000000000000424,-0.663568054443482103
0.603000000000000425,-0.659008965672816083
0.604000000000000425,-0.654502891515418961
0.605000000000000426,-0.650049066542583764
0.606000000000000427,-0.645646731137648922
0.607000000000000428,-0.641295131641314797
0.608000000000000429,-0.636993520489095078
0.609000000000000430,-0.632741156340853150
0.610000000000000431,-0.628537304202885783
0.611000000000000432,-0.624381235542595503
0.612000000000000433,-0.620272228396030800
0.613000000000000433,-0.616209567468516406
0.614000000000000434,-0.612192544228529312
