# ZnO1m210NB_CS-5993-AC
# h[nm],U(h)[kJ/mol]
0.149999999999999994,127.423839352821644866
0.150999999999999995,125.699295737272422002
0.151999999999999996,124.111579360648605075
0.152999999999999997,122.575154445890433408
0.153999999999999998,121.055460004166235422
0.154999999999999999,119.542713130911778308
0.156000000000000000,118.037403499786847760
0.157000000000000001,116.542850639079716757
0.158000000000000002,115.061858806862716165
0.159000000000000002,113.595613923576706839
0.160000000000000003,112.143696583375870546
0.161000000000000004,110.704556264510372898
0.162000000000000005,109.276089183746606182
0.163000000000000006,107.856144322371363842
0.164000000000000007,106.442889090229982685
0.165000000000000008,105.035025074334910755
0.166000000000000009,103.631873539646520044
0.167000000000000010,102.233361809589780478
0.168000000000000010,100.839943110003119386
0.169000000000000011,99.452478802695310378
0.170000000000000012,98.072106141843349292
0.171000000000000013,96.700108483024081352
0.172000000000000014,95.337799182042672896
0.173000000000000015,93.986425659915354913
0.174000000000000016,92.647096403692600575
0.175000000000000017,91.320730975355814962
0.176000000000000018,90.008031284281827311
0.177000000000000018,88.709471282108935952
0.178000000000000019,87.425301699595095783
0.179000000000000020,86.155566314780543280
0.180000000000000021,84.900126393723169826
0.181000000000000022,83.658690276382429829
0.182000000000000023,82.430845510988532965
0.183000000000000024,81.216091411020840951
0.184000000000000025,80.013870377633594444
0.185000000000000026,78.823596768977523652
0.186000000000000026,77.644682489336830145
0.187000000000000027,76.476558806615429376
0.188000000000000028,75.318694183765472872
0.189000000000000029,74.170608129748956117
0.190000000000000030,73.031881242755318340
0.191000000000000031,71.902161738461430218
0.192000000000000032,70.781168835677860329
0.193000000000000033,69.668693417491255104
0.194000000000000034,68.564596404486465531
0.195000000000000034,67.468805273789101307
0.196000000000000035,66.381309138852685692
0.197000000000000036,65.302152774747511899
0.198000000000000037,64.231429936081084975
0.199000000000000038,63.169276272792828308
0.200000000000000039,62.115862105469737742
0.201000000000000040,61.071385278501011840
0.202000000000000041,60.036064267799019945
0.203000000000000042,59.010131681012445881
0.204000000000000042,57.993828252825537106
0.205000000000000043,56.987397406483921714
0.206000000000000044,55.991080425273615617
0.207000000000000045,55.005112254306183672
0.208000000000000046,54.029717933481435921
0.209000000000000047,53.065109646683005451
0.210000000000000048,52.111484359807604960
0.211000000000000049,51.169022010807537981
0.212000000000000050,50.237884208177938206
0.213000000000000050,49.318213389900257937
0.214000000000000051,48.410132392408456781
0.215000000000000052,47.513744378353280240
0.216000000000000053,46.629133072497737089
0.217000000000000054,45.756363256708411313
0.218000000000000055,44.895481477465331466
0.219000000000000056,44.046516922382991766
0.220000000000000057,43.209482425723415133
0.221000000000000058,42.384375566637288557
0.222000000000000058,41.571179827745496027
0.223000000000000059,40.769865785571901995
0.224000000000000060,39.980392308159750314
0.225000000000000061,39.202707738886928723
0.226000000000000062,38.436751048980489998
0.227000000000000063,37.682452944484197133
0.228000000000000064,36.939736916427250435
0.229000000000000065,36.208520225661530390
0.230000000000000066,35.488714816274629982
0.231000000000000066,34.780228153645154521
0.232000000000000067,34.082963985093570614
0.233000000000000068,33.396823022704687389
0.234000000000000069,32.721703549273840395
0.235000000000000070,32.057501949471301828
0.236000000000000071,31.404113169249161075
0.237000000000000072,30.761431107248153438
0.238000000000000073,30.129348942520227439
0.239000000000000073,29.507759403283934319
0.240000000000000074,28.896554981691650710
0.241000000000000075,28.295628099730794958
0.242000000000000076,27.704871231419634370
0.243000000000000077,27.124176986409310075
0.244000000000000078,26.553438159982039934
0.245000000000000079,25.992547754253656933
0.246000000000000080,25.441398975160200990
0.247000000000000081,24.899885209541892550
0.248000000000000081,24.367899986346280627
0.249000000000000082,23.845336925661325012
0.250000000000000111,23.332089678967786739
0.251000000000000112,22.828051863674581057
0.252000000000000113,22.333116994675286548
0.253000000000000114,21.847178415345627656
0.254000000000000115,21.370129230090828543
0.255000000000000115,20.901862240254931891
0.256000000000000116,20.442269884920580836
0.257000000000000117,19.991244187861717307
0.258000000000000118,19.548676711663237171
0.259000000000000119,19.114458519791281077
0.260000000000000120,18.688480147187206626
0.261000000000000121,18.270631579766629216
0.262000000000000122,17.860802243032050995
0.263000000000000123,17.458880999854045513
0.264000000000000123,17.064756157339481035
0.265000000000000124,16.678315482587287022
0.266000000000000125,16.299446227029847023
0.267000000000000126,15.928035158971869834
0.268000000000000127,15.563968603866404905
0.269000000000000128,15.207132491809726815
0.270000000000000129,14.857412411690830822
0.271000000000000130,14.514693671396633690
0.272000000000000131,14.178861363450499411
0.273000000000000131,13.849800435446727676
0.274000000000000132,13.527395764637608622
0.275000000000000133,13.211532236030876675
0.276000000000000134,12.902094823363000842
0.277000000000000135,12.598968672327590212
0.278000000000000136,12.302039185456044024
0.279000000000000137,12.011192108070190443
0.280000000000000138,11.726313614752672976
0.281000000000000139,11.447290395809073260
0.282000000000000139,11.174009743226864799
0.283000000000000140,10.906359635668508190
0.284000000000000141,10.644228822069660367
0.285000000000000142,10.387506903447736306
0.286000000000000143,10.136084412560585122
0.287000000000000144,9.889852891089873310
0.288000000000000145,9.648704964057547073
0.289000000000000146,9.412534411218157260
0.290000000000000147,9.181236235201826190
0.291000000000000147,8.954706726215354351
0.292000000000000148,8.732843523138866360
0.293000000000000149,8.515545670885517282
0.294000000000000150,8.302713673919209114
0.295000000000000151,8.094249545852161276
0.296000000000000152,7.890056855068958264
0.297000000000000153,7.690040766347277845
0.298000000000000154,7.494108078467101919
0.299000000000000155,7.302167257820668667
0.300000000000000155,7.114128468053777965
0.301000000000000156,6.929903595786403692
0.302000000000000157,6.749406272475678925
0.303000000000000158,6.572551892498668558
0.304000000000000159,6.399257627544574056
0.305000000000000160,6.229442437417294975
0.306000000000000161,6.063027077358918326
0.307000000000000162,5.899934102013162374
0.308000000000000163,5.740087866155048957
0.309000000000000163,5.583414522319134043
0.310000000000000164,5.429842015463466787
0.311000000000000165,5.279300074810523213
0.312000000000000166,5.131720203009083825
0.313000000000000167,4.987035662763299015
0.314000000000000168,4.845181461076196960
0.315000000000000169,4.706094331255476604
0.316000000000000170,4.569712712828985168
0.317000000000000171,4.435976729516542427
0.318000000000000171,4.304828165403221440
0.319000000000000172,4.176210439457013202
0.320000000000000173,4.050068578531539565
0.321000000000000174,3.926349188991404837
0.322000000000000175,3.805000427094494597
0.323000000000000176,3.685971968261950060
0.324000000000000177,3.569214975362569042
0.325000000000000178,3.454682066134426410
0.326000000000000179,3.342327279861823541
0.327000000000000179,3.232106043421585362
0.328000000000000180,3.123975136807788822
0.329000000000000181,3.017892658239357040
0.330000000000000182,2.913817988950267779
0.331000000000000183,2.811711757757088037
0.332000000000000184,2.711535805493851203
0.333000000000000185,2.613253149399407338
0.334000000000000186,2.516827947537468191
0.335000000000000187,2.422225463324930494
0.336000000000000187,2.329412030239134346
0.337000000000000188,2.238355016770402717
0.338000000000000189,2.149022791681262756
0.339000000000000190,2.061384689629532474
0.340000000000000191,1.975410977208150287
0.341000000000000192,1.891072819450206222
0.342000000000000193,1.808342246843701817
0.343000000000000194,1.727192122896437088
0.344000000000000195,1.647596112287911696
0.345000000000000195,1.569528649640925755
0.346000000000000196,1.492964908942560731
0.347000000000000197,1.417880773640437964
0.348000000000000198,1.344252807437092523
0.349000000000000199,1.272058225802139564
0.350000000000000200,1.201274868218933811
0.351000000000000201,1.131881171179655254
0.352000000000000202,1.063856141940112021
0.353000000000000203,0.997179333042942817
0.354000000000000203,0.931830817615573181
0.355000000000000204,0.867791165447150625
0.356000000000000205,0.805041419846414641
0.357000000000000206,0.743563075280476382
0.358000000000000207,0.683338055792947707
0.359000000000000208,0.624348694197769949
0.360000000000000209,0.566577712043671800
0.361000000000000210,0.510008200342846996
0.362000000000000210,0.454623601055811677
0.363000000000000211,0.400407689323422411
0.364000000000000212,0.347344556435694507
0.365000000000000213,0.295418593526185158
0.366000000000000214,0.244614475979647500
0.367000000000000215,0.194917148539934165
0.368000000000000216,0.146311811104191336
0.369000000000000217,0.098783905188994631
0.370000000000000218,0.052319101053157513
0.371000000000000218,0.006903285461774144
0.372000000000000219,-0.037477449924695018
0.373000000000000220,-0.080836819552654510
0.374000000000000221,-0.123188354385662113
0.375000000000000222,-0.164545411739648650
0.376000000000000223,-0.204921184560433289
0.377000000000000224,-0.244328710160628015
0.378000000000000225,-0.282780878433396887
0.379000000000000226,-0.320290439560434126
0.380000000000000226,-0.356870011231661510
0.381000000000000227,-0.392532085393837826
0.382000000000000228,-0.427289034545506652
0.383000000000000229,-0.461153117595335948
0.384000000000000230,-0.494136485300838479
0.385000000000000231,-0.526251185304386637
0.386000000000000232,-0.557509166782969801
0.387000000000000233,-0.587922284728239930
0.388000000000000234,-0.617502303872781932
0.389000000000000234,-0.646260902278618987
0.390000000000000235,-0.674209674603374998
0.391000000000000236,-0.701360135059404088
0.392000000000000237,-0.727723720080776237
0.393000000000000238,-0.753311790712733353
0.394000000000000239,-0.778135634737788129
0.395000000000000240,-0.802206468552451701
0.396000000000000241,-0.825535438808028821
0.397000000000000242,-0.848133623828660310
0.398000000000000242,-0.870012034819449331
0.399000000000000243,-0.891181616876982496
0.400000000000000244,-0.911653249814370903
0.401000000000000245,-0.931437748812444566
0.402000000000000246,-0.950545864908297178
0.403000000000000247,-0.968988285332194721
0.404000000000000248,-0.986775633703275035
0.405000000000000249,-1.003918470094237403
0.406000000000000250,-1.020427290974732282
0.407000000000000250,-1.036312529042919817
0.408000000000000251,-1.051584552954186735
0.409000000000000252,-1.066253666955702561
0.410000000000000253,-1.080330110435172131
0.411000000000000254,-1.093824057391710847
0.412000000000000255,-1.106745615836481011
0.413000000000000256,-1.119104827130442459
0.414000000000000257,-1.130911665266053578
0.415000000000000258,-1.142176036099721292
0.416000000000000258,-1.152907776541169493
0.417000000000000259,-1.163116653705860370
0.418000000000000260,-1.172812364036099675
0.419000000000000261,-1.182004532396308205
0.420000000000000262,-1.190702711147528348
0.421000000000000263,-1.198916379206116822
0.422000000000000264,-1.206654941091086286
0.423000000000000265,-1.213927725964516924
0.424000000000000266,-1.220743986669116543
0.425000000000000266,-1.227112898766646865
0.426000000000000267,-1.233043559580939030
0.427000000000000268,-1.238544987248762608
0.428000000000000269,-1.243626119781708450
0.429000000000000270,-1.248295814142055260
0.430000000000000271,-1.252562845335231989
0.431000000000000272,-1.256435905521513963
0.432000000000000273,-1.259923603149178506
0.433000000000000274,-1.263034462111323641
0.434000000000000274,-1.265776920928284976
0.435000000000000275,-1.268159331957450897
0.436000000000000276,-1.270189960632130743
0.437000000000000277,-1.271876984730917926
0.438000000000000278,-1.273228493678894901
0.439000000000000279,-1.274252487881899931
0.440000000000000280,-1.274956878094838597
0.441000000000000281,-1.275349484825005320
0.442000000000000282,-1.275438037771258859
0.443000000000000282,-1.275230175299600921
0.444000000000000283,-1.274733443955898382
0.445000000000000284,-1.273955298016082649
0.446000000000000285,-1.272903099074220945
0.447000000000000286,-1.271584115668823012
0.448000000000000287,-1.270005522947397436
0.449000000000000288,-1.268174402369531384
0.450000000000000289,-1.266097741448361846
0.451000000000000290,-1.263782433530470595
0.452000000000000290,-1.261235277614067174
0.453000000000000291,-1.258462978205202587
0.454000000000000292,-1.255472145211844470
0.455000000000000293,-1.252269293875422296
0.456000000000000294,-1.248860844739522635
0.457000000000000295,-1.245253123655316374
0.458000000000000296,-1.241452361823194295
0.459000000000000297,-1.237464695870195586
0.460000000000000298,-1.233296167962594891
0.461000000000000298,-1.228952725953123437
0.462000000000000299,-1.224440223562182295
0.463000000000000300,-1.219764420592379661
0.464000000000000301,-1.214930983175767309
0.465000000000000302,-1.209945484053039921
0.466000000000000303,-1.204813402883961881
0.467000000000000304,-1.199540126588326983
0.468000000000000305,-1.194130949716642576
0.469000000000000306,-1.188591074849765672
0.470000000000000306,-1.182925613026781786
0.471000000000000307,-1.177139584200171507
0.472000000000000308,-1.171237917717610433
0.473000000000000309,-1.165225452829501629
0.474000000000000310,-1.159106939221423715
0.475000000000000311,-1.152887037570679230
0.476000000000000312,-1.146570320126137021
0.477000000000000313,-1.140161271310490942
0.478000000000000314,-1.133664288344110815
0.479000000000000314,-1.127083681889714972
0.480000000000000315,-1.120423676716938211
0.481000000000000316,-1.113688412386080184
0.482000000000000317,-1.106881943950107638
0.483000000000000318,-1.100008242674193060
0.484000000000000319,-1.093071196771912224
0.485000000000000320,-1.086074612157344799
0.486000000000000321,-1.079022213212270431
0.487000000000000322,-1.071917643567697587
0.488000000000000322,-1.064764466898876716
0.489000000000000323,-1.057566167733185791
0.490000000000000324,-1.050326152269983160
0.491000000000000325,-1.043047749211788666
0.492000000000000326,-1.035734210606000349
0.493000000000000327,-1.028388712696507223
0.494000000000000328,-1.021014356784413657
0.495000000000000329,-1.013614170097259404
0.496000000000000330,-1.006191106665985879
0.497000000000000330,-0.998748048209100681
0.498000000000000331,-0.991287805023212676
0.499000000000000332,-0.983813116879521887
0.500000000000000333,-0.976326653925480237
0.501000000000000334,-0.968831017591061938
0.502000000000000335,-0.961328741499103634
0.503000000000000336,-0.953822292379068903
0.504000000000000337,-0.946314070983737210
0.505000000000000338,-0.938806413008210328
0.506000000000000338,-0.931301590010764513
0.507000000000000339,-0.923801810334998530
0.508000000000000340,-0.916309220032746174
0.509000000000000341,-0.908825903787380818
0.510000000000000342,-0.901353885836873814
0.511000000000000343,-0.893895130896305568
0.512000000000000344,-0.886451545079266601
0.513000000000000345,-0.879024976817788350
0.514000000000000346,-0.871617217780398690
0.515000000000000346,-0.864230003787820777
0.516000000000000347,-0.856865015726003820
0.517000000000000348,-0.849523880456120262
0.518000000000000349,-0.842208171721074983
0.519000000000000350,-0.834919411048312576
0.520000000000000351,-0.827659068648455842
0.521000000000000352,-0.820428564309593988
0.522000000000000353,-0.813229268286773666
0.523000000000000353,-0.806062502186506658
0.524000000000000354,-0.798929539845969150
0.525000000000000355,-0.791831608206615578
0.526000000000000356,-0.784769888181955477
0.527000000000000357,-0.777745515519280173
0.528000000000000358,-0.770759581655034109
0.529000000000000359,-0.763813134563708251
0.530000000000000360,-0.756907179599918267
0.531000000000000361,-0.750042680333596445
0.532000000000000361,-0.743220559378004686
0.533000000000000362,-0.736441699210454659
0.534000000000000363,-0.729706942985515528
0.535000000000000364,-0.723017095340603211
0.536000000000000365,-0.716372923193739242
0.537000000000000366,-0.709775156533407170
0.538000000000000367,-0.703224489200281910
0.539000000000000368,-0.696721579660846135
0.540000000000000369,-0.690267051772611162
0.541000000000000369,-0.683861495541009612
0.542000000000000370,-0.677505467867702826
0.543000000000000371,-0.671199493290339899
0.544000000000000372,-0.664944064713615335
0.545000000000000373,-0.658739644131580926
0.546000000000000374,-0.652586663341132356
0.547000000000000375,-0.646485524646604914
0.548000000000000376,-0.640436601555469109
0.549000000000000377,-0.634440239465009270
0.550000000000000377,-0.628496756340023444
0.551000000000000378,-0.622606443381433783
0.552000000000000379,-0.616769565685860610
0.553000000000000380,-0.610986362896074997
0.554000000000000381,-0.605257049842325423
0.555000000000000382,-0.599581817174601683
0.556000000000000383,-0.593960831985682169
0.557000000000000384,-0.588394238425155036
0.558000000000000385,-0.582882158304227072
0.559000000000000385,-0.577424691691489134
0.560000000000000386,-0.572021917499556443
0.561000000000000387,-0.566673894062643013
0.562000000000000388,-0.561380659705062568
0.563000000000000389,-0.556142233300749189
0.564000000000000390,-0.550958614823736981
0.565000000000000391,-0.545829785889713204
0.566000000000000392,-0.540755710288628011
0.567000000000000393,-0.535736334508460477
0.568000000000000393,-0.530771588250113391
0.569000000000000394,-0.525861384933545617
0.570000000000000395,-0.521005622195181539
0.571000000000000396,-0.516204182376602594
0.572000000000000397,-0.511456933004677650
0.573000000000000398,-0.506763727263067176
0.574000000000000399,-0.502124404455284501
0.575000000000000400,-0.497538790459274849
0.576000000000000401,-0.493006698173640623
0.577000000000000401,-0.488527927955592189
0.578000000000000402,-0.484102268050627671
0.579000000000000403,-0.479729495014056817
0.580000000000000404,-0.475409374124482142
0.581000000000000405,-0.471141659789210021
0.582000000000000406,-0.466926095941782582
0.583000000000000407,-0.462762416431612089
0.584000000000000408,-0.458650345405868798
0.585000000000000409,-0.454589597683662805
0.586000000000000409,-0.450579879122603888
0.587000000000000410,-0.446620886977863285
0.588000000000000411,-0.442712310253738195
0.589000000000000412,-0.438853830047920390
0.590000000000000413,-0.435045119888424203
0.591000000000000414,-0.431285846063368894
0.592000000000000415,-0.427575667943646986
0.593000000000000416,-0.423914238298568891
0.594000000000000417,-0.420301203604572127
0.595000000000000417,-0.416736204347144479
0.596000000000000418,-0.413218875315908618
0.597000000000000419,-0.409748845893133429
0.598000000000000420,-0.406325740335605534
0.599000000000000421,-0.402949178050061085
0.600000000000000422,-0.399618773862201127
0.601000000000000423,-0.396334138279401893
0.602000000000000424,-0.393094877747226179
0.603000000000000425,-0.389900594899798114
0.604000000000000425,-0.386750888804135995
0.605000000000000426,-0.383645355198538429
0.606000000000000427,-0.380583586725152301
0.607000000000000428,-0.377565173156672818
0.608000000000000429,-0.374589701617501603
0.609000000000000430,-0.371656756799163490
0.610000000000000431,-0.368765921170342570
0.611000000000000432,-0.365916775181429066
0.612000000000000433,-0.363108897463739477
0.613000000000000433,-0.360341865023531882
0.614000000000000434,-0.357615253430829116
