# ZnO1m210NB_CS-8142-AC
# h[nm],U(h)[kJ/mol]
0.200000000000000011,64.567966001029745371
0.201000000000000012,63.238118481537753723
0.202000000000000013,61.990603388219973624
0.203000000000000014,60.779024004365837186
0.204000000000000015,59.579498076056324862
0.205000000000000016,58.381996270282321859
0.206000000000000016,57.184491140129068754
0.207000000000000017,55.989113646687293624
0.208000000000000018,54.799722645843431224
0.209000000000000019,53.620450844978606142
0.210000000000000020,52.454910041864607706
0.211000000000000021,51.305827936154642543
0.212000000000000022,50.174955434796899567
0.213000000000000023,49.063132582346433708
0.214000000000000024,47.970437239779045058
0.215000000000000024,46.896366658094734703
0.216000000000000025,45.840020644432613039
0.217000000000000026,44.800268013610661910
0.218000000000000027,43.775886917863928716
0.219000000000000028,42.765675560820724854
0.220000000000000029,41.768533564870033103
0.221000000000000030,40.783516500741399113
0.222000000000000031,39.809867270156829022
0.223000000000000032,38.847028499774580723
0.224000000000000032,37.894640106966548387
0.225000000000000033,36.952525914444173338
0.226000000000000034,36.020672747743851971
0.227000000000000035,35.099204934215109120
0.228000000000000036,34.188356592619612684
0.229000000000000037,33.288443595919453344
0.230000000000000038,32.399836628404081296
0.231000000000000039,31.522936353466654680
0.232000000000000040,30.658151364306764464
0.233000000000000040,29.805879305995080841
0.234000000000000041,28.966491330034319418
0.235000000000000042,28.140319866379918778
0.236000000000000043,27.327649566571260209
0.237000000000000044,26.528711178661030345
0.238000000000000045,25.743678053668553218
0.239000000000000046,24.972664948403643592
0.240000000000000047,24.215728775350708446
0.241000000000000048,23.472870952155638236
0.242000000000000048,22.744041017048459707
0.243000000000000049,22.029141198828064319
0.244000000000000050,21.328031657988439918
0.245000000000000051,20.640536146860856803
0.246000000000000052,19.966447869453570974
0.247000000000000053,19.305535354558596595
0.248000000000000054,18.657548187595757838
0.249000000000000055,18.022222476800521918
0.250000000000000056,17.399285957202799580
0.251000000000000056,16.788462661058424885
0.252000000000000057,16.189477105810635038
0.253000000000000058,15.602057970228287331
0.254000000000000059,15.025941246136785168
0.255000000000000060,14.460872867245299744
0.256000000000000061,13.906610828144957637
0.257000000000000062,13.362926815807393055
0.258000000000000063,12.829607383069653537
0.259000000000000064,12.306454698876413190
0.260000000000000064,11.793286913691378714
0.261000000000000065,11.289938180708899651
0.262000000000000066,10.796258374502114563
0.263000000000000067,10.312112548736971362
0.264000000000000068,9.837380173740216449
0.265000000000000069,9.371954193200487282
0.266000000000000070,8.915739937253512437
0.267000000000000071,8.468653926783966668
0.268000000000000071,8.030622601084221657
0.269000000000000072,7.601580998140900824
0.270000000000000073,7.181471413858770525
0.271000000000000074,6.770242063548186806
0.272000000000000075,6.367845766054566425
0.273000000000000076,5.974238668043868827
0.274000000000000077,5.589379023213096431
0.275000000000000078,5.213226038597720269
0.276000000000000079,4.845738797720025914
0.277000000000000079,4.486875268075765533
0.278000000000000080,4.136591398402621245
0.279000000000000081,3.794840309312971449
0.280000000000000082,3.461571579208273963
0.281000000000000083,3.136730625917176773
0.282000000000000084,2.820258183210008873
0.283000000000000085,2.512089870229645250
0.284000000000000086,2.212155850933043677
0.285000000000000087,1.920380579850372582
0.286000000000000087,1.636682629825515267
0.287000000000000088,1.360974596893734345
0.288000000000000089,1.093163077066024558
0.289000000000000090,0.833148709513743313
0.290000000000000091,0.580826280470836176
0.291000000000000092,0.336084882081275738
0.292000000000000093,0.098808120407838193
0.293000000000000094,-0.131125633126933039
0.294000000000000095,-0.353842952484103024
0.295000000000000095,-0.569475035392115969
0.296000000000000096,-0.778157354625219844
0.297000000000000097,-0.980029287197211163
0.298000000000000098,-1.175233726230792142
0.299000000000000099,-1.363916679983391500
0.300000000000000100,-1.546226862216035114
0.301000000000000101,-1.722315277789045584
0.302000000000000102,-1.892334807059818713
0.303000000000000103,-2.056439792349500806
0.304000000000000103,-2.214785629437913350
0.305000000000000104,-2.367528366744866553
0.306000000000000105,-2.514824314561673990
0.307000000000000106,-2.656829666411913315
0.308000000000000107,-2.793700134347149255
0.309000000000000108,-2.925590599722005081
0.310000000000000109,-3.052654780745652996
0.311000000000000110,-3.175044917872713590
0.312000000000000111,-3.292911477878412541
0.313000000000000111,-3.406402877258332573
0.314000000000000112,-3.515665225404565941
0.315000000000000113,-3.620842087836051437
0.316000000000000114,-3.722074269601938656
0.317000000000000115,-3.819499618832075782
0.318000000000000116,-3.913252850278380546
0.319000000000000117,-4.003465388573881789
0.320000000000000118,-4.090265230832457632
0.321000000000000119,-4.173776828121044780
0.322000000000000119,-4.254120985256575338
0.323000000000000120,-4.331414778311502900
0.324000000000000121,-4.405771489154398424
0.325000000000000122,-4.477300556303823065
0.326000000000000123,-4.546107541335186575
0.327000000000000124,-4.612294110049939277
0.328000000000000125,-4.675958027594168342
0.329000000000000126,-4.737193166698276059
0.330000000000000127,-4.796089528200801588
0.331000000000000127,-4.852733273016674787
0.332000000000000128,-4.907206764712745972
0.333000000000000129,-4.959588621860882895
0.334000000000000130,-5.009953779350330372
0.335000000000000131,-5.058373557856849168
0.336000000000000132,-5.104915740684263348
0.337000000000000133,-5.149644657215971755
0.338000000000000134,-5.192621272237800234
0.339000000000000135,-5.233903280419263560
0.340000000000000135,-5.273545205268413305
0.341000000000000136,-5.311598501903949554
0.342000000000000137,-5.348111663018585205
0.343000000000000138,-5.383130327438250262
0.344000000000000139,-5.416697390713117954
0.345000000000000140,-5.448853117207934638
0.346000000000000141,-5.479635253190729749
0.347000000000000142,-5.509079140450476864
0.348000000000000143,-5.537217830005646491
0.349000000000000143,-5.564082195496126815
0.350000000000000144,-5.589701045881509955
0.351000000000000145,-5.614101237098026331
0.352000000000000146,-5.637307782355472696
0.353000000000000147,-5.659343960783195016
0.354000000000000148,-5.680231424161434006
0.355000000000000149,-5.699990301500234224
0.356000000000000150,-5.718639301253278795
0.357000000000000151,-5.736195810977926079
0.358000000000000151,-5.752675994275714189
0.359000000000000152,-5.768094884869320538
0.360000000000000153,-5.782466477692848272
0.361000000000000154,-5.795803816891682558
0.362000000000000155,-5.808119080646918064
0.363000000000000156,-5.819423662756639359
0.364000000000000157,-5.829728250922586952
0.365000000000000158,-5.839042901706361199
0.366000000000000159,-5.847377112133092858
0.367000000000000159,-5.854739887934148790
0.368000000000000160,-5.861139808432438869
0.369000000000000161,-5.866585088085289001
0.370000000000000162,-5.871083634710155152
0.371000000000000163,-5.874643104428071361
0.372000000000000164,-5.877270953368084250
0.373000000000000165,-5.878974486184078252
0.374000000000000166,-5.879760901442184995
0.375000000000000167,-5.879637333943266597
0.376000000000000167,-5.878610894050700253
0.377000000000000168,-5.876688704098450344
0.378000000000000169,-5.873877931958672249
0.379000000000000170,-5.870185821851882757
0.380000000000000171,-5.865619722485730492
0.381000000000000172,-5.860187112610970139
0.382000000000000173,-5.853895624085342142
0.383000000000000174,-5.846753062537738188
0.384000000000000175,-5.838767425726024918
0.385000000000000175,-5.829946919682823747
0.386000000000000176,-5.820299972743975481
0.387000000000000177,-5.809835247554189230
0.388000000000000178,-5.798561651144598095
0.389000000000000179,-5.786488343175834714
0.390000000000000180,-5.773624742439900537
0.391000000000000181,-5.759980531712750818
0.392000000000000182,-5.745565661048372519
0.393000000000000183,-5.730390349603591282
0.394000000000000183,-5.714465086081276013
0.395000000000000184,-5.697800627877737334
0.396000000000000185,-5.680407999018222576
0.397000000000000186,-5.662298486962286326
0.398000000000000187,-5.643483638358778087
0.399000000000000188,-5.623975253827799392
0.400000000000000189,-5.603785381844726743
0.401000000000000190,-5.582926311799019103
0.402000000000000191,-5.561410566298121694
0.403000000000000191,-5.539250892784159497
0.404000000000000192,-5.516460254528881890
0.405000000000000193,-5.493051821069515839
0.406000000000000194,-5.469038958145934437
0.407000000000000195,-5.444435217196847532
0.408000000000000196,-5.419254324470305306
0.409000000000000197,-5.393510169801308152
0.410000000000000198,-5.367216795106864780
0.411000000000000199,-5.340388382646341192
0.412000000000000199,-5.313039243092640085
0.413000000000000200,-5.285183803457333518
0.414000000000000201,-5.256836594910573979
0.415000000000000202,-5.228012240534281929
0.416000000000000203,-5.198725443045034034
0.417000000000000204,-5.168990972520735916
0.418000000000000205,-5.138823654163136467
0.419000000000000206,-5.108238356126284074
0.420000000000000207,-5.077249977438741624
0.421000000000000207,-5.045873436045877902
0.422000000000000208,-5.014123656996163803
0.423000000000000209,-4.982015560794109454
0.424000000000000210,-4.949564051940350318
0.425000000000000211,-4.916784007677819979
0.426000000000000212,-4.883690266961489002
0.427000000000000213,-4.850297619667271576
0.428000000000000214,-4.816620796054547959
0.429000000000000214,-4.782674456495039195
0.430000000000000215,-4.748473181479575089
0.431000000000000216,-4.714031461912945531
0.432000000000000217,-4.679363689705704488
0.433000000000000218,-4.644484148670678714
0.434000000000000219,-4.609407005730829177
0.435000000000000220,-4.574146302443935497
0.436000000000000221,-4.538715946848623339
0.437000000000000222,-4.503129705635290136
0.438000000000000222,-4.467401196644544825
0.439000000000000223,-4.431543881694937959
0.440000000000000224,-4.395571059740943198
0.441000000000000225,-4.359495860361326969
0.442000000000000226,-4.323331237577521691
0.443000000000000227,-4.287089964000643683
0.444000000000000228,-4.250784625305476183
0.445000000000000229,-4.214427615028975893
0.446000000000000230,-4.178031129690328527
0.447000000000000230,-4.141607164229195170
0.448000000000000231,-4.105167507758205936
0.449000000000000232,-4.068723739625334623
0.450000000000000233,-4.032287225781560736
0.451000000000000234,-3.995869115448592801
0.452000000000000235,-3.959480338081409201
0.453000000000000236,-3.923131600619767401
0.454000000000000237,-3.886833385022886667
0.455000000000000238,-3.850595946080987098
0.456000000000000238,-3.814429309497345599
0.457000000000000239,-3.778343270234269191
0.458000000000000240,-3.742347391116273680
0.459000000000000241,-3.706451001683491508
0.460000000000000242,-3.670663197288465796
0.461000000000000243,-3.634992838429079054
0.462000000000000244,-3.599448550310627493
0.463000000000000245,-3.564038722629597089
0.464000000000000246,-3.528771509572140364
0.465000000000000246,-3.493654830019774060
0.466000000000000247,-3.458696367955104822
0.467000000000000248,-3.423903573060261607
0.468000000000000249,-3.389283661500823719
0.469000000000000250,-3.354843616887956959
0.470000000000000251,-3.320590191411633807
0.471000000000000252,-3.286529907137720752
0.472000000000000253,-3.252669057462019619
0.473000000000000254,-3.219013708714101973
0.474000000000000254,-3.185569701904175766
0.475000000000000255,-3.152342654606065331
0.476000000000000256,-3.119337962969668254
0.477000000000000257,-3.086560803856236213
0.478000000000000258,-3.054016137089967664
0.479000000000000259,-3.021708707819576567
0.480000000000000260,-2.989643048983539053
0.481000000000000261,-2.957823483872853210
0.482000000000000262,-2.926254128785366060
0.483000000000000262,-2.894938895765748477
0.484000000000000263,-2.863881495425357748
0.485000000000000264,-2.833085439836417141
0.486000000000000265,-2.802554045495040391
0.487000000000000266,-2.772290436347731202
0.488000000000000267,-2.742297546876216519
0.489000000000000268,-2.712578125235568294
0.490000000000000269,-2.683134736440670132
0.491000000000000270,-2.653969765596339681
0.492000000000000270,-2.625085421166425181
0.493000000000000271,-2.596483738277462372
0.494000000000000272,-2.568166582052547220
0.495000000000000273,-2.540135650971213188
0.496000000000000274,-2.512392480251342430
0.497000000000000275,-2.484938445249111449
0.498000000000000276,-2.457774764873318141
0.499000000000000277,-2.430902505010383852
0.500000000000000222,-2.404322581956569671
0.501000000000000334,-2.378035765854062511
0.502000000000000224,-2.352042684127735317
0.503000000000000336,-2.326343824919392400
0.504000000000000226,-2.300939540516702575
0.505000000000000338,-2.275830050773789193
0.506000000000000227,-2.251015446520984398
0.507000000000000339,-2.226495692960943185
0.508000000000000229,-2.202270633048838633
0.509000000000000341,-2.178339990854117669
0.510000000000000231,-2.154703374901779434
0.511000000000000343,-2.131360281490820796
0.512000000000000233,-2.108310097988051801
0.513000000000000345,-2.085552106095188485
0.514000000000000234,-2.063085485087630122
0.515000000000000346,-2.040909315022950921
0.516000000000000236,-2.019022579917789439
0.517000000000000348,-1.997424170891402451
0.518000000000000238,-1.976112889274633133
0.519000000000000350,-1.955087449682850531
0.520000000000000240,-1.934346483051724075
0.521000000000000352,-1.913888539634641672
0.522000000000000242,-1.893712091960715771
0.523000000000000353,-1.873815537752404170
0.524000000000000243,-1.854197202801836086
0.525000000000000355,-1.834855343805022132
0.526000000000000245,-1.815788151153217012
0.527000000000000357,-1.796993751680679763
0.528000000000000247,-1.778470211368337939
0.529000000000000359,-1.760215538002664060
0.530000000000000249,-1.742227683789428383
0.531000000000000361,-1.724504547921762221
0.532000000000000250,-1.707043979102303766
0.533000000000000362,-1.689843778018996545
0.534000000000000252,-1.672901699774373752
0.535000000000000364,-1.656215456268087083
0.536000000000000254,-1.639782718532562189
0.537000000000000366,-1.623601119021598205
0.538000000000000256,-1.607668253851998630
0.539000000000000368,-1.591981684998042379
0.540000000000000258,-1.576538942439010604
0.541000000000000369,-1.561337526259653607
0.542000000000000259,-1.546374908703884277
0.543000000000000371,-1.531648536181689169
0.544000000000000261,-1.517155831229546559
0.545000000000000373,-1.502894194424498231
0.546000000000000263,-1.488861006252172325
0.547000000000000375,-1.475053628928933547
0.548000000000000265,-1.461469408178631024
0.549000000000000377,-1.448105674964064615
0.550000000000000266,-1.434959747173708111
0.551000000000000378,-1.422028931263932261
0.552000000000000268,-1.409310523857215891
0.553000000000000380,-1.396801813296696171
0.554000000000000270,-1.384500081157570950
0.555000000000000382,-1.372402603715714653
0.556000000000000272,-1.360506653374108144
0.557000000000000384,-1.348809500047413845
0.558000000000000274,-1.337308412505382904
0.559000000000000385,-1.326000659675437232
0.560000000000000275,-1.314883511905099667
0.561000000000000387,-1.303954242184712786
0.562000000000000277,-1.293210127331067438
0.563000000000000389,-1.282648449132455237
0.564000000000000279,-1.272266495455758095
0.565000000000000391,-1.262061561316113467
0.566000000000000281,-1.252030949909768598
0.567000000000000393,-1.242171973610693536
0.568000000000000282,-1.232481954931592405
0.569000000000000394,-1.222958227449835844
0.570000000000000284,-1.213598136698997632
0.571000000000000396,-1.204399041026556816
0.572000000000000286,-1.195358312418412838
0.573000000000000398,-1.186473337290751662
0.574000000000000288,-1.177741517249969672
0.575000000000000400,-1.169160269821206910
0.576000000000000290,-1.160727029146110034
0.577000000000000401,-1.152439246650460491
0.578000000000000291,-1.144294391682253664
0.579000000000000403,-1.136289952120848046
0.580000000000000293,-1.128423434957805060
0.581000000000000405,-1.120692366849989074
0.582000000000000295,-1.113094294645583737
0.583000000000000407,-1.105626785883561558
0.584000000000000297,-1.098287429267252424
0.585000000000000409,-1.091073835112576162
0.586000000000000298,-1.083983635771529563
0.587000000000000410,-1.077014486031522944
0.588000000000000300,-1.070164063491126027
0.589000000000000412,-1.063430068912802451
0.590000000000000302,-1.056810226553197118
0.591000000000000414,-1.050302284471562375
0.592000000000000304,-1.043904014816832815
0.593000000000000416,-1.037613214093923819
0.594000000000000306,-1.031427703409818486
0.595000000000000417,-1.025345328699930336
0.596000000000000307,-1.019363960935307345
0.597000000000000419,-1.013481496311189556
0.598000000000000309,-1.007695856417454738
0.599000000000000421,-1.002004988391401730
0.600000000000000311,-0.996406865053471313
0.601000000000000423,-0.990899485026297655
0.602000000000000313,-0.985480872837661837
0.603000000000000425,-0.980149079007752611
0.604000000000000314,-0.974902180121294371
0.605000000000000426,-0.969738278884907046
0.606000000000000316,-0.964655504170257361
0.607000000000000428,-0.959652011043352404
0.608000000000000318,-0.954725980780519068
0.609000000000000430,-0.949875620871411308
0.610000000000000320,-0.945099165009543940
0.611000000000000432,-0.940394873070722115
0.612000000000000322,-0.935761031079815231
0.613000000000000433,-0.931195951166252534
0.614000000000000323,-0.926697971508660290
0.615000000000000435,-0.922265456269011130
0.616000000000000325,-0.917896795516673136
0.617000000000000437,-0.913590405142733708
0.618000000000000327,-0.909344726764979017
0.619000000000000439,-0.905158227623842238
0.620000000000000329,-0.901029400469734454
0.621000000000000441,-0.896956763442056326
0.622000000000000330,-0.892938859940238805
0.623000000000000442,-0.888974258487156055
0.624000000000000332,-0.885061552585205247
0.625000000000000444,-0.881199360565405043
0.626000000000000334,-0.877386325429783454
0.627000000000000446,-0.873621114687378131
0.628000000000000336,-0.869902420184136771
0.629000000000000448,-0.866228957927006271
0.630000000000000338,-0.862599467902484873
0.631000000000000449,-0.859012713889920065
0.632000000000000339,-0.855467483269806372
0.633000000000000451,-0.851962586827358259
0.634000000000000341,-0.848496858551589073
0.635000000000000453,-0.845069155430182795
0.636000000000000343,-0.841678357240337349
0.637000000000000455,-0.838323366335885112
0.638000000000000345,-0.835003107430867475
0.639000000000000457,-0.831716527379789738
0.640000000000000346,-0.828462594954817333
0.641000000000000458,-0.825240300620054823
0.642000000000000348,-0.822048656303178027
0.643000000000000460,-0.818886695164566580
0.644000000000000350,-0.815753471364166538
0.645000000000000462,-0.812648059826247660
0.646000000000000352,-0.809569556002249668
0.647000000000000464,-0.806517075631882463
0.648000000000000353,-0.803489754502678677
0.649000000000000465,-0.800486748208119048
0.650000000000000355,-0.797507231904546643
0.651000000000000467,-0.794550400066970530
0.652000000000000357,-0.791615466243968946
0.653000000000000469,-0.788701662811776338
0.654000000000000359,-0.785808240727759566
0.655000000000000471,-0.782934469283359746
0.656000000000000361,-0.780079635856684050
0.657000000000000473,-0.777243045664839038
0.658000000000000362,-0.774424021516159078
0.659000000000000474,-0.771621903562415001
0.660000000000000364,-0.768836049051161985
0.661000000000000476,-0.766065832078295816
0.662000000000000366,-0.763310643340951889
0.663000000000000478,-0.760569889890847839
