# ZnO1m210NB_CS-8898-AC
# h[nm],U(h)[kJ/mol]
0.149999999999999994,102.086241602404840023
0.150999999999999995,100.341361257225770487
0.151999999999999996,99.050550650218667670
0.152999999999999997,97.872583822282095412
0.153999999999999998,96.678901059633432169
0.154999999999999999,95.441807407922809148
0.156000000000000000,94.173809859477742634
0.157000000000000001,92.897179243587586939
0.158000000000000002,91.630646689039139119
0.159000000000000002,90.385240819938971413
0.160000000000000003,89.164540067553474501
0.161000000000000004,87.966670131838455404
0.162000000000000005,86.786637892156278440
0.163000000000000006,85.618341718726782119
0.164000000000000007,84.456022175157102083
0.165000000000000008,83.295140497738799468
0.166000000000000009,82.132775573914983624
0.167000000000000010,80.967664876936893847
0.168000000000000010,79.800013059090403544
0.169000000000000011,78.631173098684485012
0.170000000000000012,77.463280302232220720
0.171000000000000013,76.298895192163655565
0.172000000000000014,75.140690306488664874
0.173000000000000015,73.991199276702474208
0.174000000000000016,72.852634271119967480
0.175000000000000017,71.726769506776832941
0.176000000000000018,70.614883345712684104
0.177000000000000018,69.517748768187871633
0.178000000000000019,68.435661083127939719
0.179000000000000020,67.368492023712349237
0.180000000000000021,66.315760426191062038
0.181000000000000022,65.276711154219114519
0.182000000000000023,64.250395556330630598
0.183000000000000024,63.235748356944043280
0.184000000000000025,62.231657370558096432
0.185000000000000026,61.237023731304006446
0.186000000000000026,60.250811417290108807
0.187000000000000027,59.272085716946392608
0.188000000000000028,58.300040944460228332
0.189000000000000029,57.334018184531316820
0.190000000000000030,56.373514159061372197
0.191000000000000031,55.418182487581510998
0.192000000000000032,54.467828686096730451
0.193000000000000033,53.522400240403626981
0.194000000000000034,52.581973021788122935
0.195000000000000034,51.646735204099158523
0.196000000000000035,50.716969707058794370
0.197000000000000036,49.793036043762626264
0.198000000000000037,48.875352300301706521
0.199000000000000038,47.964377829490615568
0.200000000000000039,47.060597103918567541
0.201000000000000040,46.164505049305759599
0.202000000000000041,45.276594069407366305
0.203000000000000042,44.397342879315807807
0.204000000000000042,43.527207184988910171
0.205000000000000043,42.666612182587769553
0.206000000000000044,41.815946800727957111
0.207000000000000045,40.975559570750192506
0.208000000000000046,40.145755983166985459
0.209000000000000047,39.326797171052618296
0.210000000000000048,38.518899751841864543
0.211000000000000049,37.722236656380616182
0.212000000000000050,36.936938776816717223
0.213000000000000050,36.163097271851057712
0.214000000000000051,35.400766377923730488
0.215000000000000052,34.649966587175654809
0.216000000000000053,33.910688066713021271
0.217000000000000054,33.182894208153598470
0.218000000000000055,32.466525211111104454
0.219000000000000056,31.761501618746155629
0.220000000000000057,31.067727737440804958
0.221000000000000058,30.385094885794604380
0.222000000000000058,29.713484430306539963
0.223000000000000059,29.052770576192223473
0.224000000000000060,28.402822891716557052
0.225000000000000061,27.763508553182173699
0.226000000000000062,27.134694305309579931
0.227000000000000063,26.516248138215793517
0.228000000000000064,25.908040687600767171
0.229000000000000065,25.309946369153006884
0.230000000000000066,24.721844261672451637
0.231000000000000066,24.143618756060664765
0.232000000000000067,23.575159989237352676
0.233000000000000068,23.016364083293943565
0.234000000000000069,22.467133210876145455
0.235000000000000070,21.927375507979554925
0.236000000000000071,21.397004855123476830
0.237000000000000072,20.875940547308207584
0.238000000000000073,20.364106872327820241
0.239000000000000073,19.861432615962815618
0.240000000000000074,19.367850511365670485
0.241000000000000075,18.883296648629105619
0.242000000000000076,18.407709859127812990
0.243000000000000077,17.941031087788037013
0.244000000000000078,17.483202764994466349
0.245000000000000079,17.034168188415911516
0.246000000000000080,16.593870923640690052
0.247000000000000081,16.162254231176113706
0.248000000000000081,15.739260526096680692
0.249000000000000082,15.324830875433301358
0.250000000000000111,14.918904537286096001
0.251000000000000112,14.521418544622587632
0.252000000000000113,14.132307335791491454
0.253000000000000114,13.751502432943485843
0.254000000000000115,13.378932168799332558
0.255000000000000115,13.014521461544450887
0.256000000000000116,12.658191637051292133
0.257000000000000117,12.309860297134324725
0.258000000000000118,11.969441232122816743
0.259000000000000119,11.636844375687736886
0.260000000000000120,11.311975799576817536
0.261000000000000121,10.994737745691235631
0.262000000000000122,10.685028692771586734
0.263000000000000123,10.382743454846449893
0.264000000000000123,10.087773308526839955
0.265000000000000124,9.800006146200946233
0.266000000000000125,9.519326652189198157
0.267000000000000126,9.245616498957071272
0.268000000000000127,8.978754560545816332
0.269000000000000128,8.718617140467801008
0.270000000000000129,8.465078211417329968
0.271000000000000130,8.218009664267611925
0.272000000000000131,7.977281563956802657
0.273000000000000131,7.742762410006915452
0.274000000000000132,7.514319399567499502
0.275000000000000133,7.291818691028067789
0.276000000000000134,7.075125666397729773
0.277000000000000135,6.864105190805832812
0.278000000000000136,6.658621867630934332
0.279000000000000137,6.458540287917264422
0.280000000000000138,6.263725272885854345
0.281000000000000139,6.074042108490608882
0.282000000000000139,5.889356771108149147
0.283000000000000140,5.709536143581915191
0.284000000000000141,5.534448220967017384
0.285000000000000142,5.363962305440825418
0.286000000000000143,5.197949189956041494
0.287000000000000144,5.036281330317446958
0.288000000000000145,4.878833005460131211
0.289000000000000146,4.725480465797192942
0.290000000000000147,4.576102069586626797
0.291000000000000147,4.430578407342744107
0.292000000000000148,4.288792414385166119
0.293000000000000149,4.150629471680193916
0.294000000000000150,4.015977495183837398
0.295000000000000151,3.884727013944435647
0.296000000000000152,3.756771237265323471
0.297000000000000153,3.632006111264848069
0.298000000000000154,3.510330365202521730
0.299000000000000155,3.391645547966565033
0.300000000000000155,3.275856055139782175
0.301000000000000156,3.162869147078239518
0.302000000000000157,3.052594958450230767
0.303000000000000158,2.944946499692835840
0.304000000000000159,2.839839650849253161
0.305000000000000160,2.737193148253262542
0.306000000000000161,2.636928564527109664
0.307000000000000162,2.538970282356711294
0.308000000000000163,2.443245462503380594
0.309000000000000163,2.349684006504358713
0.310000000000000164,2.258218514505849761
0.311000000000000165,2.168784238662076369
0.312000000000000166,2.081319032522177981
0.313000000000000167,1.995763296814111687
0.314000000000000168,1.912059922020918235
0.315000000000000169,1.830154228130123073
0.316000000000000170,1.749993901921766737
0.317000000000000171,1.671528932144911606
0.318000000000000171,1.594711542916288582
0.319000000000000172,1.519496125658274632
0.320000000000000173,1.445839169877020769
0.321000000000000174,1.373699193064897628
0.322000000000000175,1.303036669994850794
0.323000000000000176,1.233813961657984182
0.324000000000000177,1.165995244079372384
0.325000000000000178,1.099546437231321061
0.326000000000000179,1.034435134247491561
0.327000000000000179,0.970630531126267515
0.328000000000000180,0.908103357096847530
0.329000000000000181,0.846825805807041809
0.330000000000000182,0.786771467478133535
0.331000000000000183,0.727915262158419063
0.332000000000000184,0.670233374194446285
0.333000000000000185,0.613703188026475388
0.334000000000000186,0.558303225402861258
0.335000000000000187,0.504013084096894937
0.336000000000000187,0.450813378198763270
0.337000000000000188,0.398685680045392343
0.338000000000000189,0.347612463841003805
0.339000000000000190,0.297577051012340221
0.340000000000000191,0.248563557334031821
0.341000000000000192,0.200556841851328438
0.342000000000000193,0.153542457620185896
0.343000000000000194,0.107506604277427226
0.344000000000000195,0.062436082447567008
0.345000000000000195,0.018318249986346541
0.346000000000000196,-0.024859019944046646
0.347000000000000197,-0.067107378978601404
0.348000000000000198,-0.108438041847007186
0.349000000000000199,-0.148861822884488459
0.350000000000000200,-0.188389170779301812
0.351000000000000201,-0.227030201583758362
0.352000000000000202,-0.264794730018780788
0.353000000000000203,-0.301692299104977024
0.354000000000000203,-0.337732208155619662
0.355000000000000204,-0.372923539169151108
0.356000000000000205,-0.407275181660836538
0.357000000000000206,-0.440795855974895567
0.358000000000000207,-0.473494135119590986
0.359000000000000208,-0.505378465169272983
0.360000000000000209,-0.536457184278134713
0.361000000000000210,-0.566738540351105713
0.362000000000000210,-0.596230707418080152
0.363000000000000211,-0.624941800757794819
0.364000000000000212,-0.652879890818079067
0.365000000000000213,-0.680053015979058428
0.366000000000000214,-0.706469194205950002
0.367000000000000215,-0.732136433637696427
0.368000000000000216,-0.757062742157543545
0.369000000000000217,-0.781256135990942013
0.370000000000000218,-0.804724647375866242
0.371000000000000218,-0.827476331349742411
0.372000000000000219,-0.849519271696668410
0.373000000000000220,-0.870861586097681495
0.374000000000000221,-0.891511430525991910
0.375000000000000222,-0.911477002928135605
0.376000000000000223,-0.930766546231229341
0.377000000000000224,-0.949388350715213214
0.378000000000000225,-0.967350755788155658
0.379000000000000226,-0.984662151201477820
0.380000000000000226,-1.001330977741028416
0.381000000000000227,-1.017365727428558797
0.382000000000000228,-1.032774943267331214
0.383000000000000229,-1.047567218564216862
0.384000000000000230,-1.061751195859575780
0.385000000000000231,-1.075335565495169732
0.386000000000000232,-1.088329063848990641
0.387000000000000233,-1.100740471265018838
0.388000000000000234,-1.112578609704523824
0.389000000000000234,-1.123852340144678053
0.390000000000000235,-1.134570559748884433
0.391000000000000236,-1.144742198832354729
0.392000000000000237,-1.154376217645219027
0.393000000000000238,-1.163481602994563380
0.394000000000000239,-1.172067364725563943
0.395000000000000240,-1.180142532081086548
0.396000000000000241,-1.187716149957964484
0.397000000000000242,-1.194797275077248644
0.398000000000000242,-1.201394972084872226
0.399000000000000243,-1.207518309598081263
0.400000000000000244,-1.213176356212251950
0.401000000000000245,-1.218378176481815567
0.402000000000000246,-1.223132826888042146
0.403000000000000247,-1.227449351805853350
0.404000000000000248,-1.231336779480843635
0.405000000000000249,-1.234804118027070796
0.406000000000000250,-1.237860351455331243
0.407000000000000250,-1.240514435741068233
0.408000000000000251,-1.242775294940249076
0.409000000000000252,-1.244651817360992840
0.410000000000000253,-1.246152851798062677
0.411000000000000254,-1.247287203836752845
0.412000000000000255,-1.248063632232103704
0.413000000000000256,-1.248490845368914526
0.414000000000000257,-1.248577497807318526
0.415000000000000258,-1.248332186918463593
0.416000000000000258,-1.247763449614050391
0.417000000000000259,-1.246879759173302293
0.418000000000000260,-1.245689522170329244
0.419000000000000261,-1.244201075504530518
0.420000000000000262,-1.242422683536247519
0.421000000000000263,-1.240362535329585292
0.422000000000000264,-1.238028742003833171
0.423000000000000265,-1.235429334194746431
0.424000000000000266,-1.232572259626587563
0.425000000000000266,-1.229465380795435214
0.426000000000000267,-1.226116472764182896
0.427000000000000268,-1.222533221069234122
0.428000000000000269,-1.218723219738733876
0.429000000000000270,-1.214693969421983377
0.430000000000000271,-1.210452875629363101
0.431000000000000272,-1.206007247082054423
0.432000000000000273,-1.201364294170508717
0.433000000000000274,-1.196531127520597426
0.434000000000000274,-1.191514756666089525
0.435000000000000275,-1.186322088826065269
0.436000000000000276,-1.180959927785703911
0.437000000000000277,-1.175434972878732331
0.438000000000000278,-1.169753818069795281
0.439000000000000279,-1.163922951134852557
0.440000000000000280,-1.157948752937616899
0.441000000000000281,-1.151837496799996252
0.442000000000000282,-1.145595347964479815
0.443000000000000282,-1.139228363146187029
0.444000000000000283,-1.132742490172469862
0.445000000000000284,-1.126143567707730941
0.446000000000000285,-1.119437325061129140
0.447000000000000286,-1.112629382074951767
0.448000000000000287,-1.105725249091120022
0.449000000000000288,-1.098730326993612838
0.450000000000000289,-1.091649907324287128
0.451000000000000290,-1.084489172469761842
0.452000000000000290,-1.077253195916957562
0.453000000000000291,-1.069946942574843796
0.454000000000000292,-1.062575269160054736
0.455000000000000293,-1.055142924643936109
0.456000000000000294,-1.047654550758684078
0.457000000000000295,-1.040114682560210335
0.458000000000000296,-1.032527749045379029
0.459000000000000297,-1.024898073821339128
0.460000000000000298,-1.017229875824626095
0.461000000000000298,-1.009527270087811957
0.462000000000000299,-1.001794268551459144
0.463000000000000300,-0.994034780919162864
0.464000000000000301,-0.986252615553575018
0.465000000000000302,-0.978451480411248853
0.466000000000000303,-0.970634984014218660
0.467000000000000304,-0.962806636456294385
0.468000000000000305,-0.954969850442051738
0.469000000000000306,-0.947127942356536856
0.470000000000000306,-0.939284133363839979
0.471000000000000307,-0.931441550532535856
0.472000000000000308,-0.923603227986295239
0.473000000000000309,-0.915772108077780644
0.474000000000000310,-0.907951042584137502
0.475000000000000311,-0.900142793922345197
0.476000000000000312,-0.892350036382833833
0.477000000000000313,-0.884575357379695837
0.478000000000000314,-0.876821258715959728
0.479000000000000314,-0.869090157862446588
0.480000000000000315,-0.861384389248667781
0.481000000000000316,-0.853706205564421894
0.482000000000000317,-0.846057779070635951
0.483000000000000318,-0.838441202918187578
0.484000000000000319,-0.830858492473362964
0.485000000000000320,-0.823311586648746596
0.486000000000000321,-0.815802349238322733
0.487000000000000322,-0.808332570255643978
0.488000000000000322,-0.800903967273908890
0.489000000000000323,-0.793518186766961620
0.490000000000000324,-0.786176805450096050
0.491000000000000325,-0.778881331619729944
0.492000000000000326,-0.771633206490946244
0.493000000000000327,-0.764433805532063859
0.494000000000000328,-0.757284439795292696
0.495000000000000329,-0.750186357242689228
0.496000000000000330,-0.743140744066566938
0.497000000000000330,-0.736148726003684417
0.498000000000000331,-0.729211369642351448
0.499000000000000332,-0.722329683721915194
0.500000000000000333,-0.715504620423871085
0.501000000000000334,-0.708737076653976450
0.502000000000000335,-0.702027895314836003
0.503000000000000336,-0.695377866568352654
0.504000000000000337,-0.688787729087522838
0.505000000000000338,-0.682258171297089766
0.506000000000000338,-0.675789832602579521
0.507000000000000339,-0.669383304607280016
0.508000000000000340,-0.663039132316727953
0.509000000000000341,-0.656757815330387684
0.510000000000000342,-0.650539809020058368
0.511000000000000343,-0.644385525694773142
0.512000000000000344,-0.638295335751804416
0.513000000000000345,-0.632269568813529359
0.514000000000000346,-0.626308514849912901
0.515000000000000346,-0.620412425286284375
0.516000000000000347,-0.614581514096274706
0.517000000000000348,-0.608815958879686758
0.518000000000000349,-0.603115901925079245
0.519000000000000350,-0.597481451256977714
0.520000000000000351,-0.591912681667490004
0.521000000000000352,-0.586409635732293655
0.522000000000000353,-0.580972324810792862
0.523000000000000353,-0.575600730030425667
0.524000000000000354,-0.570294803255031901
0.525000000000000355,-0.565054468037198832
0.526000000000000356,-0.559879620554556423
0.527000000000000357,-0.554770130530026551
0.528000000000000358,-0.549725842135927345
0.529000000000000359,-0.544746574882039036
0.530000000000000360,-0.539832124487527931
0.531000000000000361,-0.534982263736845987
0.532000000000000361,-0.530196743319571562
0.533000000000000362,-0.525475292654279391
0.534000000000000363,-0.520817620696454209
0.535000000000000364,-0.516223416730555718
0.536000000000000365,-0.511692351146259994
0.537000000000000366,-0.507224076199008445
0.538000000000000367,-0.502818226754891517
0.539000000000000368,-0.498474421020058345
0.540000000000000369,-0.494192261254635945
0.541000000000000369,-0.489971334471403286
0.542000000000000370,-0.485811213119217711
0.543000000000000371,-0.481711455751405837
0.544000000000000372,-0.477671607679211629
0.545000000000000373,-0.473691201610450752
0.546000000000000374,-0.469769758273498095
0.547000000000000375,-0.465906787026773739
0.548000000000000376,-0.462101786453879615
0.549000000000000377,-0.458354244944524425
0.550000000000000377,-0.454663641261415452
0.551000000000000378,-0.451029445093261594
0.552000000000000379,-0.447451117594086623
0.553000000000000380,-0.443928111908984402
0.554000000000000381,-0.440459873686500802
0.555000000000000382,-0.437045841577857530
0.556000000000000383,-0.433685447723105910
0.557000000000000384,-0.430378118224504447
0.558000000000000385,-0.427123273607189102
0.559000000000000385,-0.423920329267403251
0.560000000000000386,-0.420768695908431911
0.561000000000000387,-0.417667779964430053
0.562000000000000388,-0.414616984012327106
0.563000000000000389,-0.411615707172025225
0.564000000000000390,-0.408663345495029584
0.565000000000000391,-0.405759292341739741
0.566000000000000392,-0.402902938747566330
0.567000000000000393,-0.400093673778086356
0.568000000000000393,-0.397330884873384638
0.569000000000000394,-0.394613958181816216
0.570000000000000395,-0.391942278883350537
0.571000000000000396,-0.389315231502669890
0.572000000000000397,-0.386732200212271837
0.573000000000000398,-0.384192569125667183
0.574000000000000399,-0.381695722580960850
0.575000000000000400,-0.379241045414905720
0.576000000000000401,-0.376827923227679717
0.577000000000000401,-0.374455742638554301
0.578000000000000402,-0.372123891532606332
0.579000000000000403,-0.369831759298670903
0.580000000000000404,-0.367578737058750882
0.581000000000000405,-0.365364217888979215
0.582000000000000406,-0.363187597032395615
0.583000000000000407,-0.361048272103642653
0.584000000000000408,-0.358945643285802862
0.585000000000000409,-0.356879113519517455
0.586000000000000409,-0.354848088684563412
0.587000000000000410,-0.352851977774078118
0.588000000000000411,-0.350890193061538125
0.589000000000000412,-0.348962150260750170
0.590000000000000413,-0.347067268678904362
0.591000000000000414,-0.345204971362939761
0.592000000000000415,-0.343374685239345612
0.593000000000000416,-0.341575841247534151
0.594000000000000417,-0.339807874466964588
0.595000000000000417,-0.338070224238196049
0.596000000000000418,-0.336362334277924779
0.597000000000000419,-0.334683652788281383
0.598000000000000420,-0.333033632560413739
0.599000000000000421,-0.331411731072589422
0.600000000000000422,-0.329817410582903037
0.601000000000000423,-0.328250138216742815
0.602000000000000424,-0.326709386049171047
0.603000000000000425,-0.325194631182336713
0.604000000000000425,-0.323705355818036333
0.605000000000000426,-0.322241047325585561
0.606000000000000427,-0.320801198305138702
0.607000000000000428,-0.319385306646489009
0.608000000000000429,-0.317992875583648471
0.609000000000000430,-0.316623413745108939
0.610000000000000431,-0.315276435200123717
0.611000000000000432,-0.313951459500955654
0.612000000000000433,-0.312648011721288477
0.613000000000000433,-0.311365622490929084
0.614000000000000434,-0.310103828026855599
