# ZnO1m210NB_CS-11227-AC
# h[nm],U(h)[kJ/mol]
0.149999999999999994,99.034907076961943062
0.150999999999999995,97.536941091876869336
0.151999999999999996,96.386056796799294943
0.152999999999999997,95.289219538635407503
0.153999999999999998,94.149073857902621398
0.154999999999999999,92.956506061925352924
0.156000000000000000,91.733854995102376506
0.157000000000000001,90.507579512122930510
0.158000000000000002,89.297266013325724998
0.159000000000000002,88.113075159242541190
0.160000000000000003,86.957039228091645100
0.161000000000000004,85.825680832746130022
0.162000000000000005,84.712669027205407701
0.163000000000000006,83.610954120809623191
0.164000000000000007,82.514222410326922841
0.165000000000000008,81.417713778408113967
0.166000000000000009,80.318530580589793999
0.167000000000000010,79.215587117773281989
0.168000000000000010,78.109337032150421010
0.169000000000000011,77.001390024572714310
0.170000000000000012,75.894099997750259945
0.171000000000000013,74.790179594099114979
0.172000000000000014,73.692373550894927803
0.173000000000000015,72.603205999704954365
0.174000000000000016,71.524804507824939037
0.175000000000000017,70.458795572436429211
0.176000000000000018,69.406261565694563842
0.177000000000000018,68.367746943404426929
0.178000000000000019,67.343301124959481285
0.179000000000000020,66.332546213833268212
0.180000000000000021,65.334759177531594787
0.181000000000000022,64.348959888287282638
0.182000000000000023,63.373998290548968271
0.183000000000000024,62.408635742731142670
0.184000000000000025,61.451617178429522426
0.185000000000000026,60.501732094545744189
0.186000000000000026,59.557863483125103699
0.187000000000000027,58.619024685967907828
0.188000000000000028,57.684384786486944563
0.189000000000000029,56.753283590119146140
0.190000000000000030,55.825237514504408409
0.191000000000000031,54.899937845458474328
0.192000000000000032,53.977242844480485928
0.193000000000000033,53.057165145070733558
0.194000000000000034,52.139855771759684444
0.195000000000000034,51.225585976899864704
0.196000000000000035,50.314727931670901739
0.197000000000000036,49.407735141697251890
0.198000000000000037,48.505123293441080534
0.199000000000000038,47.607452081772052566
0.200000000000000039,46.715308426323346680
0.201000000000000040,45.829291357141201502
0.202000000000000041,44.949998740066959613
0.203000000000000042,44.078015919530599831
0.204000000000000042,43.213906280480372857
0.205000000000000043,42.358203670977523814
0.206000000000000044,41.511406581143553751
0.207000000000000045,40.673973941056395631
0.208000000000000046,39.846322378160479616
0.209000000000000047,39.028824762096832046
0.210000000000000048,38.221809859953410182
0.211000000000000049,37.425562926275006248
0.212000000000000050,36.640327058381174652
0.213000000000000050,35.866305157407133208
0.214000000000000051,35.103662347939604160
0.215000000000000052,34.352528723266672728
0.216000000000000053,33.613002298340049379
0.217000000000000054,32.885152067940872200
0.218000000000000055,32.169021082755186569
0.219000000000000056,31.464629470720762328
0.220000000000000057,30.771977344817777578
0.221000000000000058,30.091047551247346092
0.222000000000000058,29.421808223537873062
0.223000000000000059,28.764215118477778788
0.224000000000000060,28.118213718864488726
0.225000000000000061,27.483741095904075991
0.226000000000000062,26.860727530734784807
0.227000000000000063,26.249097900047917875
0.228000000000000064,25.648772835223070388
0.229000000000000065,25.059669667869098220
0.230000000000000066,24.481703177269121596
0.231000000000000066,23.914786157059502614
0.232000000000000067,23.358829819631615976
0.233000000000000068,22.813744057321770242
0.234000000000000069,22.279437579540321224
0.235000000000000070,21.755817944668375929
0.236000000000000071,21.242791504897461152
0.237000000000000072,20.740263281271783313
0.238000000000000073,20.248136785079573485
0.239000000000000073,19.766313800483384711
0.240000000000000074,19.294694141926122199
0.241000000000000075,18.833175398444868875
0.242000000000000076,18.381652675601102942
0.243000000000000077,17.940018344323313215
0.244000000000000078,17.508161804582265120
0.245000000000000079,17.085969270497148642
0.246000000000000080,16.673323582220270112
0.247000000000000081,16.270104048777035644
0.248000000000000081,15.876186324957249241
0.249000000000000082,15.491442324366818895
0.250000000000000111,15.115740169858204567
0.251000000000000112,14.748944181764693795
0.252000000000000113,14.390914903665031233
0.253000000000000114,14.041509164801160736
0.254000000000000115,13.700580177754972055
0.255000000000000115,13.367977669559678588
0.256000000000000116,13.043548044069066094
0.257000000000000117,12.727134573129649908
0.258000000000000118,12.418577613890363409
0.259000000000000119,12.117714849435051505
0.260000000000000120,11.824381549829213967
0.261000000000000121,11.538410850628297410
0.262000000000000122,11.259634045893992749
0.263000000000000123,10.987880892802143862
0.264000000000000123,10.722979924995708956
0.265000000000000124,10.464758771933514225
0.266000000000000125,10.213044481605958680
0.267000000000000126,9.967663844127637063
0.268000000000000127,9.728443713870200682
0.269000000000000128,9.495211327963483328
0.270000000000000129,9.267794619165005798
0.271000000000000130,9.046022521274887040
0.272000000000000131,8.829725265452719185
0.273000000000000131,8.618734665971960140
0.274000000000000132,8.412884394124912291
0.275000000000000133,8.212010239164738934
0.276000000000000134,8.015950355339580113
0.277000000000000135,7.824545494236197385
0.278000000000000136,7.637639221805402556
0.279000000000000137,7.455078119588556262
0.280000000000000138,7.276711969803170810
0.281000000000000139,7.102393924074741349
0.282000000000000139,6.931980655722493445
0.283000000000000140,6.765332495617386144
0.284000000000000141,6.602313551732270192
0.285000000000000142,6.442791812596158074
0.286000000000000143,6.286639234947370980
0.287000000000000144,6.133731815954520883
0.288000000000000145,5.983949650439076784
0.289000000000000146,5.837176973590773699
0.290000000000000147,5.693302189715355510
0.291000000000000147,5.552217887596058610
0.292000000000000148,5.413820843083873235
0.293000000000000149,5.278012009559486017
0.294000000000000150,5.144696496930594165
0.295000000000000151,5.013783539843741366
0.296000000000000152,4.885186455799706451
0.297000000000000153,4.758822593866411488
0.298000000000000154,4.634613274683709427
0.299000000000000155,4.512483722450829404
0.300000000000000155,4.392362989579848609
0.301000000000000156,4.274183874688029405
0.302000000000000157,4.157882834588088272
0.303000000000000158,4.043399890919687323
0.304000000000000159,3.930678532046739893
0.305000000000000160,3.819665610825230040
0.306000000000000161,3.710311238824194557
0.307000000000000162,3.602568677559410126
0.308000000000000163,3.496394227275184896
0.309000000000000163,3.391747113784583156
0.310000000000000164,3.288589373852687459
0.311000000000000165,3.186885739581634791
0.312000000000000166,3.086603522229727226
0.313000000000000167,2.987712495870768592
0.314000000000000168,2.890184781273488213
0.315000000000000169,2.793994730355030320
0.316000000000000170,2.699118811536754592
0.317000000000000171,2.605535496305611431
0.318000000000000171,2.513225147259714909
0.319000000000000172,2.422169907892667950
0.320000000000000173,2.332353594348142156
0.321000000000000174,2.243761589353616692
0.322000000000000175,2.156380738520472296
0.323000000000000176,2.070199249176908118
0.324000000000000177,1.985206591880065874
0.325000000000000178,1.901393404734841308
0.326000000000000179,1.818751400628498160
0.327000000000000179,1.737273277473194044
0.328000000000000180,1.656952631532095710
0.329000000000000181,1.577783873889341049
0.330000000000000182,1.499762150109807068
0.331000000000000183,1.422883263120809483
0.332000000000000184,1.347143599335436592
0.333000000000000185,1.272540058025249943
0.334000000000000186,1.199069983939129225
0.335000000000000187,1.126731103154982483
0.336000000000000187,1.055521462141526090
0.337000000000000188,0.985439369999057901
0.338000000000000189,0.916483343839992415
0.339000000000000190,0.848652057263017845
0.340000000000000191,0.781944291868354235
0.341000000000000192,0.716358891755649818
0.342000000000000193,0.651894720941077921
0.343000000000000194,0.588550623625514246
0.344000000000000195,0.526325387241962317
0.345000000000000195,0.465217708206510594
0.346000000000000196,0.405226160294677396
0.347000000000000197,0.346349165562138239
0.348000000000000198,0.288584967727040065
0.349000000000000199,0.231931607929447420
0.350000000000000200,0.176386902782225657
0.351000000000000201,0.121948424626881963
0.352000000000000202,0.068613483907379161
0.353000000000000203,0.016379113574708080
0.354000000000000203,-0.034757944564917029
0.355000000000000204,-0.084801251644859771
0.356000000000000205,-0.133754681762062538
0.357000000000000206,-0.181622430315599021
0.358000000000000207,-0.228409020743867208
0.359000000000000208,-0.274119309743632023
0.360000000000000209,-0.318758491052562765
0.361000000000000210,-0.362332097875347092
0.362000000000000210,-0.404846004031985729
0.363000000000000211,-0.446306423904926919
0.364000000000000212,-0.486719911259983984
0.365000000000000213,-0.526093357013918350
0.366000000000000214,-0.564433986019610257
0.367000000000000215,-0.601749352937622772
0.368000000000000216,-0.638047337260920444
0.369000000000000217,-0.673336137557165704
0.370000000000000218,-0.707624264991028040
0.371000000000000218,-0.740920536186514211
0.372000000000000219,-0.773234065487288236
0.373000000000000220,-0.804574256670606558
0.374000000000000221,-0.834950794168298982
0.375000000000000222,-0.864373633845935574
0.376000000000000223,-0.892852993389338878
0.377000000000000224,-0.920399342345137095
0.378000000000000225,-0.947023391860090991
0.379000000000000226,-0.972736084161728853
0.380000000000000226,-0.997548581820828062
0.381000000000000227,-1.021472256834034198
0.382000000000000228,-1.044518679563175345
0.383000000000000229,-1.066699607565626540
0.384000000000000230,-1.088026974348260900
0.385000000000000231,-1.108512878075742059
0.386000000000000232,-1.128169570261865484
0.387000000000000233,-1.147009444471171369
0.388000000000000234,-1.165045025056057337
0.389000000000000234,-1.182288955953219034
0.390000000000000235,-1.198753989561406330
0.391000000000000236,-1.214452975721122874
0.392000000000000237,-1.229398850815240474
0.393000000000000238,-1.243604627008203733
0.394000000000000239,-1.257083381639946484
0.395000000000000240,-1.269848246789475832
0.396000000000000241,-1.281912399021684523
0.397000000000000242,-1.293289049329723772
0.398000000000000242,-1.303991433284215962
0.399000000000000243,-1.314032801399259043
0.400000000000000244,-1.323426409724306030
0.401000000000000245,-1.332185510669882778
0.402000000000000246,-1.340323344074060063
0.403000000000000247,-1.347853128515864807
0.404000000000000248,-1.354788052880740779
0.405000000000000249,-1.361141268182470387
0.406000000000000250,-1.366925879645078501
0.407000000000000250,-1.372154939047606437
0.408000000000000251,-1.376841437333822915
0.409000000000000252,-1.380998297488371440
0.410000000000000253,-1.384638367680182114
0.411000000000000254,-1.387774414673395684
0.412000000000000255,-1.390419117505501401
0.413000000000000256,-1.392585061431935944
0.414000000000000257,-1.394284732135747884
0.415000000000000258,-1.395530510200762242
0.416000000000000258,-1.396334665845936573
0.417000000000000259,-1.396709353918528906
0.418000000000000260,-1.396666609143100590
0.419000000000000261,-1.396218341623240766
0.420000000000000262,-1.395376332592429547
0.421000000000000263,-1.394152230410382165
0.422000000000000264,-1.392557546800737844
0.423000000000000265,-1.390603653325937161
0.424000000000000266,-1.388301778094866545
0.425000000000000266,-1.385663002698547919
0.426000000000000267,-1.382698259369209870
0.427000000000000268,-1.379418328357757684
0.428000000000000269,-1.375833835524598925
0.429000000000000270,-1.371955250138727767
0.430000000000000271,-1.367792882879760974
0.431000000000000272,-1.363356884037695727
0.432000000000000273,-1.358657241904942303
0.433000000000000274,-1.353703781355298119
0.434000000000000274,-1.348506162604355296
0.435000000000000275,-1.343073880145904564
0.436000000000000276,-1.337416261858884292
0.437000000000000277,-1.331542468279347746
0.438000000000000278,-1.325461492032038224
0.439000000000000279,-1.319182157416128431
0.440000000000000280,-1.312713120139688883
0.441000000000000281,-1.306062867197516963
0.442000000000000282,-1.299239716887067075
0.443000000000000282,-1.292251818957083298
0.444000000000000283,-1.285107154883852187
0.445000000000000284,-1.277813538269833460
0.446000000000000285,-1.270378615359587515
0.447000000000000286,-1.262809865668086173
0.448000000000000287,-1.255114602716322247
0.449000000000000288,-1.247299974869527261
0.450000000000000289,-1.239372966273099674
0.451000000000000290,-1.231340397881654836
0.452000000000000290,-1.223208928576595245
0.453000000000000291,-1.214985056367675842
0.454000000000000292,-1.206675119674220031
0.455000000000000293,-1.198285298681656119
0.456000000000000294,-1.189821616769188406
0.457000000000000295,-1.181289942004524418
0.458000000000000296,-1.172695988701619951
0.459000000000000297,-1.164045319037608772
0.460000000000000298,-1.155343344725059840
0.461000000000000298,-1.146595328735941610
0.462000000000000299,-1.137806387073669878
0.463000000000000300,-1.128981490589740400
0.464000000000000301,-1.120125466841630946
0.465000000000000302,-1.111243001988645229
0.466000000000000303,-1.102338642722519690
0.467000000000000304,-1.093416798229766229
0.468000000000000305,-1.084481742182729080
0.469000000000000306,-1.075537614756492344
0.470000000000000306,-1.066588424668912127
0.471000000000000307,-1.057638051240982868
0.472000000000000308,-1.048690246475074916
0.473000000000000309,-1.039748637148478538
0.474000000000000310,-1.030816726919868920
0.475000000000000311,-1.021897898446391340
0.476000000000000312,-1.012995415509180930
0.477000000000000313,-1.004112425145121001
0.478000000000000314,-0.995251959782846418
0.479000000000000314,-0.986416939381046021
0.480000000000000315,-0.977610173567126317
0.481000000000000316,-0.968834363774530472
0.482000000000000317,-0.960092105376910920
0.483000000000000318,-0.951385889817595198
0.484000000000000319,-0.942718106732726824
0.485000000000000320,-0.934091046066638953
0.486000000000000321,-0.925506900178020508
0.487000000000000322,-0.916967765935560286
0.488000000000000322,-0.908475646801721437
0.489000000000000323,-0.900032454903566537
0.490000000000000324,-0.891640013089366468
0.491000000000000325,-0.883300056969987368
0.492000000000000326,-0.875014236943992052
0.493000000000000327,-0.866784120205555952
0.494000000000000328,-0.858611192734224593
0.495000000000000329,-0.850496861265740201
0.496000000000000330,-0.842442455243072152
0.497000000000000330,-0.834449228747008553
0.498000000000000331,-0.826518362405493034
0.499000000000000332,-0.818650965281218612
0.500000000000000333,-0.810848076736774837
0.501000000000000334,-0.803110668276828976
0.502000000000000335,-0.795439645366889603
0.503000000000000336,-0.787835849228138541
0.504000000000000337,-0.780300058607945601
0.505000000000000338,-0.772832991525671309
0.506000000000000338,-0.765435306993449416
0.507000000000000339,-0.758107606711611481
0.508000000000000340,-0.750850436738492388
0.509000000000000341,-0.743664289134446044
0.510000000000000342,-0.736549603579762513
0.511000000000000343,-0.729506768966425301
0.512000000000000344,-0.722536124963491178
0.513000000000000345,-0.715637963556025603
0.514000000000000346,-0.708812530557523024
0.515000000000000346,-0.702060027095699479
0.516000000000000347,-0.695380611071671040
0.517000000000000348,-0.688774398592531312
0.518000000000000349,-0.682241465377261713
0.519000000000000350,-0.675781848136117747
0.520000000000000351,-0.669395545923444080
0.521000000000000352,-0.663082521464099850
0.522000000000000353,-0.656842702453494853
0.523000000000000353,-0.650675982831416033
0.524000000000000354,-0.644582224029757289
0.525000000000000355,-0.638561256194282501
0.526000000000000356,-0.632612879380597071
0.527000000000000357,-0.626736864724525389
0.528000000000000358,-0.620932955587023216
0.529000000000000359,-0.615200868673909440
0.530000000000000360,-0.609540295130539533
0.531000000000000361,-0.603950901611731483
0.532000000000000361,-0.598432331327112266
0.533000000000000362,-0.592984205062171754
0.534000000000000363,-0.587606122175243661
0.535000000000000364,-0.582297661570714054
0.536000000000000365,-0.577058382648681922
0.537000000000000366,-0.571887826231397001
0.538000000000000367,-0.566785515466689094
0.539000000000000368,-0.561750956708780280
0.540000000000000369,-0.556783640376645295
0.541000000000000369,-0.551883041790350637
0.542000000000000370,-0.547048621985560812
0.543000000000000371,-0.542279828506598616
0.544000000000000372,-0.537576096178333129
0.545000000000000373,-0.532936847857221063
0.546000000000000374,-0.528361495161808303
0.547000000000000375,-0.523849439183013521
0.548000000000000376,-0.519400071174535016
0.549000000000000377,-0.515012773223663456
0.550000000000000377,-0.510686918902859555
0.551000000000000378,-0.506421873902392461
0.552000000000000379,-0.502216996644393787
0.553000000000000380,-0.498071638878624490
0.554000000000000381,-0.493985146260278896
0.555000000000000382,-0.489956858910198523
0.556000000000000383,-0.485986111957726508
0.557000000000000384,-0.482072236066639515
0.558000000000000385,-0.478214557944370289
0.559000000000000385,-0.474412400834921144
0.560000000000000386,-0.470665084995749883
0.561000000000000387,-0.466971928158952054
0.562000000000000388,-0.463332245977042922
0.563000000000000389,-0.459745352453694411
0.564000000000000390,-0.456210560359678663
0.565000000000000391,-0.452727181634378195
0.566000000000000392,-0.449294527773124563
0.567000000000000393,-0.445911910200730788
0.568000000000000393,-0.442578640631430709
0.569000000000000394,-0.439294031415610409
0.570000000000000395,-0.436057395873576170
0.571000000000000396,-0.432868048616642853
0.572000000000000397,-0.429725305855893414
0.573000000000000398,-0.426628485698806625
0.574000000000000399,-0.423576908434118882
0.575000000000000400,-0.420569896805129517
0.576000000000000401,-0.417606776271766678
0.577000000000000401,-0.414686875261690957
0.578000000000000402,-0.411809525410662292
0.579000000000000403,-0.408974061792454269
0.580000000000000404,-0.406179823138622165
0.581000000000000405,-0.403426152048291076
0.582000000000000406,-0.400712395188299098
0.583000000000000407,-0.398037903483892896
0.584000000000000408,-0.395402032300252892
0.585000000000000409,-0.392804141615067326
0.586000000000000409,-0.390243596182397512
0.587000000000000410,-0.387719765688093632
0.588000000000000411,-0.385232024896932479
0.589000000000000412,-0.382779753791782973
0.590000000000000413,-0.380362337704938436
0.591000000000000414,-0.377979167441895580
0.592000000000000415,-0.375629639397773329
0.593000000000000416,-0.373313155666567975
0.594000000000000417,-0.371029124143461897
0.595000000000000417,-0.368776958620427808
0.596000000000000418,-0.366556078875225122
0.597000000000000419,-0.364365910754120725
0.598000000000000420,-0.362205886248388176
0.599000000000000421,-0.360075443564891573
0.600000000000000422,-0.357974027190853916
0.601000000000000423,-0.355901087953022222
0.602000000000000424,-0.353856083071420136
0.603000000000000425,-0.351838476207841144
0.604000000000000425,-0.349847737509243140
0.605000000000000426,-0.347883343646228638
0.606000000000000427,-0.345944777846799778
0.607000000000000428,-0.344031529925435064
0.608000000000000429,-0.342143096307834349
0.609000000000000430,-0.340278980051255453
0.610000000000000431,-0.338438690860802527
0.611000000000000432,-0.336621745101663872
0.612000000000000433,-0.334827665807495400
0.613000000000000433,-0.333055982685120822
0.614000000000000434,-0.331306232115619159
0.615000000000000435,-0.329577957151963807
