# ZnO1m210NB_CS-11244-AC
# h[nm],U(h)[kJ/mol]
0.149999999999999994,136.789200659853520392
0.150999999999999995,134.818746237446646319
0.151999999999999996,133.076820840417468617
0.152999999999999997,131.404604622314252538
0.153999999999999998,129.742802689417032980
0.154999999999999999,128.078395763917484373
0.156000000000000000,126.416155733050160848
0.157000000000000001,124.764670499560935468
0.158000000000000002,123.130491397813031540
0.159000000000000002,121.516529794374150697
0.160000000000000003,119.922435430404604517
0.161000000000000004,118.345694132574038804
0.162000000000000005,116.782794887381967897
0.163000000000000006,115.230176077528767564
0.164000000000000007,113.684861290226038477
0.165000000000000008,112.144797972692316534
0.166000000000000009,110.608957157389426129
0.167000000000000010,109.077264836573661455
0.168000000000000010,107.550431045986556455
0.169000000000000011,106.029730748763057591
0.170000000000000012,104.516776582669734807
0.171000000000000013,103.013310300419249188
0.172000000000000014,101.521028602919088257
0.173000000000000015,100.041450446350765446
0.174000000000000016,98.575826711485476039
0.175000000000000017,97.125089034941495925
0.176000000000000018,95.689832207656920104
0.177000000000000018,94.270323434738685364
0.178000000000000019,92.866531554539733406
0.179000000000000020,91.478169725653415867
0.180000000000000021,90.104745865429080709
0.181000000000000022,88.745616079713684599
0.182000000000000023,87.400037330002305680
0.183000000000000024,86.067216552888154979
0.184000000000000025,84.746354322956634064
0.185000000000000026,83.436681904594564685
0.186000000000000026,82.137491159293347209
0.187000000000000027,80.848157264130790622
0.188000000000000028,79.568154563459231099
0.189000000000000029,78.297066133323340864
0.190000000000000030,77.034587802873630835
0.191000000000000031,75.780527465602375514
0.192000000000000032,74.534800541495954462
0.193000000000000033,73.297422433661807872
0.194000000000000034,72.068498772380365835
0.195000000000000034,70.848214166647963452
0.196000000000000035,69.636820097013966802
0.197000000000000036,68.434622490962027541
0.198000000000000037,67.241969428717382584
0.199000000000000038,66.059239337229001876
0.200000000000000039,64.886829946030047722
0.201000000000000040,63.725148202571574529
0.202000000000000041,62.574601277512385877
0.203000000000000042,61.435588732752762553
0.204000000000000042,60.308495876673916314
0.205000000000000043,59.193688291696233250
0.206000000000000044,58.091507488258073977
0.207000000000000045,57.002267615863502215
0.208000000000000046,55.926253145081616935
0.209000000000000047,54.863717423406988871
0.210000000000000048,53.814882001825559144
0.211000000000000049,52.779936626930819443
0.212000000000000050,51.759039794713238791
0.213000000000000050,50.752319765995054013
0.214000000000000051,49.759875949264120720
0.215000000000000052,48.781780563825940078
0.216000000000000053,47.818080504266447406
0.217000000000000054,46.868799335802506789
0.218000000000000055,45.933939358866226144
0.219000000000000056,45.013483689958064815
0.220000000000000057,44.107398314206847090
0.221000000000000058,43.215634073039460361
0.222000000000000058,42.338128557771526062
0.223000000000000059,41.474807886715183258
0.224000000000000060,40.625588349511431829
0.225000000000000061,39.790377907817727987
0.226000000000000062,38.969077546217384622
0.227000000000000063,38.161582471284411611
0.228000000000000064,37.367783160167299172
0.229000000000000065,36.587566262885026447
0.230000000000000066,35.820815364806669834
0.231000000000000066,35.067411617559422154
0.232000000000000067,34.327234247930960009
0.233000000000000068,33.600160955251524797
0.234000000000000069,32.886068208310184957
0.235000000000000070,32.184831453125319456
0.236000000000000071,31.496325242900059749
0.237000000000000072,30.820423301288009554
0.238000000000000073,30.156998529716609880
0.239000000000000073,29.505922968999101386
0.240000000000000074,28.867067724840531184
0.241000000000000075,28.240302866143498051
0.242000000000000076,27.625497304264172271
0.243000000000000077,27.022518660583578765
0.244000000000000078,26.431233128961615364
0.245000000000000079,25.851505338845704784
0.246000000000000080,25.283198224028115675
0.247000000000000081,24.726172901292720496
0.248000000000000081,24.180288562475254821
0.249000000000000082,23.645402382784986628
0.250000000000000111,23.121369447605367498
0.251000000000000112,22.608042699410667353
0.252000000000000113,22.105272905904140401
0.253000000000000114,21.612908650006481537
0.254000000000000115,21.130796341894431123
0.255000000000000115,20.658780252914151987
0.256000000000000116,20.196702570865131321
0.257000000000000117,19.744403475870079490
0.258000000000000118,19.301721235809612409
0.259000000000000119,18.868492320105691107
0.260000000000000120,18.444551530481255952
0.261000000000000121,18.029732147203883841
0.262000000000000122,17.623866089232397059
0.263000000000000123,17.226784086628228465
0.264000000000000123,16.838315863560694652
0.265000000000000124,16.458290330227594467
0.266000000000000125,16.086535782024760977
0.267000000000000126,15.722880104329004070
0.268000000000000127,15.367150981304117607
0.269000000000000128,15.019176107199246673
0.270000000000000129,14.678783398678074690
0.271000000000000130,14.345801206795698590
0.272000000000000131,14.020058527325550912
0.273000000000000131,13.701385208228590074
0.274000000000000132,13.389612153151336571
0.275000000000000133,13.084571519934815598
0.276000000000000134,12.786096913213734538
0.277000000000000135,12.494023570282115188
0.278000000000000136,12.208188539497006886
0.279000000000000137,11.928430850585694856
0.280000000000000138,11.654591676313502902
0.281000000000000139,11.386514485056554946
0.282000000000000139,11.124045183908870982
0.283000000000000140,10.867032252033039796
0.284000000000000141,10.615326864039976940
0.285000000000000142,10.368783003254629094
0.286000000000000143,10.127257564791033673
0.287000000000000144,9.890610448422682666
0.288000000000000145,9.658704641290388082
0.289000000000000146,9.431406290543289828
0.290000000000000147,9.208584766055199822
0.291000000000000147,8.990112713402373501
0.292000000000000148,8.775866097326478155
0.293000000000000149,8.565724235941143405
0.294000000000000150,8.359569825970083912
0.295000000000000151,8.157288959330564637
0.296000000000000152,7.958771131398117760
0.297000000000000153,7.763909241306729214
0.298000000000000154,7.572599584653533888
0.299000000000000155,7.384741838989005380
0.300000000000000155,7.200239042482166951
0.301000000000000156,7.018997566156601309
0.302000000000000157,6.840927080096045998
0.303000000000000158,6.665940514019967011
0.304000000000000159,6.493954012627924044
0.305000000000000160,6.324886886108938455
0.306000000000000161,6.158661556207016829
0.307000000000000162,5.995203498227807515
0.308000000000000163,5.834441179363582641
0.309000000000000163,5.676305993704793273
0.310000000000000164,5.520732194296367190
0.311000000000000165,5.367656822586045706
0.312000000000000166,5.217019635600233407
0.313000000000000167,5.068763031170488986
0.314000000000000168,4.922831971520929883
0.315000000000000169,4.779173905513386167
0.316000000000000170,4.637738689833524219
0.317000000000000171,4.498478509387385138
0.318000000000000171,4.361347797163768192
0.319000000000000172,4.226303153803715240
0.320000000000000173,4.093303267104599463
0.321000000000000174,3.962308831672233911
0.322000000000000175,3.833282468920715669
0.323000000000000176,3.706188647606144748
0.324000000000000177,3.580993605067066543
0.325000000000000178,3.457665269331525959
0.326000000000000179,3.336173182237752055
0.327000000000000179,3.216488423703387500
0.328000000000000180,3.098583537266091703
0.329000000000000181,2.982432457006731763
0.330000000000000182,2.868010435955496096
0.331000000000000183,2.755293976070189554
0.332000000000000184,2.644260759866090105
0.333000000000000185,2.534889583766703591
0.334000000000000186,2.427160293235479660
0.335000000000000187,2.321053719739670562
0.336000000000000187,2.216551619588945421
0.337000000000000188,2.113636614683739978
0.338000000000000189,2.012292135200270060
0.339000000000000190,1.912502364232427254
0.340000000000000191,1.814252184404060220
0.341000000000000192,1.717527126458743059
0.342000000000000193,1.622313319828462497
0.343000000000000194,1.528597445177115599
0.344000000000000195,1.436366688909977096
0.345000000000000195,1.345608699635106875
0.346000000000000196,1.256311546559045755
0.347000000000000197,1.168463679794683019
0.348000000000000198,1.082053892555937535
0.349000000000000199,0.997071285210485270
0.350000000000000200,0.913505231158867503
0.351000000000000201,0.831345344505651340
0.352000000000000202,0.750581449486031005
0.353000000000000203,0.671203551609072968
0.354000000000000203,0.593201810476976732
0.355000000000000204,0.516566514238310459
0.356000000000000205,0.441288055631628484
0.357000000000000206,0.367356909574688251
0.358000000000000207,0.294763612253919116
0.359000000000000208,0.223498741667622264
0.360000000000000209,0.153552899575978119
0.361000000000000210,0.084916694810723017
0.362000000000000210,0.017580727896766513
0.363000000000000211,-0.048464423061744387
0.364000000000000212,-0.113228215278621744
0.365000000000000213,-0.176720153013451148
0.366000000000000214,-0.238949798177239325
0.367000000000000215,-0.299926779862599857
0.368000000000000216,-0.359660802844914418
0.369000000000000217,-0.418161655100017626
0.370000000000000218,-0.475439214383681807
0.371000000000000218,-0.531503453917105850
0.372000000000000219,-0.586364447222125440
0.373000000000000220,-0.640032372148876205
0.374000000000000221,-0.692517514137758416
0.375000000000000222,-0.743830268756558666
0.376000000000000223,-0.793981143552931146
0.377000000000000224,-0.842980759260955503
0.378000000000000225,-0.890839850399859801
0.379000000000000226,-0.937569265301686605
0.380000000000000226,-0.983179965603871664
0.381000000000000227,-1.027683025241253434
0.382000000000000228,-1.071089628971334973
0.383000000000000229,-1.113411070465228248
0.384000000000000230,-1.154658749995689071
0.385000000000000231,-1.194844171752695416
0.386000000000000232,-1.233978940815600556
0.387000000000000233,-1.272074759810198685
0.388000000000000234,-1.309143425277523587
0.389000000000000234,-1.345196823780551831
0.390000000000000235,-1.380246927773545407
0.391000000000000236,-1.414305791257982836
0.392000000000000237,-1.447385545247826810
0.393000000000000238,-1.479498393065999284
0.394000000000000239,-1.510656605492752824
0.395000000000000240,-1.540872515785870922
0.396000000000000241,-1.570158514591481591
0.397000000000000242,-1.598527044763411009
0.398000000000000242,-1.625990596108151554
0.399000000000000243,-1.652561700071442541
0.400000000000000244,-1.678252924381824274
0.401000000000000245,-1.703076867665540117
0.402000000000000246,-1.727046154046280479
0.403000000000000247,-1.750173427742697019
0.404000000000000248,-1.772471347675601105
0.405000000000000249,-1.793952582096166370
0.406000000000000250,-1.814629803245635831
0.407000000000000250,-1.834515682056444330
0.408000000000000251,-1.853622882903886104
0.409000000000000252,-1.871964058416870413
0.410000000000000253,-1.889551844355685351
0.411000000000000254,-1.906398854564053336
0.412000000000000255,-1.922517676002188480
0.413000000000000256,-1.937920863867112375
0.414000000000000257,-1.952620936805720131
0.415000000000000258,-1.966630372225920187
0.416000000000000258,-1.979961601710298780
0.417000000000000259,-1.992627006536657364
0.418000000000000260,-2.004638913309029213
0.419000000000000261,-2.016009589702606242
0.420000000000000262,-2.026751240325350700
0.421000000000000263,-2.036876002698993826
0.422000000000000264,-2.046395943361381420
0.423000000000000265,-2.055323054092135671
0.424000000000000266,-2.063669248263097167
0.425000000000000266,-2.071446357314621345
0.426000000000000267,-2.078666127358760551
0.427000000000000268,-2.085340215909826433
0.428000000000000269,-2.091480188742710133
0.429000000000000270,-2.097097516879117940
0.430000000000000271,-2.102203573701462602
0.431000000000000272,-2.106809632194208692
0.432000000000000273,-2.110926862312001440
0.433000000000000274,-2.114566328473916457
0.434000000000000274,-2.117738987182869348
0.435000000000000275,-2.120455684769117166
0.436000000000000276,-2.122727155256631359
0.437000000000000277,-2.124564018350933114
0.438000000000000278,-2.125976777546909613
0.439000000000000279,-2.126975818355000936
0.440000000000000280,-2.127571406643972818
0.441000000000000281,-2.127773687098460265
0.442000000000000282,-2.127592681789421292
0.443000000000000282,-2.127038288855342962
0.444000000000000283,-2.126120281292279923
0.445000000000000284,-2.124848305850459695
0.446000000000000285,-2.123231882035256035
0.447000000000000286,-2.121280401210384525
0.448000000000000287,-2.119003125800810405
0.449000000000000288,-2.116409188593247670
0.450000000000000289,-2.113507592131685264
0.451000000000000290,-2.110307208205633778
0.452000000000000290,-2.106816777428694110
0.453000000000000291,-2.103044908904890153
0.454000000000000292,-2.099000079980440692
0.455000000000000293,-2.094690636078428536
0.456000000000000294,-2.090124790613934636
0.457000000000000295,-2.085310624987202210
0.458000000000000296,-2.080256088652310709
0.459000000000000297,-2.074968999258994362
0.460000000000000298,-2.069457042865105567
0.461000000000000298,-2.063727774217358757
0.462000000000000299,-2.057788617097927375
0.463000000000000300,-2.051646864734495868
0.464000000000000301,-2.045309680271477859
0.465000000000000302,-2.038784097300021081
0.466000000000000303,-2.032077020444482240
0.467000000000000304,-2.025195226003180249
0.468000000000000305,-2.018145362641087903
0.469000000000000306,-2.010933952132314850
0.470000000000000306,-2.003567390150259531
0.471000000000000307,-1.996051947103126833
0.472000000000000308,-1.988393769012911871
0.473000000000000309,-1.980598878435658960
0.474000000000000310,-1.972673175421009617
0.475000000000000311,-1.964622438509053826
0.476000000000000312,-1.956452325762579658
0.477000000000000313,-1.948168375832755927
0.478000000000000314,-1.939776009056413342
0.479000000000000314,-1.931280528583157352
0.480000000000000315,-1.922687121530434862
0.481000000000000316,-1.914000860164940310
0.482000000000000317,-1.905226703108552133
0.483000000000000318,-1.896369496567254398
0.484000000000000319,-1.887433975581367829
0.485000000000000320,-1.878424765295560350
0.486000000000000321,-1.869346382247119465
0.487000000000000322,-1.860203235671001876
0.488000000000000322,-1.850999628820174436
0.489000000000000323,-1.841739760299977435
0.490000000000000324,-1.832427725415027409
0.491000000000000325,-1.823067517527423131
0.492000000000000326,-1.813663029424941842
0.493000000000000327,-1.804218054698050411
0.494000000000000328,-1.794736289124473583
0.495000000000000329,-1.785221332060241251
0.496000000000000330,-1.775676687836005074
0.497000000000000330,-1.766105767157702955
0.498000000000000331,-1.756511888510321695
0.499000000000000332,-1.746898279563986689
0.500000000000000333,-1.737268078581273301
0.501000000000000334,-1.727624335824809121
0.502000000000000335,-1.717970014964381731
0.503000000000000336,-1.708307994482583636
0.504000000000000337,-1.698641069078248744
0.505000000000000338,-1.688971951066834620
0.506000000000000338,-1.679303271777043971
0.507000000000000339,-1.669637582942933518
0.508000000000000340,-1.659977358090776844
0.509000000000000341,-1.650324993920155858
0.510000000000000342,-1.640682811678447761
0.511000000000000343,-1.631053058528296962
0.512000000000000344,-1.621437908907350289
0.513000000000000345,-1.611839465879782551
0.514000000000000346,-1.602259762479115723
0.515000000000000346,-1.592700763041740020
0.516000000000000347,-1.583164364530751378
0.517000000000000348,-1.573652397849668594
0.518000000000000349,-1.564166629145514964
0.519000000000000350,-1.554708761101009085
0.520000000000000351,-1.545280434215339893
0.521000000000000352,-1.535883228073338991
0.522000000000000353,-1.526518662602561971
0.523000000000000353,-1.517188199318086239
0.524000000000000354,-1.507893242554705804
0.525000000000000355,-1.498635140686225053
0.526000000000000356,-1.489415187331634360
0.527000000000000357,-1.480234622547967227
0.528000000000000358,-1.471094634009530555
0.529000000000000359,-1.461996358173455635
0.530000000000000360,-1.452940881431237674
0.531000000000000361,-1.443929241246249218
0.532000000000000361,-1.434962427276965213
0.533000000000000362,-1.426041382485855991
0.534000000000000363,-1.417167004233770289
0.535000000000000364,-1.408340145359761042
0.536000000000000365,-1.399561615246212032
0.537000000000000366,-1.390832180869259194
0.538000000000000367,-1.382152567834344037
0.539000000000000368,-1.373523461396997991
0.540000000000000369,-1.364945507468646069
0.541000000000000369,-1.356419313607570842
0.542000000000000370,-1.347945449994872202
0.543000000000000371,-1.339524450395538135
0.544000000000000372,-1.331156813104553693
0.545000000000000373,-1.322843001878107216
0.546000000000000374,-1.314583446849878268
0.547000000000000375,-1.306378545432467009
0.548000000000000376,-1.298228663204007871
0.549000000000000377,-1.290134134779991282
0.550000000000000377,-1.282095264670373824
0.551000000000000378,-1.274112328122002813
0.552000000000000379,-1.266185571946492505
0.553000000000000380,-1.258315215333547288
0.554000000000000381,-1.250501450649853741
0.555000000000000382,-1.242744444223674583
0.556000000000000383,-1.235044337115109636
0.557000000000000384,-1.227401245872292490
0.558000000000000385,-1.219815263273465344
0.559000000000000385,-1.212286459055152310
0.560000000000000386,-1.204814880626502660
0.561000000000000387,-1.197400553769906839
0.562000000000000388,-1.190043483328025786
0.563000000000000389,-1.182743653877372125
0.564000000000000390,-1.175501030388529156
0.565000000000000391,-1.168315558873178617
0.566000000000000392,-1.161187167018035593
0.567000000000000393,-1.154115764805887068
0.568000000000000393,-1.147101245123779423
0.569000000000000394,-1.140143484358585368
0.570000000000000395,-1.133242342980061990
0.571000000000000396,-1.126397666111499607
0.572000000000000397,-1.119609284088212364
0.573000000000000398,-1.112877013003896964
0.574000000000000399,-1.106200655245128228
0.575000000000000400,-1.099580000014032555
0.576000000000000401,-1.093014823839369765
0.577000000000000401,-1.086504891076171653
0.578000000000000402,-1.080049954394037393
0.579000000000000403,-1.073649755254275195
0.580000000000000404,-1.067304024376094729
0.581000000000000405,-1.061012482191890927
0.582000000000000406,-1.054774839291900745
0.583000000000000407,-1.048590796858285712
0.584000000000000408,-1.042460047088873409
0.585000000000000409,-1.036382273610672922
0.586000000000000409,-1.030357151883313005
0.587000000000000410,-1.024384349592623700
0.588000000000000411,-1.018463527034404681
0.589000000000000412,-1.012594337488675444
0.590000000000000413,-1.006776427584424427
0.591000000000000414,-1.001009437655106415
0.592000000000000415,-0.995293002085025358
0.593000000000000416,-0.989626749646703940
0.594000000000000417,-0.984010303829443211
0.595000000000000417,-0.978443283159251775
0.596000000000000418,-0.972925301510169205
0.597000000000000419,-0.967455968407310962
0.598000000000000420,-0.962034889321606412
0.599000000000000421,-0.956661665956521690
0.600000000000000422,-0.951335896526823155
0.601000000000000423,-0.946057176029547975
0.602000000000000424,-0.940825096507359127
0.603000000000000425,-0.935639247304394517
0.604000000000000425,-0.930499215314731565
0.605000000000000426,-0.925404585223662424
0.606000000000000427,-0.920354939741914180
0.607000000000000428,-0.915349859832825352
0.608000000000000429,-0.910388924932872046
0.609000000000000430,-0.905471713165361125
0.610000000000000431,-0.900597801547707855
0.611000000000000432,-0.895766766192246044
0.612000000000000433,-0.890978182500753446
0.613000000000000433,-0.886231625352874586
0.614000000000000434,-0.881526669288483111
