# ZnO1m210NB_CS-13420-AC
# h[nm],U(h)[kJ/mol]
0.149999999999999994,92.587492075924302526
0.150999999999999995,91.232814176187957855
0.151999999999999996,90.147384929635407502
0.152999999999999997,89.092769616410976141
0.153999999999999998,87.988618369523834417
0.154999999999999999,86.828012775538837786
0.156000000000000000,85.631499661765701603
0.157000000000000001,84.424148163925508470
0.158000000000000002,83.225742557942865574
0.159000000000000002,82.048018246521962737
0.160000000000000003,80.895304366120015516
0.161000000000000004,79.766496787173878147
0.162000000000000005,78.657253249965862096
0.163000000000000006,77.561884201297090158
0.164000000000000007,76.474747408089683631
0.165000000000000008,75.391134087758302940
0.166000000000000009,74.307719881281713015
0.167000000000000010,73.222684790702288637
0.168000000000000010,72.135607080760038912
0.169000000000000011,71.047222421129276881
0.170000000000000012,69.959120297183474690
0.171000000000000013,68.873430020023334919
0.172000000000000014,67.792531097069613111
0.173000000000000015,66.718808348155533849
0.174000000000000016,65.654461164836348530
0.175000000000000017,64.601368447058121092
0.176000000000000018,63.561005535715899839
0.177000000000000018,62.534406354993677724
0.178000000000000019,61.522162469099079374
0.179000000000000020,60.524450390874086736
0.180000000000000021,59.541078879739970375
0.181000000000000022,58.571548837675287302
0.182000000000000023,57.615119531075457360
0.183000000000000024,56.670876072195618178
0.184000000000000025,55.737794276102498259
0.185000000000000026,54.814800097319448469
0.186000000000000026,53.900821804648742841
0.187000000000000027,52.994833855143880896
0.188000000000000028,52.095892076504526358
0.189000000000000029,51.203160269129590176
0.190000000000000030,50.315928708749730447
0.191000000000000031,49.433625285281614481
0.192000000000000032,48.555820171752955616
0.193000000000000033,47.682224996978881393
0.194000000000000034,46.812687514043702208
0.195000000000000034,45.947182728699381471
0.196000000000000035,45.085801390657806564
0.197000000000000036,44.228736667464950472
0.198000000000000037,43.376269724232301428
0.199000000000000038,42.528754830135952147
0.200000000000000039,41.686604509798186768
0.201000000000000040,40.850275158525640506
0.202000000000000041,40.020253447768787680
0.203000000000000042,39.197043762969329350
0.204000000000000042,38.381156841249755018
0.205000000000000043,37.573099711622447217
0.206000000000000044,36.773366985521100503
0.207000000000000045,35.982433500107127600
0.208000000000000046,35.200748280351575659
0.209000000000000047,34.428729757558201641
0.210000000000000048,33.666762160905065571
0.211000000000000049,32.915192983835609652
0.212000000000000050,32.174331417823260892
0.213000000000000050,31.444447641305384167
0.214000000000000051,30.725772850615804543
0.215000000000000052,30.018499921803709185
0.216000000000000053,29.322784596639696275
0.217000000000000054,28.638747092289758456
0.218000000000000055,27.966474041574155507
0.219000000000000056,27.306020678985255756
0.220000000000000057,26.657413196348919371
0.221000000000000058,26.020651200883243348
0.222000000000000058,25.395710217186696411
0.223000000000000059,24.782544183195035714
0.224000000000000060,24.181087898230924083
0.225000000000000061,23.591259388834345145
0.226000000000000062,23.012962165030803163
0.227000000000000063,22.446087346028598120
0.228000000000000064,21.890515640015902221
0.229000000000000065,21.346119167751187007
0.230000000000000066,20.812763124024733941
0.231000000000000066,20.290307274835310380
0.232000000000000067,19.778607291313523575
0.233000000000000068,19.277515924067607500
0.234000000000000069,18.786884023775137109
0.235000000000000070,18.306561415539412963
0.236000000000000071,17.836397635819317031
0.237000000000000072,17.376242541670858799
0.238000000000000073,16.925946802653623280
0.239000000000000073,16.485362286097235085
0.240000000000000074,16.054342346530795282
0.241000000000000075,15.632742029991828048
0.242000000000000076,15.220418203681784775
0.243000000000000077,14.817229621055096445
0.244000000000000078,14.423036931946077388
0.245000000000000079,14.037702646776377691
0.246000000000000080,13.661091063268585799
0.247000000000000081,13.293068163436014828
0.248000000000000081,12.933501487943155794
0.249000000000000082,12.582259994248421009
0.250000000000000111,12.239213904262301824
0.251000000000000112,11.904234546590542365
0.252000000000000113,11.577194197789804520
0.253000000000000114,11.257965926450756555
0.254000000000000115,10.946423443342474968
0.255000000000000115,10.642440960309055953
0.256000000000000116,10.345893060103994898
0.257000000000000117,10.056654578883273743
0.258000000000000118,9.774600502654433143
0.259000000000000119,9.499605878595287933
0.260000000000000120,9.231545741812569261
0.261000000000000121,8.970295057806296768
0.262000000000000122,8.715728680638003212
0.263000000000000123,8.467721326569307649
0.264000000000000123,8.226147562738432839
0.265000000000000124,7.990881810275323183
0.266000000000000125,7.761798361117636880
0.267000000000000126,7.538771407678551029
0.268000000000000127,7.321675084430107283
0.269000000000000128,7.110383520401275526
0.270000000000000129,6.904770901544992512
0.271000000000000130,6.704711541901268390
0.272000000000000131,6.510079962472469006
0.273000000000000131,6.320750976729366144
0.274000000000000132,6.136599781681253418
0.275000000000000133,5.957502053468249237
0.276000000000000134,5.783334046467514256
0.277000000000000135,5.613972694946125941
0.278000000000000136,5.449295716339741524
0.279000000000000137,5.289181715287672780
0.280000000000000138,5.133510287609920120
0.281000000000000139,4.982162123468862447
0.282000000000000139,4.835019109017551386
0.283000000000000140,4.691964425896146373
0.284000000000000141,4.552882647998253596
0.285000000000000142,4.417659834988246992
0.286000000000000143,4.286183622109266622
0.287000000000000144,4.158343305878773322
0.288000000000000145,4.034029925323576293
0.289000000000000146,3.913136338459858532
0.290000000000000147,3.795557293774119323
0.291000000000000147,3.681189496509639891
0.292000000000000148,3.569931669608314984
0.293000000000000149,3.461684609200833762
0.294000000000000150,3.356351234577908293
0.295000000000000151,3.253836632612331581
0.296000000000000152,3.154048096635937881
0.297000000000000153,3.056895159806642503
0.298000000000000154,2.962289623029394470
0.299000000000000155,2.870145577520468727
0.300000000000000155,2.780379422127615463
0.301000000000000156,2.692909875539155173
0.302000000000000157,2.607657983532911672
0.303000000000000158,2.524547121431742536
0.304000000000000159,2.443502991945621705
0.305000000000000160,2.364453618591705553
0.306000000000000161,2.287329334892969079
0.307000000000000162,2.212062769563438724
0.308000000000000163,2.138588827893828981
0.309000000000000163,2.066844669555365055
0.310000000000000164,1.996769683042203924
0.311000000000000165,1.928305456974094501
0.312000000000000166,1.861395748480846324
0.313000000000000167,1.795986448889073328
0.314000000000000168,1.732025546929442328
0.315000000000000169,1.669463089679600332
0.316000000000000170,1.608251141453932220
0.317000000000000171,1.548343740846773287
0.318000000000000171,1.489696856130393154
0.319000000000000172,1.432268339203127017
0.320000000000000173,1.376017878276896367
0.321000000000000174,1.320906949486602588
0.322000000000000175,1.266898767596838171
0.323000000000000176,1.213958235974160527
0.324000000000000177,1.162051895985650507
0.325000000000000178,1.111147875976951527
0.326000000000000179,1.061215839975152786
0.327000000000000179,1.012226936254283283
0.328000000000000180,0.964153745893370884
0.329000000000000181,0.916970231449215634
0.330000000000000182,0.870651685858594204
0.331000000000000183,0.825174681676787203
0.332000000000000184,0.780517020752127366
0.333000000000000185,0.736657684428873694
0.334000000000000186,0.693576784363589605
0.335000000000000187,0.651255514033365901
0.336000000000000187,0.609676101007363580
0.337000000000000188,0.568821760046866243
0.338000000000000189,0.528676647092488405
0.339000000000000190,0.489225814191275810
0.340000000000000191,0.450455165410707292
0.341000000000000192,0.412351413780797593
0.342000000000000193,0.374902039300434586
0.343000000000000194,0.338095248038779217
0.344000000000000195,0.301919932358039711
0.345000000000000195,0.266365632278949271
0.346000000000000196,0.231422498006372379
0.347000000000000197,0.197081253628071662
0.348000000000000198,0.163333161995985299
0.349000000000000199,0.130169990795723750
0.350000000000000200,0.097583979806575336
0.351000000000000201,0.065567809351229744
0.352000000000000202,0.034114569931468240
0.353000000000000203,0.003217733043321480
0.354000000000000203,-0.027128876837291531
0.355000000000000204,-0.056931109109682632
0.356000000000000205,-0.086194512757739400
0.357000000000000206,-0.114924360928904346
0.358000000000000207,-0.143125674399761038
0.359000000000000208,-0.170803243947060840
0.360000000000000209,-0.197961651644322556
0.361000000000000210,-0.224605291105322180
0.362000000000000210,-0.250738386697145765
0.363000000000000211,-0.276365011746242284
0.364000000000000212,-0.301489105761940324
0.365000000000000213,-0.326114490702519355
0.366000000000000214,-0.350244886309603876
0.367000000000000215,-0.373883924537102785
0.368000000000000216,-0.397035163101433497
0.369000000000000217,-0.419702098179875249
0.370000000000000218,-0.441888176284360334
0.371000000000000218,-0.463596805337878781
0.372000000000000219,-0.484831364980973512
0.373000000000000220,-0.505595216135598213
0.374000000000000221,-0.525891709853622547
0.375000000000000222,-0.545724195476997354
0.376000000000000223,-0.565096028136614636
0.377000000000000224,-0.584010575616348282
0.378000000000000225,-0.602471224608665534
0.379000000000000226,-0.620481386387721878
0.380000000000000226,-0.638044501925595808
0.381000000000000227,-0.655164046476669815
0.382000000000000228,-0.671843533654977509
0.383000000000000229,-0.688086519028620391
0.384000000000000230,-0.703896603254942188
0.385000000000000231,-0.719277434779688196
0.386000000000000232,-0.734232712122619313
0.387000000000000233,-0.748766185771745141
0.388000000000000234,-0.762881659707486781
0.389000000000000234,-0.776582992577763087
0.390000000000000235,-0.789874098544132819
0.391000000000000236,-0.802758947818739244
0.392000000000000237,-0.815241566911032778
0.393000000000000238,-0.827326038602756775
0.394000000000000239,-0.839016501668951142
0.395000000000000240,-0.850317150362240204
0.396000000000000241,-0.861232233676963888
0.397000000000000242,-0.871766054409144786
0.398000000000000242,-0.881922968027720855
0.399000000000000243,-0.891707381371772301
0.400000000000000244,-0.901123751188014799
0.401000000000000245,-0.910176582522187916
0.402000000000000246,-0.918870426977336452
0.403000000000000247,-0.927209880851576740
0.404000000000000248,-0.935199583167227844
0.405000000000000249,-0.942844213602779369
0.406000000000000250,-0.950148490338518337
0.407000000000000250,-0.957117167826253779
0.408000000000000251,-0.963755034492952745
0.409000000000000252,-0.970066910387692216
0.410000000000000253,-0.976057644780819578
0.411000000000000254,-0.981732113723751132
0.412000000000000255,-0.987095217577371287
0.413000000000000256,-0.992151878516636443
0.414000000000000257,-0.996907038018391534
0.415000000000000258,-1.001365654339231526
0.416000000000000258,-1.005532699989593493
0.417000000000000259,-1.009413159210077682
0.418000000000000260,-1.013012025455508835
0.419000000000000261,-1.016334298891923282
0.420000000000000262,-1.019384983911328035
0.421000000000000263,-1.022169086668759164
0.422000000000000264,-1.024691612645760364
0.423000000000000265,-1.026957564244215693
0.424000000000000266,-1.028971938414126708
0.425000000000000266,-1.030739724318540107
0.426000000000000267,-1.032265901038760259
0.427000000000000268,-1.033555435322532690
0.428000000000000269,-1.034613279377721629
0.429000000000000270,-1.035444368713802632
0.430000000000000271,-1.036053620033137390
0.431000000000000272,-1.036445929173942737
0.432000000000000273,-1.036626169106501294
0.433000000000000274,-1.036599187984108994
0.434000000000000274,-1.036369807249938990
0.435000000000000275,-1.035942819800921511
0.436000000000000276,-1.035322988209527839
0.437000000000000277,-1.034515043004172741
0.438000000000000278,-1.033523681008838846
0.439000000000000279,-1.032353563742369085
0.440000000000000280,-1.031009315877716048
0.441000000000000281,-1.029495523761323472
0.442000000000000282,-1.027816733992762632
0.443000000000000282,-1.025977452064469109
0.444000000000000283,-1.023982141061538620
0.445000000000000284,-1.021835220421255297
0.446000000000000285,-1.019541064752008896
0.447000000000000286,-1.017104002711257005
0.448000000000000287,-1.014528315941897185
0.449000000000000288,-1.011818238066589881
0.450000000000000289,-1.008977953739298883
0.451000000000000290,-1.006011597753369458
0.452000000000000290,-1.002923254205407400
0.453000000000000291,-0.999716955714063937
0.454000000000000292,-0.996396682692932800
0.455000000000000293,-0.992966362676595660
0.456000000000000294,-0.989429869698881026
0.457000000000000295,-0.985791023722366488
0.458000000000000296,-0.982053590118059150
0.459000000000000297,-0.978221279194255056
0.460000000000000298,-0.974297745773470725
0.461000000000000298,-0.970286588816370199
0.462000000000000299,-0.966191351091573614
0.463000000000000300,-0.962015518890196986
0.464000000000000301,-0.957762521784023546
0.465000000000000302,-0.953435732426122895
0.466000000000000303,-0.949038466392762459
0.467000000000000304,-0.944573982065467277
0.468000000000000305,-0.940045480552039514
0.469000000000000306,-0.935456105645373959
0.470000000000000306,-0.930808943818937862
0.471000000000000307,-0.926107024257669109
0.472000000000000308,-0.921353318923228803
0.473000000000000309,-0.916550742652390227
0.474000000000000310,-0.911702153287434647
0.475000000000000311,-0.906810351837418649
0.476000000000000312,-0.901878082669196557
0.477000000000000313,-0.896908033727059517
0.478000000000000314,-0.891902836779883357
0.479000000000000314,-0.886865067694740161
0.480000000000000315,-0.881797246735829376
0.481000000000000316,-0.876701838887729901
0.482000000000000317,-0.871581254201874267
0.483000000000000318,-0.866437848165258595
0.484000000000000319,-0.861273922090341038
0.485000000000000320,-0.856091723525159609
0.486000000000000321,-0.850893446682681742
0.487000000000000322,-0.845681232888432333
0.488000000000000322,-0.840457171045427165
0.489000000000000323,-0.835223298115568391
0.490000000000000324,-0.829981599616521626
0.491000000000000325,-0.824734010133241879
0.492000000000000326,-0.819482413843255708
0.493000000000000327,-0.814228645054903999
0.494000000000000328,-0.808974488757666643
0.495000000000000329,-0.803721681183834802
0.496000000000000330,-0.798471910380669225
0.497000000000000330,-0.793226816792399481
0.498000000000000331,-0.787987993851173352
0.499000000000000332,-0.782756988576399970
0.500000000000000333,-0.777535302181674659
0.501000000000000334,-0.772324390688631457
0.502000000000000335,-0.767125665547104929
0.503000000000000336,-0.761940494260911261
0.504000000000000337,-0.756770201018668320
0.505000000000000338,-0.751616067329022863
0.506000000000000338,-0.746479332659731210
0.507000000000000339,-0.741361195080021185
0.508000000000000340,-0.736262811905667780
0.509000000000000341,-0.731185300346329115
0.510000000000000342,-0.726129738154538962
0.511000000000000343,-0.721097164275959823
0.512000000000000344,-0.716088579500352651
0.513000000000000345,-0.711104947112854879
0.514000000000000346,-0.706147193545135998
0.515000000000000346,-0.701216209025964710
0.516000000000000347,-0.696312848230819403
0.517000000000000348,-0.691437930930180911
0.518000000000000349,-0.686592242636059114
0.519000000000000350,-0.681776535246486959
0.520000000000000351,-0.676991527687565764
0.521000000000000352,-0.672237906552809572
0.522000000000000353,-0.667516326739401977
0.523000000000000353,-0.662827412081127720
0.524000000000000354,-0.658171755977684070
0.525000000000000355,-0.653549922020074003
0.526000000000000356,-0.648962444611856037
0.527000000000000357,-0.644409829586012783
0.528000000000000358,-0.639892554817165782
0.529000000000000359,-0.635411070828983737
0.530000000000000360,-0.630965801396502379
0.531000000000000361,-0.626557144143234046
0.532000000000000361,-0.622185471132831069
0.533000000000000362,-0.617851129455162740
0.534000000000000363,-0.613554441806619555
0.535000000000000364,-0.609295707064522296
0.536000000000000365,-0.605075200855461848
0.537000000000000366,-0.600893176117476613
0.538000000000000367,-0.596749863655889445
0.539000000000000368,-0.592645472692775899
0.540000000000000369,-0.588580191409856623
0.541000000000000369,-0.584554187484822574
0.542000000000000370,-0.580567608620912501
0.543000000000000371,-0.576620583069731851
0.544000000000000372,-0.572713220147208157
0.545000000000000373,-0.568845610742631513
0.546000000000000374,-0.565017827820712748
0.547000000000000375,-0.561229926916611777
0.548000000000000376,-0.557481946623919034
0.549000000000000377,-0.553773909075502058
0.550000000000000377,-0.550105820417240654
0.551000000000000378,-0.546477671274580912
0.552000000000000379,-0.542889437211931503
0.553000000000000380,-0.539341079184852079
0.554000000000000381,-0.535832543985038101
0.555000000000000382,-0.532363764678131846
0.556000000000000383,-0.528934661034287545
0.557000000000000384,-0.525545139951589690
0.558000000000000385,-0.522195095872249881
0.559000000000000385,-0.518884411191661288
0.560000000000000386,-0.515612956660297050
0.561000000000000387,-0.512380591778485939
0.562000000000000388,-0.509187165184082802
0.563000000000000389,-0.506032515033095986
0.564000000000000390,-0.502916469373255515
0.565000000000000391,-0.499838846510609891
0.566000000000000392,-0.496799455369147602
0.567000000000000393,-0.493798095843537843
0.568000000000000393,-0.490834559144974480
0.569000000000000394,-0.487908628140225009
0.570000000000000395,-0.485020077683916029
0.571000000000000396,-0.482168674944086717
0.572000000000000397,-0.479354179721122597
0.573000000000000398,-0.476576344760052950
0.574000000000000399,-0.473834916056346866
0.575000000000000400,-0.471129633155203620
0.576000000000000401,-0.468460229444437548
0.577000000000000401,-0.465826432441038829
0.578000000000000402,-0.463227964071417642
0.579000000000000403,-0.460664540945440959
0.580000000000000404,-0.458135874624352901
0.581000000000000405,-0.455641671882575761
0.582000000000000406,-0.453181634963542135
0.583000000000000407,-0.450755461829569437
0.584000000000000408,-0.448362846405889137
0.585000000000000409,-0.446003478818883969
0.586000000000000409,-0.443677045628606936
0.587000000000000410,-0.441383230055682863
0.588000000000000411,-0.439121712202615200
0.589000000000000412,-0.436892169269649133
0.590000000000000413,-0.434694275765184657
0.591000000000000414,-0.432527703710878231
0.592000000000000415,-0.430392122841496694
0.593000000000000416,-0.428287200799569612
0.594000000000000417,-0.426212603324946149
0.595000000000000417,-0.424167994439358875
0.596000000000000418,-0.422153036625985911
0.597000000000000419,-0.420167391004201640
0.598000000000000420,-0.418210717499486961
0.599000000000000421,-0.416282675008663172
0.600000000000000422,-0.414382921560466133
0.601000000000000423,-0.412511114471565243
0.602000000000000424,-0.410666910498101445
0.603000000000000425,-0.408849965982823638
0.604000000000000425,-0.407059936997877903
0.605000000000000426,-0.405296479483348460
0.606000000000000427,-0.403559249381643059
0.607000000000000428,-0.401847902767707044
0.608000000000000429,-0.400162095975302279
0.609000000000000430,-0.398501485719224058
0.610000000000000431,-0.396865729213724650
0.611000000000000432,-0.395254484287071273
0.612000000000000433,-0.393667409492373443
0.613000000000000433,-0.392104164214767237
0.614000000000000434,-0.390564408774981775
0.615000000000000435,-0.389047804529379315
