# ZnO1m210NB_CS-61461-AC
# h[nm],U(h)[kJ/mol]
0.149999999999999994,138.585030709712469843
0.150999999999999995,136.105212831411165553
0.151999999999999996,134.137913253891213117
0.152999999999999997,132.316058573873704063
0.153999999999999998,130.503634295887138705
0.154999999999999999,128.671853885827147224
0.156000000000000000,126.833000064164551191
0.157000000000000001,125.007997154692048980
0.158000000000000002,123.212838697543247690
0.159000000000000002,121.454868171219033002
0.160000000000000003,119.733653773071949900
0.161000000000000004,118.043534635748301298
0.162000000000000005,116.376335663628623251
0.163000000000000006,114.723580235201353617
0.164000000000000007,113.077992764783175517
0.165000000000000008,111.434319824680613920
0.166000000000000009,109.789601747135137089
0.167000000000000010,108.143054999910688707
0.168000000000000010,106.495715405922624086
0.169000000000000011,104.849965111841157750
0.170000000000000012,103.209034424251541395
0.171000000000000013,101.576539709072363848
0.172000000000000014,99.956093436617749148
0.173000000000000015,98.351003044757959515
0.174000000000000016,96.764061368609688429
0.175000000000000017,95.197422198011267369
0.176000000000000018,93.652549136608882918
0.177000000000000018,92.130223415757228622
0.178000000000000019,90.630595831077030766
0.179000000000000020,89.153268829091331327
0.180000000000000021,87.697396433383104863
0.181000000000000022,86.261791758330673474
0.182000000000000023,84.845034025190784632
0.183000000000000024,83.445569077137150771
0.184000000000000025,82.061799268282669573
0.185000000000000026,80.692160213839983385
0.186000000000000026,79.335183211385938762
0.187000000000000027,77.989543180807118006
0.188000000000000028,76.654092744245161839
0.189000000000000029,75.327883608360266976
0.190000000000000030,74.010176755021518602
0.191000000000000031,72.700443129321882907
0.192000000000000032,71.398356570055128145
0.193000000000000033,70.103780688669445453
0.194000000000000034,68.816751295426257684
0.195000000000000034,67.537455818945375086
0.196000000000000035,66.266210986221949497
0.197000000000000036,65.003439839351159435
0.198000000000000037,63.749648973884390557
0.199000000000000038,62.505406700227055694
0.200000000000000039,61.271322659480560446
0.201000000000000040,60.048029272243866217
0.202000000000000041,58.836165265074100716
0.203000000000000042,57.636361405222487519
0.204000000000000042,56.449228479604094844
0.205000000000000043,55.275347477742045044
0.206000000000000044,54.115261879185801774
0.207000000000000045,52.969471901909898293
0.208000000000000046,51.838430537572776302
0.209000000000000047,50.722541180351143453
0.210000000000000048,49.622156646505757749
0.211000000000000049,48.537579380126416595
0.212000000000000050,47.469062645036288473
0.213000000000000050,46.416812512164007387
0.214000000000000051,45.380990464539159746
0.215000000000000052,44.361716457335475639
0.216000000000000053,43.359072287148080704
0.217000000000000054,42.373105142170622628
0.218000000000000055,41.403831222515066202
0.219000000000000056,40.451239337095685755
0.220000000000000057,39.515294399900298572
0.221000000000000058,38.595940763825794306
0.222000000000000058,37.693105344364653320
0.223000000000000059,36.806700498183474224
0.224000000000000060,35.936626632971730544
0.225000000000000061,35.082774534853399473
0.226000000000000062,34.245027408169718797
0.227000000000000063,33.423262629622016107
0.228000000000000064,32.617353224682688051
0.229000000000000065,31.827169078936652369
0.230000000000000066,31.052577900708790537
0.231000000000000066,30.293445954069387227
0.232000000000000067,29.549638583203574171
0.233000000000000068,28.821020550284515593
0.234000000000000069,28.107456209510786493
0.235000000000000070,27.408809539952624590
0.236000000000000071,26.724944059391578577
0.237000000000000072,26.055722640515874389
0.238000000000000073,25.401007249728799309
0.239000000000000073,24.760658627506124674
0.240000000000000074,24.134535927760076390
0.241000000000000075,23.522496332088874027
0.242000000000000076,22.924394653153637336
0.243000000000000077,22.340082939769363435
0.244000000000000078,21.769410094656791443
0.245000000000000079,21.212221514201718975
0.246000000000000080,20.668358758032162825
0.247000000000000081,20.137659254765203798
0.248000000000000081,19.619956048909216406
0.249000000000000082,19.115077592642233384
0.250000000000000111,18.622847585027194839
0.251000000000000112,18.143084860175456186
0.252000000000000113,17.675603324929333837
0.253000000000000114,17.220211945804379639
0.254000000000000115,16.776714784206223641
0.255000000000000115,16.344911078314471098
0.256000000000000116,15.924595369500195829
0.257000000000000117,15.515557670709108962
0.258000000000000118,15.117583673893804530
0.259000000000000119,14.730454993307736444
0.260000000000000120,14.353949441275114296
0.261000000000000121,13.987841332918000248
0.262000000000000122,13.631901816246870141
0.263000000000000123,13.285899223998615781
0.264000000000000123,12.949599443628551754
0.265000000000000124,12.622766301926271026
0.266000000000000125,12.305161960821422440
0.267000000000000126,11.996547321071334480
0.268000000000000127,11.696682430670984232
0.269000000000000128,11.405326894994484377
0.270000000000000129,11.122240285860179654
0.271000000000000130,10.847182546905372647
0.272000000000000131,10.579914392859121719
0.273000000000000131,10.320197700507405258
0.274000000000000132,10.067795889353970296
0.275000000000000133,9.822474290187431123
0.276000000000000134,9.584000499970786180
0.277000000000000135,9.352144721670695660
0.278000000000000136,9.126680087838465738
0.279000000000000137,8.907382966943087510
0.280000000000000138,8.694033251636625437
0.281000000000000139,8.486414628302968666
0.282000000000000139,8.284314827402790016
0.283000000000000140,8.087525854278760917
0.284000000000000141,7.895844200226532550
0.285000000000000142,7.709071033767716408
0.286000000000000143,7.527012372181327571
0.287000000000000144,7.349479233460503913
0.288000000000000145,7.176287768960323277
0.289000000000000146,7.007259377093117969
0.290000000000000147,6.842220798506720492
0.291000000000000147,6.681004193252523926
0.292000000000000148,6.523447200510979371
0.293000000000000149,6.369392981495923145
0.294000000000000150,6.218690246203460781
0.295000000000000151,6.071193264708562687
0.296000000000000152,5.926761863742529890
0.297000000000000153,5.785261409307691061
0.298000000000000154,5.646562776102794778
0.299000000000000155,5.510542304543848857
0.300000000000000155,5.377081746170985888
0.301000000000000156,5.246068198233414748
0.302000000000000157,5.117394028240773274
0.303000000000000158,4.990956789262445348
0.304000000000000159,4.866659126745243036
0.305000000000000160,4.744408677606157809
0.306000000000000161,4.624117962340056565
0.307000000000000162,4.505704270862914029
0.308000000000000163,4.389089542790122422
0.309000000000000163,4.274200242826216467
0.310000000000000164,4.160967231917787501
0.311000000000000165,4.049325634795701845
0.312000000000000166,3.939214704505847209
0.313000000000000167,3.830577684500321656
0.314000000000000168,3.723361668832866567
0.315000000000000169,3.617517460974137400
0.316000000000000170,3.512999431733760503
0.317000000000000171,3.409765376747935672
0.318000000000000171,3.307776373962928229
0.319000000000000172,3.206996641516703939
0.320000000000000173,3.107393396393592244
0.321000000000000174,3.008936714199692553
0.322000000000000175,2.911599390380160024
0.323000000000000176,2.815356803173928668
0.324000000000000177,2.720186778576109354
0.325000000000000178,2.626069457554327080
0.326000000000000179,2.532987165741483970
0.327000000000000179,2.440924285805235350
0.328000000000000180,2.349867132672614822
0.329000000000000181,2.259803831767507543
0.330000000000000182,2.170724200399112291
0.331000000000000183,2.082619632420385614
0.332000000000000184,1.995482986257903324
0.333000000000000185,1.909308476397445276
0.334000000000000186,1.824091568393692686
0.335000000000000187,1.739828877457409773
0.336000000000000187,1.656518070659193542
0.337000000000000188,1.574157772775978570
0.338000000000000189,1.492747475793684497
0.339000000000000190,1.412287452068200055
0.340000000000000191,1.332778671136249038
0.341000000000000192,1.254222720157575521
0.342000000000000193,1.176621727961090214
0.343000000000000194,1.099978292658992718
0.344000000000000195,1.024295412785748649
0.345000000000000195,0.949576421911222490
0.346000000000000196,0.875824926671697535
0.347000000000000197,0.803044748156401034
0.348000000000000198,0.731239866582413578
0.349000000000000199,0.660414369186297701
0.350000000000000200,0.590572401256870494
0.351000000000000201,0.521718120230201365
0.352000000000000202,0.453855652765059403
0.353000000000000203,0.386989054714443559
0.354000000000000203,0.321122273906934486
0.355000000000000204,0.256259115650035174
0.356000000000000205,0.192403210866306518
0.357000000000000206,0.129557986772156741
0.358000000000000207,0.067726640008951830
0.359000000000000208,0.006912112135380522
0.360000000000000209,-0.052882932609738906
0.361000000000000210,-0.111656127364612695
0.362000000000000210,-0.169405420611821622
0.363000000000000211,-0.226129092145041788
0.364000000000000212,-0.281825767123617510
0.365000000000000213,-0.336494428302203219
0.366000000000000214,-0.390134426521540623
0.367000000000000215,-0.442745489544910165
0.368000000000000216,-0.494327729323464360
0.369000000000000217,-0.544881647771652045
0.370000000000000218,-0.594408141132584111
0.371000000000000218,-0.642908503010984678
0.372000000000000219,-0.690384426149716068
0.373000000000000220,-0.736838003023777777
0.374000000000000221,-0.782271725323603784
0.375000000000000222,-0.826688482397381130
0.376000000000000223,-0.870091558720252345
0.377000000000000224,-0.912484630455725920
0.378000000000000225,-0.953871761172765398
0.379000000000000226,-0.994257396779696045
0.380000000000000226,-1.033646359734082365
0.381000000000000227,-1.072043842585234996
0.382000000000000228,-1.109455400904261868
0.383000000000000229,-1.145886945654077893
0.384000000000000230,-1.181344735049828509
0.385000000000000231,-1.215835365958166658
0.386000000000000232,-1.249365764881464447
0.387000000000000233,-1.281943178571374409
0.388000000000000234,-1.313575164313742771
0.389000000000000234,-1.344269579925333469
0.390000000000000235,-1.374034573500470202
0.391000000000000236,-1.402878572944165292
0.392000000000000237,-1.430810275326206638
0.393000000000000238,-1.457838636089069606
0.394000000000000239,-1.483972858140563345
0.395000000000000240,-1.509222380860629986
0.396000000000000241,-1.533596869049891565
0.397000000000000242,-1.557106201845980475
0.398000000000000242,-1.579760461632225388
0.399000000000000243,-1.601569922961538550
0.400000000000000244,-1.622545041517132081
0.401000000000000245,-1.642696443130168049
0.402000000000000246,-1.662034912872984993
0.403000000000000247,-1.680571384245482580
0.404000000000000248,-1.698316928470744447
0.405000000000000249,-1.715282743914929853
0.406000000000000250,-1.731480145645173163
0.407000000000000250,-1.746920555138248066
0.408000000000000251,-1.761615490151562380
0.409000000000000252,-1.775576554767106074
0.410000000000000253,-1.788815429617959030
0.411000000000000254,-1.801343862306034271
0.412000000000000255,-1.813173658018827794
0.413000000000000256,-1.824316670352196912
0.414000000000000257,-1.834784792345133919
0.415000000000000258,-1.844589947732103496
0.416000000000000258,-1.853744082417386307
0.417000000000000259,-1.862259156175496200
0.418000000000000260,-1.870147134580889103
0.419000000000000261,-1.877419981169669683
0.420000000000000262,-1.884089649835321012
0.421000000000000263,-1.890168077460096185
0.422000000000000264,-1.895667176782916741
0.423000000000000265,-1.900598829504443588
0.424000000000000266,-1.904974879629354856
0.425000000000000266,-1.908807127045385910
0.426000000000000267,-1.912107321338471833
0.427000000000000268,-1.914887155842787791
0.428000000000000269,-1.917158261924198914
0.429000000000000270,-1.918932203495375077
0.430000000000000271,-1.920220471760341052
0.431000000000000272,-1.921034480186208926
0.432000000000000273,-1.921385559699315237
0.433000000000000274,-1.921284954103009923
0.434000000000000274,-1.920743815713898517
0.435000000000000275,-1.919773201213303526
0.436000000000000276,-1.918384067710495078
0.437000000000000277,-1.916587269013988459
0.438000000000000278,-1.914393552107220176
0.439000000000000279,-1.911813553824662559
0.440000000000000280,-1.908857797724367256
0.441000000000000281,-1.905536691152803996
0.442000000000000282,-1.901860522497889505
0.443000000000000282,-1.897839458625776299
0.444000000000000283,-1.893483542497232719
0.445000000000000284,-1.888802690959132891
0.446000000000000285,-1.883806692706602615
0.447000000000000286,-1.878505206411538397
0.448000000000000287,-1.872907759012776285
0.449000000000000288,-1.867023744163667898
0.450000000000000289,-1.860862420832396280
0.451000000000000290,-1.854432912050629767
0.452000000000000290,-1.847744203806064078
0.453000000000000291,-1.840805144074301181
0.454000000000000292,-1.833624441985749032
0.455000000000000293,-1.826210667123052245
0.456000000000000294,-1.818572248944736458
0.457000000000000295,-1.810717476330753417
0.458000000000000296,-1.802654497245581577
0.459000000000000297,-1.794391318514755529
0.460000000000000298,-1.785935805710546109
0.461000000000000298,-1.777295683142747773
0.462000000000000299,-1.768478533950494924
0.463000000000000300,-1.759491800291064667
0.464000000000000301,-1.750342783621823717
0.465000000000000302,-1.741038645071394386
0.466000000000000303,-1.731586405896242242
0.467000000000000304,-1.721992948019029912
0.468000000000000305,-1.712265014645008465
0.469000000000000306,-1.702409210952920304
0.470000000000000306,-1.692432004856958994
0.471000000000000307,-1.682339727836235754
0.472000000000000308,-1.672138575828559848
0.473000000000000309,-1.661834610185178862
0.474000000000000310,-1.651433758683312991
0.475000000000000311,-1.640941816593371128
0.476000000000000312,-1.630364447797876704
0.477000000000000313,-1.619707185959056162
0.478000000000000314,-1.608975435732288073
0.479000000000000314,-1.598174474022641567
0.480000000000000315,-1.587309451281695205
0.481000000000000316,-1.576385392842128086
0.482000000000000317,-1.565407200287400658
0.483000000000000318,-1.554379652854147809
0.484000000000000319,-1.543307408864802444
0.485000000000000320,-1.532195007188164260
0.486000000000000321,-1.521046868725648871
0.487000000000000322,-1.509867297921025919
0.488000000000000322,-1.498660484291495676
0.489000000000000323,-1.487430503978182772
0.490000000000000324,-1.476181321313941197
0.491000000000000325,-1.464916790406657565
0.492000000000000326,-1.453640656736166381
0.493000000000000327,-1.442356558763078667
0.494000000000000328,-1.431068029547734710
0.495000000000000329,-1.419778498377741727
0.496000000000000330,-1.408491292402410222
0.497000000000000330,-1.397209638272735477
0.498000000000000331,-1.385936663785255707
0.499000000000000332,-1.374675399528633601
0.500000000000000333,-1.363428780531455997
0.501000000000000334,-1.352199647910017344
0.502000000000000335,-1.340990750514912122
0.503000000000000336,-1.329804746575212304
0.504000000000000337,-1.318644205339143838
0.505000000000000338,-1.307511608710172357
0.506000000000000338,-1.296409352877521570
0.507000000000000339,-1.285339749940117571
0.508000000000000340,-1.274305029523036925
0.509000000000000341,-1.263307340385670940
0.510000000000000342,-1.252348752020636669
0.511000000000000343,-1.241431256242784276
0.512000000000000344,-1.230556768767451903
0.513000000000000345,-1.219727130777338742
0.514000000000000346,-1.208944110477321754
0.515000000000000346,-1.198209404636551900
0.516000000000000347,-1.187524640117264330
0.517000000000000348,-1.176891375389815142
0.518000000000000349,-1.166311102033293912
0.519000000000000350,-1.155785246221388451
0.520000000000000351,-1.145315170192901633
0.521000000000000352,-1.134902173706649808
0.522000000000000353,-1.124547495480225923
0.523000000000000353,-1.114252314612345307
0.524000000000000354,-1.104017751988457974
0.525000000000000355,-1.093844871669254148
0.526000000000000356,-1.083734682261848103
0.527000000000000357,-1.073688138273398263
0.528000000000000358,-1.063706141446866482
0.529000000000000359,-1.053789542078830355
0.530000000000000360,-1.043939140319036785
0.531000000000000361,-1.034155687451661532
0.532000000000000361,-1.024439887158061335
0.533000000000000362,-1.014792396760942017
0.534000000000000363,-1.005213828449817104
0.535000000000000364,-0.995704750487722556
0.536000000000000365,-0.986265688399069029
0.537000000000000366,-0.976897126138664640
0.538000000000000367,-0.967599507241769574
0.539000000000000368,-0.958373235955334857
0.540000000000000369,-0.949218678350234213
0.541000000000000369,-0.940136163414703296
0.542000000000000370,-0.931125984128830853
0.543000000000000371,-0.922188398520300323
0.544000000000000372,-0.913323630701346922
0.545000000000000373,-0.904531871887029881
0.546000000000000374,-0.895813281394894467
0.547000000000000375,-0.887167987626095389
0.548000000000000376,-0.878596089028124361
0.549000000000000377,-0.870097655039204554
0.550000000000000377,-0.861672727014493822
0.551000000000000378,-0.853321319134190737
0.552000000000000379,-0.845043419293750708
0.553000000000000380,-0.836838989976256054
0.554000000000000381,-0.828707969107137288
0.555000000000000382,-0.820650270891449929
0.556000000000000383,-0.812665786633721687
0.557000000000000384,-0.804754385540726092
0.558000000000000385,-0.796915915507174111
0.559000000000000385,-0.789150203884622758
0.560000000000000386,-0.781457058233733792
0.561000000000000387,-0.773836267060061367
0.562000000000000388,-0.766287600533559599
0.563000000000000389,-0.758810811192039969
0.564000000000000390,-0.751405634628706576
0.565000000000000391,-0.744071790164028690
0.566000000000000392,-0.736808981502100169
0.567000000000000393,-0.729616897371757167
0.568000000000000393,-0.722495212152563515
0.569000000000000394,-0.715443586485952521
0.570000000000000395,-0.708461667871714385
0.571000000000000396,-0.701549091249982548
0.572000000000000397,-0.694705479569041162
0.573000000000000398,-0.687930444339031388
0.574000000000000399,-0.681223586171896711
0.575000000000000400,-0.674584495307677279
0.576000000000000401,-0.668012752127418730
0.577000000000000401,-0.661507927652934313
0.578000000000000402,-0.655069584033553753
0.579000000000000403,-0.648697275020124309
0.580000000000000404,-0.642390546426511388
0.581000000000000405,-0.636148936578713298
0.582000000000000406,-0.629971976751904528
0.583000000000000407,-0.623859191595534712
0.584000000000000408,-0.617810099546764913
0.585000000000000409,-0.611824213232392333
0.586000000000000409,-0.605901039859494395
0.587000000000000410,-0.600040081595033525
0.588000000000000411,-0.594240835934537914
0.589000000000000412,-0.588502796060184630
0.590000000000000413,-0.582825451188362487
0.591000000000000414,-0.577208286907008428
0.592000000000000415,-0.571650785502890391
0.593000000000000416,-0.566152426278998755
0.594000000000000417,-0.560712685862275961
0.595000000000000417,-0.555331038501926999
0.596000000000000418,-0.550006956358347621
0.597000000000000419,-0.544739909783075626
0.598000000000000420,-0.539529367589743680
0.599000000000000421,-0.534374797316383821
0.600000000000000422,-0.529275665479163493
0.601000000000000423,-0.524231437817776813
0.602000000000000424,-0.519241579532676245
0.603000000000000425,-0.514305555514310453
0.604000000000000425,-0.509422830564525309
0.605000000000000426,-0.504592869610335115
0.606000000000000427,-0.499815137910247231
0.607000000000000428,-0.495089101253188946
0.608000000000000429,-0.490414226150438448
0.609000000000000430,-0.485789980020420731
0.610000000000000431,-0.481215831366825220
0.611000000000000432,-0.476691249949985907
0.612000000000000433,-0.472215706951779057
0.613000000000000433,-0.467788675134202414
0.614000000000000434,-0.463409628991745148
