# ZnO1m210NB_BGALNA-AC
# h[nm],U(h)[kJ/mol]
0.200000000000000011,173.247576148185117972
0.201000000000000012,170.219792829540153889
0.202000000000000013,167.648032639998916693
0.203000000000000014,165.332381031233921931
0.204000000000000015,163.152842615220095013
0.205000000000000016,161.041098869002041738
0.206000000000000016,158.961210289705235255
0.207000000000000017,156.896681297048957049
0.208000000000000018,154.841996620755651293
0.209000000000000019,152.797254707204785973
0.210000000000000020,150.764908427798502544
0.211000000000000021,148.747908073600285661
0.212000000000000022,146.748750836220779092
0.213000000000000023,144.769093496960238099
0.214000000000000024,142.809695210487944905
0.215000000000000024,140.870535972767697785
0.216000000000000025,138.951011856200750572
0.217000000000000026,137.050146597781605351
0.218000000000000027,135.166785303979196442
0.219000000000000028,133.299753369204665887
0.220000000000000029,131.447974772403426869
0.221000000000000030,129.610550616009902569
0.222000000000000031,127.786802487119160787
0.223000000000000032,125.976286951238421352
0.224000000000000032,124.178787946629242356
0.225000000000000033,122.394293532183425555
0.226000000000000034,120.622962698452397490
0.227000000000000035,118.865087011216516544
0.228000000000000036,117.121050869849568699
0.229000000000000037,115.391293221130695201
0.230000000000000038,113.676272725384094997
0.231000000000000039,111.976437650923386968
0.232000000000000040,110.292201181771275742
0.233000000000000040,108.623922358214485939
0.234000000000000041,106.971892518981945841
0.235000000000000042,105.336326863319484914
0.236000000000000043,103.717360585362300185
0.237000000000000044,102.115048936526420675
0.238000000000000045,100.529370529725028405
0.239000000000000046,98.960233199159617357
0.240000000000000047,97.407481760034713147
0.241000000000000048,95.870907064377661300
0.242000000000000048,94.350255814461121417
0.243000000000000049,92.845240667933893519
0.244000000000000050,91.355550243855788040
0.245000000000000051,89.880858712769850172
0.246000000000000052,88.420834724129150572
0.247000000000000053,86.975149489024161653
0.248000000000000054,85.543483894135363244
0.249000000000000055,84.125534573578619302
0.250000000000000056,82.721018908655679525
0.251000000000000056,81.329678961609857879
0.252000000000000057,79.951284378681876319
0.253000000000000058,78.585634320577455014
0.254000000000000059,77.232558495501137941
0.255000000000000060,75.891917381841096812
0.256000000000000061,74.563601735076602495
0.257000000000000062,73.247531477179592230
0.258000000000000063,71.943654067333369539
0.259000000000000064,70.651942450770476967
0.260000000000000064,69.372392678484374073
0.261000000000000065,68.105021284971684281
0.262000000000000066,66.849862504436700306
0.263000000000000067,65.606965398410338253
0.264000000000000068,64.376390959811416792
0.265000000000000069,63.158209250371591281
0.266000000000000070,61.952496620278587613
0.267000000000000071,60.759333051029770445
0.268000000000000071,59.578799654975185263
0.269000000000000072,58.410976357958745098
0.270000000000000073,57.255939784918737701
0.271000000000000074,56.113761362327977622
0.272000000000000075,54.984505645966827103
0.273000000000000076,53.868228877741842098
0.274000000000000077,52.764977771080658897
0.275000000000000078,51.674788520834567862
0.276000000000000079,50.597686030582551098
0.277000000000000079,49.533683347716305434
0.278000000000000080,48.482781294667418592
0.279000000000000081,47.444968283066629056
0.280000000000000082,46.420220296469032917
0.281000000000000083,45.408501026488757191
0.282000000000000084,44.409762146727238985
0.283000000000000085,43.423943708706275402
0.284000000000000086,42.450974644091942878
0.285000000000000087,41.490773357786125075
0.286000000000000087,40.543248396927424437
0.287000000000000088,39.608299181456821714
0.288000000000000089,38.685816782633935418
0.289000000000000090,37.775684736708761591
0.290000000000000091,36.877779881843373744
0.291000000000000092,35.991973207308213034
0.292000000000000093,35.118130704938948838
0.293000000000000094,34.256114213808920965
0.294000000000000095,33.405782250039067094
0.295000000000000095,32.566990814617248873
0.296000000000000096,31.739594173025277968
0.297000000000000097,30.923445601362480772
0.298000000000000098,30.118398094506879659
0.299000000000000099,29.324305032660127779
0.300000000000000100,28.541020803380057203
0.301000000000000101,27.768401376908293798
0.302000000000000102,27.006304833253459208
0.303000000000000103,26.254591840085748089
0.304000000000000103,25.513126081043310478
0.305000000000000104,24.781774634539335267
0.306000000000000105,24.060408303595899326
0.307000000000000106,23.348901897617409418
0.308000000000000107,22.647134467353257747
0.309000000000000108,21.954989494591679033
0.310000000000000109,21.272355038372193548
0.311000000000000110,20.599123839712625283
0.312000000000000111,19.935193387010819777
0.313000000000000111,19.280465944415873025
0.314000000000000112,18.634848545560380728
0.315000000000000113,17.998252955114899976
0.316000000000000114,17.370595600666398184
0.317000000000000115,16.751797477439673401
0.318000000000000116,16.141784028374548399
0.319000000000000117,15.540485002046915852
0.320000000000000118,14.947834290879352892
0.321000000000000119,14.363769752028968441
0.322000000000000119,13.788233013270419391
0.323000000000000120,13.221169266111036933
0.324000000000000121,12.662527048283383380
0.325000000000000122,12.112258017664213838
0.326000000000000123,11.570316719564385011
0.327000000000000124,11.036660349226471212
0.328000000000000125,10.511248511255610438
0.329000000000000126,9.994042977596336641
0.330000000000000127,9.485007445553657490
0.331000000000000127,8.984107297243381751
0.332000000000000128,8.491309361743264006
0.333000000000000129,8.006581681105135573
0.334000000000000130,7.529893281279638195
0.335000000000000131,7.061213948897650639
0.336000000000000132,6.600514014751198033
0.337000000000000133,6.147764144715583079
0.338000000000000134,5.702935138759683831
0.339000000000000135,5.265997738600948885
0.340000000000000135,4.836922444473183980
0.341000000000000136,4.415679341394499247
0.342000000000000137,4.002237935244357558
0.343000000000000138,3.596566998886401301
0.344000000000000139,3.198634428504681271
0.345000000000000140,2.808407110258531070
0.346000000000000141,2.425850797301631001
0.347000000000000142,2.050929997157029838
0.348000000000000143,1.683607869389846190
0.349000000000000143,1.323846133474023024
0.350000000000000144,0.971604986708058282
0.351000000000000145,0.626843031997858291
0.352000000000000146,0.289517215290946706
0.353000000000000147,-0.040417227582729608
0.354000000000000148,-0.363006814934533240
0.355000000000000149,-0.678299854399094349
0.356000000000000150,-0.986346469587506491
0.357000000000000151,-1.287198618541211648
0.358000000000000151,-1.580910104329702692
0.359000000000000152,-1.867536578145858828
0.360000000000000153,-2.147135535261620820
0.361000000000000154,-2.419766304211941943
0.362000000000000155,-2.685490029580056781
0.363000000000000156,-2.944369648758165425
0.364000000000000157,-3.196469863058237770
0.365000000000000158,-3.441857103546483110
0.366000000000000159,-3.680599491971087822
0.367000000000000159,-3.912766797149854092
0.368000000000000160,-4.138430387177429282
0.369000000000000161,-4.357663177806190724
0.370000000000000162,-4.570539577346766080
0.371000000000000163,-4.777135428425578922
0.372000000000000164,-4.977527946927930103
0.373000000000000165,-5.171795658444779065
0.374000000000000166,-5.360018332531739205
0.375000000000000167,-5.542276915076580934
0.376000000000000167,-5.718653459061866506
0.377000000000000168,-5.889231053996622833
0.378000000000000169,-6.054093754279673334
0.379000000000000170,-6.213326506745171507
0.380000000000000171,-6.367015077629194941
0.381000000000000172,-6.515245979183636571
0.382000000000000173,-6.658106396152176032
0.383000000000000174,-6.795684112310891756
0.384000000000000175,-6.928067437264265216
0.385000000000000175,-7.055345133675430702
0.386000000000000176,-7.177606345098740626
0.387000000000000177,-7.294940524570161067
0.388000000000000178,-7.407437364101419064
0.389000000000000179,-7.515186725211651542
0.390000000000000180,-7.618278570620832468
0.391000000000000181,-7.716802897218525636
0.392000000000000182,-7.810849670411508683
0.393000000000000183,-7.900508759944765202
0.394000000000000183,-7.985869877280492801
0.395000000000000184,-8.067022514611357664
0.396000000000000185,-8.144055885575443909
0.397000000000000186,-8.217058867732051297
0.398000000000000187,-8.286119946850096341
0.399000000000000188,-8.351327163052967961
0.400000000000000189,-8.412768058856531894
0.401000000000000190,-8.470529629130787441
0.402000000000000191,-8.524698273008514349
0.403000000000000191,-8.575359747758612983
0.404000000000000192,-8.622599124636129986
0.405000000000000193,-8.666500746715170678
0.406000000000000194,-8.707148188706353764
0.407000000000000195,-8.744624218755244982
0.408000000000000196,-8.779010762213951935
0.409000000000000197,-8.810388867373973198
0.410000000000000198,-8.838838673144513436
0.411000000000000199,-8.864439378656543411
0.412000000000000199,-8.887269214770395109
0.413000000000000200,-8.907405417460635633
0.414000000000000201,-8.924924203050125016
0.415000000000000202,-8.939900745261944337
0.416000000000000203,-8.952409154055917639
0.417000000000000204,-8.962522456214383482
0.418000000000000205,-8.970312577639779406
0.419000000000000206,-8.975850327325328948
0.420000000000000207,-8.979205382958157955
0.421000000000000207,-8.980446278113562997
0.422000000000000208,-8.979640390997223776
0.423000000000000209,-8.976853934692183401
0.424000000000000210,-8.972151948865775495
0.425000000000000211,-8.965598292891609589
0.426000000000000212,-8.957255640341186265
0.427000000000000213,-8.947185474799042026
0.428000000000000214,-8.935448086955565472
0.429000000000000214,-8.922102572931198239
0.430000000000000215,-8.907206833785831890
0.431000000000000216,-8.890817576167483693
0.432000000000000217,-8.872990314054240102
0.433000000000000218,-8.853779371543961219
0.434000000000000219,-8.833237886646632120
0.435000000000000220,-8.811417816034580852
0.436000000000000221,-8.788369940706370897
0.437000000000000222,-8.764143872520651968
0.438000000000000222,-8.738788061557146492
0.439000000000000223,-8.712349804262334629
0.440000000000000224,-8.684875252338370544
0.441000000000000225,-8.656409422334309767
0.442000000000000226,-8.626996205899926551
0.443000000000000227,-8.596678380662700292
0.444000000000000228,-8.565497621690063568
0.445000000000000229,-8.533494513499345402
0.446000000000000230,-8.500708562579028182
0.447000000000000230,-8.467178210386062887
0.448000000000000231,-8.432940846784537925
0.449000000000000232,-8.398032823892133791
0.450000000000000233,-8.362489470302161720
0.451000000000000234,-8.326345105649094691
0.452000000000000235,-8.289633055487575675
0.453000000000000236,-8.252385666454788549
0.454000000000000237,-8.214634321688041751
0.455000000000000238,-8.176409456469652781
0.456000000000000238,-8.137740574072619637
0.457000000000000239,-8.098656261781403742
0.458000000000000240,-8.059184207063177396
0.459000000000000241,-8.019351213865610006
0.460000000000000242,-7.979183219018702644
0.461000000000000243,-7.938705308718475351
0.462000000000000244,-7.897941735071905001
0.463000000000000245,-7.856915932682623449
0.464000000000000246,-7.815650535258757081
0.465000000000000246,-7.774167392224168971
0.466000000000000247,-7.732487585315915624
0.467000000000000248,-7.690631445151242751
0.468000000000000249,-7.648618567748409092
0.469000000000000250,-7.606467830986289869
0.470000000000000251,-7.564197410988626302
0.471000000000000252,-7.521824798419409319
0.472000000000000253,-7.479366814676919439
0.473000000000000254,-7.436839627974135780
0.474000000000000254,-7.394258769294593137
0.475000000000000255,-7.351639148212834485
0.476000000000000256,-7.308995068569720033
0.477000000000000257,-7.266340243993283821
0.478000000000000258,-7.223687813256402634
0.479000000000000259,-7.181050355463355572
0.480000000000000260,-7.138439905057782475
0.481000000000000261,-7.095867966645035274
0.482000000000000262,-7.053345529622694343
0.483000000000000262,-7.010883082613451833
0.484000000000000263,-6.968490627694812645
0.485000000000000264,-6.926177694421069120
0.486000000000000265,-6.883953353633006422
0.487000000000000266,-6.841826231051382656
0.488000000000000267,-6.799804520650866380
0.489000000000000268,-6.757895997811229627
0.490000000000000269,-6.716108032243125692
0.491000000000000270,-6.674447600686280957
0.492000000000000270,-6.632921299377964708
0.493000000000000271,-6.591535356290355807
0.494000000000000272,-6.550295643135491730
0.495000000000000273,-6.509207687136739473
0.496000000000000274,-6.468276682566397540
0.497000000000000275,-6.427507502048844579
0.498000000000000276,-6.386904707629343037
0.499000000000000277,-6.346472561608601737
0.500000000000000222,-6.306215037143470425
0.501000000000000334,-6.266135828614594949
0.502000000000000224,-6.226238361761757822
0.503000000000000336,-6.186525803588042827
0.504000000000000226,-6.147001072034202096
0.505000000000000338,-6.107666845424466473
0.506000000000000227,-6.068525571685747799
0.507000000000000339,-6.029579477341738603
0.508000000000000229,-5.990830576284080777
0.509000000000000341,-5.952280678322507512
0.510000000000000231,-5.913931397516436483
0.511000000000000343,-5.875784160290043801
0.512000000000000233,-5.837840213333571171
0.513000000000000345,-5.800100631293173770
0.514000000000000234,-5.762566324252292205
0.515000000000000346,-5.725238045006838306
0.516000000000000236,-5.688116396137516517
0.517000000000000348,-5.651201836881766027
0.518000000000000238,-5.614494689808635641
0.519000000000000350,-5.577995147299283474
0.520000000000000240,-5.541703277836427688
0.521000000000000352,-5.505619032105808053
0.522000000000000242,-5.469742248912735860
0.523000000000000353,-5.434072660917015796
0.524000000000000243,-5.398609900189425659
0.525000000000000355,-5.363353503593055294
0.526000000000000245,-5.328302917992706611
0.527000000000000357,-5.293457505295659615
0.528000000000000247,-5.258816547327151092
0.529000000000000359,-5.224379250543757180
0.530000000000000249,-5.190144750588110867
0.531000000000000361,-5.156112116688142066
0.532000000000000250,-5.122280355904219817
0.533000000000000362,-5.088648417227409126
0.534000000000000252,-5.055215195532154482
0.535000000000000364,-5.021979535386665638
0.536000000000000254,-4.988940234724249301
0.537000000000000366,-4.956096048378665131
0.538000000000000256,-4.923445691487001064
0.539000000000000368,-4.890987842762879012
0.540000000000000258,-4.858721147643494831
0.541000000000000369,-4.826644221313260097
0.542000000000000259,-4.794755651607469638
0.543000000000000371,-4.763054001798744608
0.544000000000000261,-4.731537813269483195
0.545000000000000373,-4.700205608073214414
0.546000000000000263,-4.669055891387822399
0.547000000000000375,-4.638087153863420298
0.548000000000000265,-4.607297873868094307
0.549000000000000377,-4.576686519633815564
0.550000000000000266,-4.546251551305861227
0.551000000000000378,-4.515991422898038010
0.552000000000000268,-4.485904584156664043
0.553000000000000380,-4.455989482335892760
0.554000000000000270,-4.426244563887012262
0.555000000000000382,-4.396668276064165326
0.556000000000000272,-4.367259068449294901
0.557000000000000384,-4.338015394398385460
0.558000000000000274,-4.308935712411892993
0.559000000000000385,-4.280018487431300755
0.560000000000000275,-4.251262192064519496
0.561000000000000387,-4.222665307742163421
0.562000000000000277,-4.194226325807076883
0.563000000000000389,-4.165943748539286062
0.564000000000000279,-4.137816090118542789
0.565000000000000391,-4.109841877526514864
0.566000000000000281,-4.082019651390787374
0.567000000000000393,-4.054347966772570366
0.568000000000000282,-4.026825393900246297
0.569000000000000394,-3.999450518850486080
0.570000000000000284,-3.972221944179027187
0.571000000000000396,-3.945138289502763573
0.572000000000000286,-3.918198192035156069
0.573000000000000398,-3.891400307076459342
0.574000000000000288,-3.864743308460704352
0.575000000000000400,-3.838225888961008359
0.576000000000000290,-3.811846760654822308
0.577000000000000401,-3.785604655250730310
0.578000000000000291,-3.759498324378355072
0.579000000000000403,-3.733526539842832115
0.580000000000000293,-3.707688093845396882
0.581000000000000405,-3.681981799171359704
0.582000000000000295,-3.656406489347083344
0.583000000000000407,-3.630961018767064452
0.584000000000000297,-3.605644262792587540
0.585000000000000409,-3.580455117823196254
0.586000000000000298,-3.555392501342190315
0.587000000000000410,-3.530455351937356490
0.588000000000000300,-3.505642629298151292
0.589000000000000412,-3.480953314190339931
0.590000000000000302,-3.456386408409345190
0.591000000000000414,-3.431940934713298752
0.592000000000000304,-3.407615936736813289
0.593000000000000416,-3.383410478886437200
0.594000000000000306,-3.359323646218951076
0.595000000000000417,-3.335354544303160473
0.596000000000000307,-3.311502299066341859
0.597000000000000419,-3.287766056626082900
0.598000000000000309,-3.264144983108432818
0.599000000000000421,-3.240638264453099104
0.600000000000000311,-3.217245106206636507
0.601000000000000423,-3.193964733304216264
0.602000000000000313,-3.170796389840877083
0.603000000000000425,-3.147739338832811651
0.604000000000000314,-3.124792861969621249
0.605000000000000426,-3.101956259357860457
0.606000000000000316,-3.079228849256872902
0.607000000000000428,-3.056609967807253803
0.608000000000000318,-3.034098968752756864
0.609000000000000430,-3.011695223155984813
0.610000000000000320,-2.989398119108702012
0.611000000000000432,-2.967207061436981430
0.612000000000000322,-2.945121471401981772
0.613000000000000433,-2.923140786396660307
0.614000000000000323,-2.901264459638965398
0.615000000000000435,-2.879491959861959494
0.616000000000000325,-2.857822771001279794
0.617000000000000437,-2.836256391880356720
0.618000000000000327,-2.814792335893862241
0.619000000000000439,-2.793430130689594115
0.620000000000000329,-2.772169317849369374
0.621000000000000441,-2.751009452569141533
0.622000000000000330,-2.729950103338690148
0.623000000000000442,-2.708990851621253082
0.624000000000000332,-2.688131291533347511
0.625000000000000444,-2.667371029525097192
0.626000000000000334,-2.646709684061360868
0.627000000000000446,-2.626146885303841660
0.628000000000000336,-2.605682274794534514
0.629000000000000448,-2.585315505140669323
0.630000000000000338,-2.565046239701414432
0.631000000000000449,-2.544874152276520363
0.632000000000000339,-2.524798926797121368
0.633000000000000451,-2.504820257018901319
0.634000000000000341,-2.484937846217759372
0.635000000000000453,-2.465151406888204555
0.636000000000000343,-2.445460660444555234
0.637000000000000455,-2.425865336925160598
0.638000000000000345,-2.406365174699813370
0.639000000000000457,-2.386959920180291572
0.640000000000000346,-2.367649327534489423
0.641000000000000458,-2.348433158403838483
0.642000000000000348,-2.329311181624539095
0.643000000000000460,-2.310283172952331210
0.644000000000000350,-2.291348914791182523
0.645000000000000462,-2.272508195925773133
0.646000000000000352,-2.253760811257994767
0.647000000000000464,-2.235106561547397508
0.648000000000000353,-2.216545253155846495
0.649000000000000465,-2.198076697796154111
0.650000000000000355,-2.179700712285066455
0.651000000000000467,-2.161417118300344331
0.652000000000000357,-2.143225742142246482
0.653000000000000469,-2.125126414499194816
0.654000000000000359,-2.107118970217899623
0.655000000000000471,-2.089203248077721398
0.656000000000000361,-2.071379090569545500
0.657000000000000473,-2.053646343678892983
0.658000000000000362,-2.036004856673597097
0.659000000000000474,-2.018454481895759933
0.660000000000000364,-2.000995074558216569
0.661000000000000476,-1.983626492545319309
0.662000000000000366,-1.966348596218213673
