# ZnO1m210NB_HISTIDINEZWITTER
# h[nm],U(h)[kJ/mol]
0.200000000000000011,112.097418877194996867
0.201000000000000012,110.380533010154664453
0.202000000000000013,108.611675696568681815
0.203000000000000014,106.816180089607271952
0.204000000000000015,105.011420574661386240
0.205000000000000016,103.208942677858630077
0.206000000000000016,101.416108938465526990
0.207000000000000017,99.637352070765203393
0.208000000000000018,97.875113728617392894
0.209000000000000019,96.130534905616698893
0.210000000000000020,94.403952821036796195
0.211000000000000021,92.695249226504955686
0.212000000000000022,91.004086461077733361
0.213000000000000023,89.330060241374809493
0.214000000000000024,87.672792008025439259
0.215000000000000024,86.031978543367159773
0.216000000000000025,84.407412401247455591
0.217000000000000026,82.798983320966840438
0.218000000000000027,81.206668113107681961
0.219000000000000028,79.630514394412358570
0.220000000000000029,78.070621912879872184
0.221000000000000030,76.527123956024951212
0.222000000000000031,75.000170400005274018
0.223000000000000032,73.489913271603199973
0.224000000000000032,71.996495205688944452
0.225000000000000033,70.520040843800330777
0.226000000000000034,69.060650998867487260
0.227000000000000035,67.618399277806958025
0.228000000000000036,66.193330784455980620
0.229000000000000037,64.785462501779207400
0.230000000000000038,63.394784960170895260
0.231000000000000039,62.021264827042557499
0.232000000000000040,60.664848093477836244
0.233000000000000040,59.325463580460862545
0.234000000000000041,58.003026535669633290
0.235000000000000042,56.697442139040866493
0.236000000000000043,55.408608779262372934
0.237000000000000044,54.136421002827830762
0.238000000000000045,52.880772071672268453
0.239000000000000046,51.641556094501837038
0.240000000000000047,50.418669720838749981
0.241000000000000048,49.212013405829715396
0.242000000000000048,48.021492268442955265
0.243000000000000049,46.847016576302131341
0.244000000000000050,45.688501897612482594
0.245000000000000051,44.545868964936417456
0.246000000000000052,43.419043297491278111
0.247000000000000053,42.307954628623875237
0.248000000000000054,41.212536183594401962
0.249000000000000055,40.132723850146433620
0.250000000000000056,39.068455280875497238
0.251000000000000056,38.019668962409078006
0.252000000000000057,36.986303282109375345
0.253000000000000058,35.968295618593273844
0.254000000000000059,34.965581477980222758
0.255000000000000060,33.978093693548629517
0.256000000000000061,33.005761702488086939
0.257000000000000062,32.048510909743050945
0.258000000000000063,31.106262145593280621
0.259000000000000064,30.178931220630609289
0.260000000000000064,29.266428579179585512
0.261000000000000065,28.368659049970197827
0.262000000000000066,27.485521690987916088
0.263000000000000067,26.616909723889428108
0.264000000000000068,25.762710552151343535
0.265000000000000069,24.922805856191395435
0.266000000000000070,24.097071758040055300
0.267000000000000071,23.285379047712826406
0.268000000000000071,22.487593463214345491
0.269000000000000072,21.703576016064573651
0.270000000000000073,20.933183354348120275
0.271000000000000074,20.176268155526088321
0.272000000000000075,19.432679541589653383
0.273000000000000076,18.702263509556857457
0.274000000000000077,17.984863370797690152
0.275000000000000078,17.280320193199852241
0.276000000000000079,16.588473240745077675
0.277000000000000079,15.909160405636551872
0.278000000000000080,15.242218628695400895
0.279000000000000081,14.587484304312429373
0.280000000000000082,13.944793666798366516
0.281000000000000083,13.313983155509600209
0.282000000000000084,12.694889756636268174
0.283000000000000085,12.087351320018395739
0.284000000000000086,11.491206849800708056
0.285000000000000087,10.906296768149120524
0.286000000000000087,10.332463151625558950
0.287000000000000088,9.769549940156270651
0.288000000000000089,9.217403118830805653
0.289000000000000090,8.675870873033881381
0.290000000000000091,8.144803717644931496
0.291000000000000092,7.624054601236549544
0.292000000000000093,7.113478986370253665
0.293000000000000094,6.612934907224070180
0.294000000000000095,6.122283005895460484
0.295000000000000095,5.641386548805339629
0.296000000000000096,5.170111424689208590
0.297000000000000097,4.708326125698603093
0.298000000000000098,4.255901713155227029
0.299000000000000099,3.812711769500894743
0.300000000000000100,3.378632337973133559
0.301000000000000101,2.953541851508195037
0.302000000000000102,2.537321052335510085
0.303000000000000103,2.129852903677573295
0.304000000000000103,1.731022494913932119
0.305000000000000104,1.340716941503342419
0.306000000000000105,0.958825280889770148
0.307000000000000106,0.585238365545063921
0.308000000000000107,0.219848754224946152
0.309000000000000108,-0.137449397562178888
0.310000000000000109,-0.486760446953710069
0.311000000000000110,-0.828187372156109824
0.312000000000000111,-1.161831879130395651
0.313000000000000111,-1.487794505852802374
0.314000000000000112,-1.806174723539668348
0.315000000000000113,-2.117071034298326992
0.316000000000000114,-2.420581064736355703
0.317000000000000115,-2.716801655128740389
0.318000000000000116,-3.005828943807225873
0.319000000000000117,-3.287758446496718001
0.320000000000000118,-3.562685130381100240
0.321000000000000119,-3.830703482734945542
0.322000000000000119,-4.091907574007399795
0.323000000000000120,-4.346391115290924922
0.324000000000000121,-4.594247510150978542
0.325000000000000122,-4.835569900831285572
0.326000000000000123,-5.070451208885268457
0.327000000000000124,-5.298984170316415998
0.328000000000000125,-5.521261365339245053
0.329000000000000126,-5.737375242897932992
0.330000000000000127,-5.947418140102526785
0.331000000000000127,-6.151482296761926705
0.332000000000000128,-6.349659865209804188
0.333000000000000129,-6.542042915633790479
0.334000000000000130,-6.728723437129562335
0.335000000000000131,-6.909793334711572754
0.336000000000000132,-7.085344422518195628
0.337000000000000133,-7.255468413455257171
0.338000000000000134,-7.420256905524750479
0.339000000000000135,-7.579801365086805909
0.340000000000000135,-7.734193107303873660
0.341000000000000136,-7.883523274013796822
0.342000000000000137,-8.027882809276450260
0.343000000000000138,-8.167362432834291752
0.344000000000000139,-8.302052611722967157
0.345000000000000140,-8.432043530261841724
0.346000000000000141,-8.557425058648126637
0.347000000000000142,-8.678286720371032104
0.348000000000000143,-8.794717658654695569
0.349000000000000143,-8.906806602130245665
0.350000000000000144,-9.014641829929031402
0.351000000000000145,-9.118311136379688264
0.352000000000000146,-9.217901795483095739
0.353000000000000147,-9.313500525329356350
0.354000000000000148,-9.405193452612030214
0.355000000000000149,-9.493066077385012846
0.356000000000000150,-9.577203238198107371
0.357000000000000151,-9.657689077737991568
0.358000000000000151,-9.734607009091792662
0.359000000000000152,-9.808039682741412690
0.360000000000000153,-9.878068954387915213
0.361000000000000154,-9.944775853695961843
0.362000000000000155,-10.008240554040355619
0.363000000000000156,-10.068542343327925082
0.364000000000000157,-10.125759595960047932
0.365000000000000158,-10.179969745993648900
0.366000000000000159,-10.231249261550365404
0.367000000000000159,-10.279673620517176147
0.368000000000000160,-10.325317287574232950
0.369000000000000161,-10.368253692579596503
0.370000000000000162,-10.408555210334103691
0.371000000000000163,-10.446293141743765887
0.372000000000000164,-10.481537696391525216
0.373000000000000165,-10.514357976524976834
0.374000000000000166,-10.544821962461806919
0.375000000000000167,-10.572996499409798687
0.376000000000000167,-10.598947285694421794
0.377000000000000168,-10.622738862382664848
0.378000000000000169,-10.644434604288154134
0.379000000000000170,-10.664096712339333095
0.380000000000000171,-10.681786207289263757
0.381000000000000172,-10.697562924742641144
0.382000000000000173,-10.711485511473210153
0.383000000000000174,-10.723611423002477494
0.384000000000000175,-10.733996922408184815
0.385000000000000175,-10.742697080329463688
0.386000000000000176,-10.749765776134051265
0.387000000000000177,-10.755255700210870629
0.388000000000000178,-10.759218357351070239
0.389000000000000179,-10.761704071178563424
0.390000000000000180,-10.762761989590945433
0.391000000000000181,-10.762440091170748957
0.392000000000000182,-10.760785192526375553
0.393000000000000183,-10.757842956521926681
0.394000000000000183,-10.753657901354605642
0.395000000000000184,-10.748273410438669018
0.396000000000000185,-10.741731743054527826
0.397000000000000186,-10.734074045721964552
0.398000000000000187,-10.725340364256755521
0.399000000000000188,-10.715569656470115945
0.400000000000000189,-10.704799805470909035
0.401000000000000190,-10.693067633531235572
0.402000000000000191,-10.680408916476384462
0.403000000000000191,-10.666858398560881582
0.404000000000000192,-10.652449807793193060
0.405000000000000193,-10.637215871672204059
0.406000000000000194,-10.621188333299691919
0.407000000000000195,-10.604397967833627092
0.408000000000000196,-10.586874599248224271
0.409000000000000197,-10.568647117367504507
0.410000000000000198,-10.549743495140230465
0.411000000000000199,-10.530190806124755554
0.412000000000000199,-10.510015242153913917
0.413000000000000200,-10.489242131150341208
0.414000000000000201,-10.467895955064438596
0.415000000000000202,-10.446000367907563700
0.416000000000000203,-10.423578213854543861
0.417000000000000204,-10.400651545390456221
0.418000000000000205,-10.377241641477620959
0.419000000000000206,-10.353369025720008167
0.420000000000000207,-10.329053484502928484
0.421000000000000207,-10.304314085087476371
0.422000000000000208,-10.279169193639422275
0.423000000000000209,-10.253636493174074218
0.424000000000000210,-10.227733001399050394
0.425000000000000211,-10.201475088437984340
0.426000000000000212,-10.174878494419422381
0.427000000000000213,-10.147958346915647354
0.428000000000000214,-10.120729178217494848
0.429000000000000214,-10.093204942431816207
0.430000000000000215,-10.065399032389303002
0.431000000000000216,-10.037324296351162189
0.432000000000000217,-10.008993054503955378
0.433000000000000218,-9.980417115232643965
0.434000000000000219,-9.951607791162864203
0.435000000000000220,-9.922575914964017585
0.436000000000000221,-9.893331854905518696
0.437000000000000222,-9.863885530159333115
0.438000000000000222,-9.834246425842518846
0.439000000000000223,-9.804423607794278794
0.440000000000000224,-9.774425737082404808
0.441000000000000225,-9.744261084234906889
0.442000000000000226,-9.713937543193056356
0.443000000000000227,-9.683462644982405720
0.444000000000000228,-9.652843571099534614
0.445000000000000229,-9.622087166611894560
0.446000000000000230,-9.591199952969342135
0.447000000000000230,-9.560188140526118872
0.448000000000000231,-9.529057640772455429
0.449000000000000232,-9.497814078275387928
0.450000000000000233,-9.466462802329022708
0.451000000000000234,-9.435008898314450221
0.452000000000000235,-9.403457198770304615
0.453000000000000236,-9.371812294174855396
0.454000000000000237,-9.340078543441379111
0.455000000000000238,-9.308260084128205492
0.456000000000000238,-9.276360842365750869
0.457000000000000239,-9.244384542502677604
0.458000000000000240,-9.212334716473748131
0.459000000000000241,-9.180214712892119877
0.460000000000000242,-9.148027705869129278
0.461000000000000243,-9.115776703564629102
0.462000000000000244,-9.083464556471414042
0.463000000000000245,-9.051093965436990629
0.464000000000000246,-9.018667489426716699
0.465000000000000246,-8.986187553031857789
0.466000000000000247,-8.953656453726654973
0.467000000000000248,-8.921076368878456009
0.468000000000000249,-8.888449362515064678
0.469000000000000250,-8.855777391853603575
0.470000000000000251,-8.823062313595244177
0.471000000000000252,-8.790305889990118970
0.472000000000000253,-8.757509794677201143
0.473000000000000254,-8.724675618303248115
0.474000000000000254,-8.691804873925843111
0.475000000000000255,-8.658899002204785589
0.476000000000000256,-8.625959376386717281
0.477000000000000257,-8.592987307087550874
0.478000000000000258,-8.559984046877342934
0.479000000000000259,-8.526950794672368161
0.480000000000000260,-8.493888699939043718
0.481000000000000261,-8.460798866714323907
0.482000000000000262,-8.427682357447285000
0.483000000000000262,-8.394540196666543608
0.484000000000000263,-8.361373374478016984
0.485000000000000264,-8.328182849897739715
0.486000000000000265,-8.294969554024227421
0.487000000000000266,-8.261734393054833703
0.488000000000000267,-8.228478251150690426
0.489000000000000268,-8.195201993154572762
0.490000000000000269,-8.161906467166071266
0.491000000000000270,-8.128592506978439047
0.492000000000000270,-8.095260934381292017
0.493000000000000271,-8.061912561333482330
0.494000000000000272,-8.028548192010218187
0.495000000000000273,-7.995168624728515638
0.496000000000000274,-7.961774653755066211
0.497000000000000275,-7.928367071000411492
0.498000000000000276,-7.894946667603365498
0.499000000000000277,-7.861514235409470253
0.500000000000000222,-7.828070568347255787
0.501000000000000334,-7.794616463705992260
0.502000000000000224,-7.761152723318526903
0.503000000000000336,-7.727680154652730948
0.504000000000000226,-7.694199571815085292
0.505000000000000338,-7.660711796469676926
0.506000000000000227,-7.627217658676083367
0.507000000000000339,-7.593717997649214624
0.508000000000000229,-7.560213662444422944
0.509000000000000341,-7.526705512570844192
0.510000000000000231,-7.493194418536168300
0.511000000000000343,-7.459681262325564610
0.512000000000000233,-7.426166937817830771
0.513000000000000345,-7.392652351141376421
0.514000000000000234,-7.359138420973037498
0.515000000000000346,-7.325626078781999340
0.516000000000000236,-7.292116269021792441
0.517000000000000348,-7.258609949272562645
0.518000000000000238,-7.225108090336322952
0.519000000000000350,-7.191611676287290145
0.520000000000000240,-7.158121704479813552
0.521000000000000352,-7.124639185516064899
0.522000000000000242,-7.091165143175608421
0.523000000000000353,-7.057700614309018405
0.524000000000000243,-7.024246648697532791
0.525000000000000355,-6.990804308880737672
0.526000000000000245,-6.957374669954224267
0.527000000000000357,-6.923958819338932535
0.528000000000000247,-6.890557856524175406
0.529000000000000359,-6.857172892785838414
0.530000000000000249,-6.823805050881626144
0.531000000000000361,-6.790455464724791668
0.532000000000000250,-6.757125279038047161
0.533000000000000362,-6.723815648989038607
0.534000000000000252,-6.690527739808871388
0.535000000000000364,-6.657262726395084762
0.536000000000000254,-6.624021792900443018
0.537000000000000366,-6.590806132308642873
0.538000000000000256,-6.557616945998523406
0.539000000000000368,-6.524455443297549451
0.540000000000000258,-6.491322841026092583
0.541000000000000369,-6.458220363033258415
0.542000000000000259,-6.425149239725641337
0.543000000000000371,-6.392110707589699459
0.544000000000000261,-6.359106008708939939
0.545000000000000373,-6.326136390276716703
0.546000000000000263,-6.293203104105596246
0.547000000000000375,-6.260307406133955865
0.548000000000000265,-6.227450555930957421
0.549000000000000377,-6.194633816200207477
0.550000000000000266,-6.161858452283274445
0.551000000000000378,-6.129125731663402021
0.552000000000000268,-6.096436923470307079
0.553000000000000380,-6.063793297986537212
0.554000000000000270,-6.031196126156136650
0.555000000000000382,-5.998646679095939405
0.556000000000000272,-5.966146227610347630
0.557000000000000384,-5.933696041709707103
0.558000000000000274,-5.901297390133185772
0.559000000000000385,-5.868951539876142043
0.560000000000000275,-5.836659755722822140
0.561000000000000387,-5.804423299784462920
0.562000000000000277,-5.772243431043348139
0.563000000000000389,-5.740121404903066882
0.564000000000000279,-5.708058472745383582
0.565000000000000391,-5.676055881493892841
0.566000000000000281,-5.644114873184880921
0.567000000000000393,-5.612236684545480081
0.568000000000000282,-5.580422546579569598
0.569000000000000394,-5.548673684161369302
0.570000000000000284,-5.516991315637190141
0.571000000000000396,-5.485376652435302702
0.572000000000000286,-5.453830898684285167
0.573000000000000398,-5.422355250839745011
0.574000000000000288,-5.390950897319839896
0.575000000000000400,-5.359619018149448522
0.576000000000000290,-5.328360784613296097
0.577000000000000401,-5.297177358917932288
0.578000000000000291,-5.266069893862821871
0.579000000000000403,-5.235039532520447736
0.580000000000000293,-5.204087407925604758
0.581000000000000405,-5.173214642773763750
0.582000000000000295,-5.142422349128759507
0.583000000000000407,-5.111711628139547159
0.584000000000000297,-5.081083569766246200
0.585000000000000409,-5.050539252515346078
0.586000000000000298,-5.020079743184143517
0.587000000000000410,-4.989706096614268560
0.588000000000000300,-4.959419355454434353
0.589000000000000412,-4.929220549932162854
0.590000000000000302,-4.899110697634646350
0.591000000000000414,-4.869090803298554704
0.592000000000000304,-4.839161858608791889
0.593000000000000416,-4.809324842006050815
0.594000000000000306,-4.779580718503247283
0.595000000000000417,-4.749930439510571922
0.596000000000000307,-4.720374942669222307
0.597000000000000419,-4.690915151693621610
0.598000000000000309,-4.661551976222144233
0.599000000000000421,-4.632286311676073076
0.600000000000000311,-4.603119039126930545
0.601000000000000423,-4.574051025171810281
0.602000000000000313,-4.545083121816851701
0.603000000000000425,-4.516216166368495877
0.604000000000000314,-4.487450981332702149
0.605000000000000426,-4.458788374321661863
0.606000000000000316,-4.430229137968227704
0.607000000000000428,-4.401774049847650971
0.608000000000000318,-4.373423872406748458
0.609000000000000430,-4.345179352900125913
0.610000000000000320,-4.317041223333597522
0.611000000000000432,-4.289010200414388407
0.612000000000000322,-4.261086985508255154
0.613000000000000433,-4.233272264603188617
0.614000000000000323,-4.205566708279696364
0.615000000000000435,-4.177970971687460455
0.616000000000000325,-4.150485694528272873
0.617000000000000437,-4.123111501045068295
0.618000000000000327,-4.095849000017040886
0.619000000000000439,-4.068698784760488074
0.620000000000000329,-4.041661433135504744
0.621000000000000441,-4.014737507558203689
0.622000000000000330,-3.987927555018417447
0.623000000000000442,-3.961232107102700351
0.624000000000000332,-3.934651680022565934
0.625000000000000444,-3.908186774647720796
0.626000000000000334,-3.881837876544296684
0.627000000000000446,-3.855605456017796140
0.628000000000000336,-3.829489968160773028
0.629000000000000448,-3.803491852904983261
0.630000000000000338,-3.777611535078010174
0.631000000000000449,-3.751849424464082094
0.632000000000000339,-3.726205915869116758
0.633000000000000451,-3.700681389189727444
0.634000000000000341,-3.675276209486172174
0.635000000000000453,-3.649990727059046147
0.636000000000000343,-3.624825277529659218
0.637000000000000455,-3.599780181923891487
0.638000000000000345,-3.574855746759558084
0.639000000000000457,-3.550052264136934532
0.640000000000000346,-3.525370011832616335
0.641000000000000458,-3.500809253396282461
0.642000000000000348,-3.476370238250569678
0.643000000000000460,-3.452053201793643389
0.644000000000000350,-3.427858365504614202
0.645000000000000462,-3.403785937051480914
0.646000000000000352,-3.379836110401679861
0.647000000000000464,-3.356009065934925761
0.648000000000000353,-3.332304970558523927
0.649000000000000465,-3.308723977824691076
0.650000000000000355,-3.285266228050170323
0.651000000000000467,-3.261931848437686021
0.652000000000000357,-3.238720953199452968
0.653000000000000469,-3.215633643682371368
0.654000000000000359,-3.192670008495061218
0.655000000000000471,-3.169830123636411479
0.656000000000000361,-3.147114052625796354
0.657000000000000473,-3.124521846634601197
0.658000000000000362,-3.102053544619254311
0.659000000000000474,-3.079709173455429383
0.660000000000000364,-3.057488748073539764
0.661000000000000476,-3.035392271595259928
