# ZnO1m210NB_BSAIV1
# h[nm],U(h)[kJ/mol]
0.149999999999999994,134.162884659277722221
0.150999999999999995,132.756010637260942531
0.151999999999999996,131.359218227862641015
0.152999999999999997,129.943467988956143699
0.153999999999999998,128.508038077723995229
0.154999999999999999,127.062763796811736938
0.156000000000000000,125.618926634447760193
0.157000000000000001,124.185253795386913112
0.158000000000000002,122.766764291599656644
0.159000000000000002,121.365055308399817591
0.160000000000000003,119.979189712625270658
0.161000000000000004,118.606712733232740220
0.162000000000000005,117.244557084295891514
0.163000000000000006,115.889736079079057163
0.164000000000000007,114.539804852161211102
0.165000000000000008,113.193112135741714042
0.166000000000000009,111.848883675975230290
0.167000000000000010,110.507183018853694989
0.168000000000000010,109.168792363431549575
0.169000000000000011,107.835049479487935287
0.170000000000000012,106.507668758704809875
0.171000000000000013,105.188566715926711481
0.172000000000000014,103.879705409265483240
0.173000000000000015,102.582961610755134529
0.174000000000000016,101.300025184939883616
0.175000000000000017,100.032326931174026186
0.176000000000000018,98.780993956845605908
0.177000000000000018,97.546829288994402418
0.178000000000000019,96.330311718920555109
0.179000000000000020,95.131611643243218168
0.180000000000000021,93.950618773973431530
0.181000000000000022,92.786977923511770427
0.182000000000000023,91.640129536648075259
0.183000000000000024,90.509352171247968499
0.184000000000000025,89.393804671885959579
0.185000000000000026,88.292566301311836696
0.186000000000000026,87.204673570821867656
0.187000000000000027,86.129152929439825925
0.188000000000000028,85.065048827539285980
0.189000000000000029,84.011446962555297091
0.190000000000000030,82.967492745646978847
0.191000000000000031,81.932405203732017185
0.192000000000000032,80.905486657646562776
0.193000000000000033,79.886128601246198855
0.194000000000000034,78.873814255064544909
0.195000000000000034,77.868118288359752910
0.196000000000000035,76.868704201145604316
0.197000000000000036,75.875319838595004285
0.198000000000000037,74.887791478762338215
0.199000000000000038,73.906016894916234605
0.200000000000000039,72.929957749227966701
0.201000000000000040,71.959631627793655184
0.202000000000000041,70.995103980081893269
0.203000000000000042,70.036480180478065449
0.204000000000000042,69.083897886793650400
0.205000000000000043,68.137519831216849298
0.206000000000000044,67.197527143677262984
0.207000000000000045,66.264113276235974581
0.208000000000000046,65.337478569940884654
0.209000000000000047,64.417825482519646130
0.210000000000000048,63.505354476120714935
0.211000000000000049,62.600260548788483561
0.212000000000000050,61.702730381150807659
0.213000000000000050,60.812940060566553768
0.214000000000000051,59.931053338367476613
0.215000000000000052,59.057220371489123067
0.216000000000000053,58.191576897376194211
0.217000000000000054,57.334243790254809880
0.218000000000000055,56.485326947392593411
0.219000000000000056,55.644917455550150009
0.220000000000000057,54.813091990227370331
0.221000000000000058,53.989913403314517382
0.222000000000000058,53.175431458188199940
0.223000000000000059,52.369683674992188571
0.224000000000000060,51.572696252679477880
0.225000000000000061,50.784485038258864620
0.226000000000000062,50.005056517496271340
0.227000000000000063,49.234408805000967391
0.228000000000000064,48.472532615126205258
0.229000000000000065,47.719412198391331970
0.230000000000000066,46.975026231164839885
0.231000000000000066,46.239348649114873524
0.232000000000000067,45.512349417430478127
0.233000000000000068,44.793995233038927495
0.234000000000000069,44.084250156000166498
0.235000000000000070,43.383076168954275431
0.236000000000000071,42.690433664947221359
0.237000000000000072,42.006281865177086843
0.238000000000000073,41.330579169204568757
0.239000000000000073,40.663283440977224359
0.240000000000000074,40.004352234641174846
0.241000000000000075,39.353742964579630836
0.242000000000000076,38.711413024438925845
0.243000000000000077,38.077319860099116511
0.244000000000000078,37.451421001633931951
0.245000000000000079,36.833674059298644465
0.246000000000000080,36.224036688500909520
0.247000000000000081,35.622466528559428411
0.248000000000000081,35.028921119853251298
0.249000000000000082,34.443357803721184496
0.250000000000000111,33.865733609194073495
0.251000000000000112,33.296005130345434964
0.252000000000000113,32.734128397731353743
0.253000000000000114,32.180058747069537617
0.254000000000000115,31.633750687983358318
0.255000000000000115,31.095157775314373083
0.256000000000000116,30.564232485193052469
0.257000000000000117,30.040926097751498247
0.258000000000000118,29.525188588071301865
0.259000000000000119,29.016968526681854001
0.260000000000000120,28.516212990664605798
0.261000000000000121,28.022867486176238572
0.262000000000000122,27.536875882979813923
0.263000000000000123,27.058180361367682565
0.264000000000000123,26.586721371673860403
0.265000000000000124,26.122437606406442967
0.266000000000000125,25.665265984881234118
0.267000000000000126,25.215141650107078419
0.268000000000000127,24.771997977558601889
0.269000000000000128,24.335766595375186938
0.270000000000000129,23.906377415441745882
0.271000000000000130,23.483758674739213745
0.272000000000000131,23.067836986298029700
0.273000000000000131,22.658537399045457050
0.274000000000000132,22.255783465806963761
0.275000000000000133,21.859497318701155422
0.276000000000000134,21.469599751156319911
0.277000000000000135,21.086010305774596674
0.278000000000000136,20.708647367273460560
0.279000000000000137,20.337428259745870207
0.280000000000000138,19.972269347497537240
0.281000000000000139,19.613086138740932540
0.282000000000000139,19.259793391452255662
0.283000000000000140,18.912305220726544519
0.284000000000000141,18.570535206998645350
0.285000000000000142,18.234396504532170979
0.286000000000000143,17.903801949614724265
0.287000000000000144,17.578664167935141194
0.288000000000000145,17.258895680656436866
0.289000000000000146,16.944409008737203237
0.290000000000000147,16.635116775091923103
0.291000000000000147,16.330931804219694925
0.292000000000000148,16.031767218967850397
0.293000000000000149,15.737536534134317634
0.294000000000000150,15.448153746648042528
0.295000000000000151,15.163533422101551196
0.296000000000000152,14.883590777443000519
0.297000000000000153,14.608241759667185633
0.298000000000000154,14.337403120374796472
0.299000000000000155,14.070992486098500507
0.300000000000000155,13.808928424321157635
0.301000000000000156,13.551130505137198412
0.302000000000000157,13.297519358531435074
0.303000000000000158,13.048016727272292670
0.304000000000000159,12.802545515436175805
0.305000000000000160,12.561029832598750389
0.306000000000000161,12.323395033745963900
0.307000000000000162,12.089567754972971869
0.308000000000000163,11.859475945053233659
0.309000000000000163,11.633048892972626120
0.310000000000000164,11.410217251534238159
0.311000000000000165,11.190913057149440846
0.312000000000000166,10.975069745939160626
0.313000000000000167,10.762622166276454294
0.314000000000000168,10.553506587907586223
0.315000000000000169,10.347660707793629342
0.316000000000000170,10.145023652818611737
0.317000000000000171,9.945535979513129732
0.318000000000000171,9.749139670944485303
0.319000000000000172,9.555778130925434155
0.320000000000000173,9.365396175694389314
0.321000000000000174,9.177940023219465004
0.322000000000000175,8.993357280277997745
0.323000000000000176,8.811596927461710749
0.324000000000000177,8.632609302255580985
0.325000000000000178,8.456346080336436088
0.326000000000000179,8.282760255233780455
0.327000000000000179,8.111806116492820351
0.328000000000000180,7.943439226475577541
0.329000000000000181,7.777616395932422044
0.330000000000000182,7.614295658472149064
0.331000000000000183,7.453436244054446824
0.332000000000000184,7.294998551624215288
0.333000000000000185,7.138944121002521292
0.334000000000000186,6.985235604144364174
0.335000000000000187,6.833836735868568546
0.336000000000000187,6.684712304160306928
0.337000000000000188,6.537828120142132882
0.338000000000000189,6.393150987804164131
0.339000000000000190,6.250648673579592085
0.340000000000000191,6.110289875846699914
0.341000000000000192,5.972044194433972386
0.342000000000000193,5.835882100200045386
0.343000000000000194,5.701774904755732010
0.344000000000000195,5.569694730391076654
0.345000000000000195,5.439614480265484886
0.346000000000000196,5.311507808915282070
0.347000000000000197,5.185349093128450271
0.348000000000000198,5.061113403232453400
0.349000000000000199,4.938776474837164976
0.350000000000000200,4.818314681070982708
0.351000000000000201,4.699705005344755548
0.352000000000000202,4.582925014674572139
0.353000000000000203,4.467952833591080974
0.354000000000000203,4.354767118659807146
0.355000000000000204,4.243347033633975585
0.356000000000000205,4.133672225258296251
0.357000000000000206,4.025722799739318347
0.358000000000000207,3.919479299895640700
0.359000000000000208,3.814922682998424186
0.360000000000000209,3.712034299310353447
0.361000000000000210,3.610795871329249618
0.362000000000000210,3.511189473739990241
0.363000000000000211,3.413197514076831141
0.364000000000000212,3.316802714096103166
0.365000000000000213,3.221988091857708181
0.366000000000000214,3.128736944512155116
0.367000000000000215,3.037032831788446519
0.368000000000000216,2.946859560176618320
0.369000000000000217,2.858201167797735032
0.370000000000000218,2.771041909952652649
0.371000000000000218,2.685366245340102598
0.372000000000000219,2.601158822933428816
0.373000000000000220,2.518404469504586629
0.374000000000000221,2.437088177783175436
0.375000000000000222,2.357195095237667459
0.376000000000000223,2.278710513465036946
0.377000000000000224,2.201619858174942657
0.378000000000000225,2.125908679753689245
0.379000000000000226,2.051562644393086110
0.380000000000000226,1.978567525768705426
0.381000000000000227,1.906909197252064869
0.382000000000000228,1.836573624640708502
0.383000000000000229,1.767546859390216385
0.384000000000000230,1.699815032331974507
0.385000000000000231,1.633364347860330579
0.386000000000000232,1.568181078573010589
0.387000000000000233,1.504251560348295325
0.388000000000000234,1.441562187842907683
0.389000000000000234,1.380099410394270532
0.390000000000000235,1.319849728311154546
0.391000000000000236,1.260799689536777235
0.392000000000000237,1.202935886668564214
0.393000000000000238,1.146244954319024956
0.394000000000000239,1.090713566802417933
0.395000000000000240,1.036328436132027964
0.396000000000000241,0.983076310313246049
0.397000000000000242,0.930943971917864155
0.398000000000000242,0.879918236925226305
0.399000000000000243,0.829985953816345989
0.400000000000000244,0.781134002907180602
0.401000000000000245,0.733349295907749110
0.402000000000000246,0.686618775694145866
0.403000000000000247,0.640929416280567210
0.404000000000000248,0.596268222979182361
0.405000000000000249,0.552622232735722640
0.406000000000000250,0.509978514629234381
0.407000000000000250,0.468324170524614836
0.408000000000000251,0.427646335867049199
0.409000000000000252,0.387932180607766131
0.410000000000000253,0.349168910250847286
0.411000000000000254,0.311343767011273420
0.412000000000000255,0.274444031074694117
0.413000000000000256,0.238457021949681464
0.414000000000000257,0.203370099903811330
0.415000000000000258,0.169170667474899172
0.416000000000000258,0.135846171049492787
0.417000000000000259,0.103384102500632305
0.418000000000000260,0.071772000877572517
0.419000000000000261,0.040997454140218402
0.420000000000000262,0.011048100931582793
0.421000000000000263,-0.018088367618369117
0.422000000000000264,-0.046424206063524417
0.423000000000000265,-0.073971612793080774
0.424000000000000266,-0.100742728169225956
0.425000000000000266,-0.126749632656265765
0.426000000000000267,-0.152004344946350484
0.427000000000000268,-0.176518820086455863
0.428000000000000269,-0.200304947611113088
0.429000000000000270,-0.223374549685196933
0.430000000000000271,-0.245739379260607349
0.431000000000000272,-0.267411118250734492
0.432000000000000273,-0.288401375726060172
0.433000000000000274,-0.308721686134273476
0.434000000000000274,-0.328383507547875209
0.435000000000000275,-0.347398219942138542
0.436000000000000276,-0.365777123506049961
0.437000000000000277,-0.383531436988639229
0.438000000000000278,-0.400672296082949075
0.439000000000000279,-0.417210751849702521
0.440000000000000280,-0.433157769182519359
0.441000000000000281,-0.448524225316373037
0.442000000000000282,-0.463320908380910612
0.443000000000000282,-0.477558515999872146
0.444000000000000283,-0.491247653937989359
0.445000000000000284,-0.504398834796342621
0.446000000000000285,-0.517022476757151517
0.447000000000000286,-0.529128902378888433
0.448000000000000287,-0.540728337442258011
0.449000000000000288,-0.551830909847782491
0.450000000000000289,-0.562446648565308238
0.451000000000000290,-0.572585482635853404
0.452000000000000290,-0.582257240226074058
0.453000000000000291,-0.591471647735381190
0.454000000000000292,-0.600238328955903788
0.455000000000000293,-0.608566804285159746
0.456000000000000294,-0.616466489991364108
0.457000000000000295,-0.623946697531217898
0.458000000000000296,-0.631016632919812137
0.459000000000000297,-0.637685396152435802
0.460000000000000298,-0.643961980677780432
0.461000000000000298,-0.649855272922170046
0.462000000000000299,-0.655374051864249685
0.463000000000000300,-0.660526988659550618
0.464000000000000301,-0.665322646314388977
0.465000000000000302,-0.669769479408362844
0.466000000000000303,-0.673875833864757467
0.467000000000000304,-0.677649946768177136
0.468000000000000305,-0.681099946228519437
0.469000000000000306,-0.684233851290563355
0.470000000000000306,-0.687059571888349319
0.471000000000000307,-0.689584908843363764
0.472000000000000308,-0.691817553905773042
0.473000000000000309,-0.693765089837733329
0.474000000000000310,-0.695434990537830311
0.475000000000000311,-0.696834621205731697
0.476000000000000312,-0.697971238546082007
0.477000000000000313,-0.698851991010677409
0.478000000000000314,-0.699483919077878769
0.479000000000000314,-0.699873955568366624
0.480000000000000315,-0.700028925996138307
0.481000000000000316,-0.699955548953825835
0.482000000000000317,-0.699660436531256424
0.483000000000000318,-0.699150094766303631
0.484000000000000319,-0.698430924126986041
0.485000000000000320,-0.697509220023805554
0.486000000000000321,-0.696391173351344372
0.487000000000000322,-0.695082871058110396
0.488000000000000322,-0.693590296743562873
0.489000000000000323,-0.691919331281479533
0.490000000000000324,-0.690075753468530895
0.491000000000000325,-0.688065240697161906
0.492000000000000326,-0.685893369651785378
0.493000000000000327,-0.683565617027367733
0.494000000000000328,-0.681087360269400532
0.495000000000000329,-0.678463878334384263
0.496000000000000330,-0.675700352469820187
0.497000000000000330,-0.672801867012936428
0.498000000000000331,-0.669773410207028963
0.499000000000000332,-0.666619875034785370
0.500000000000000333,-0.663346060067549703
0.501000000000000334,-0.659956670329672535
0.502000000000000335,-0.656456318177227716
0.503000000000000336,-0.652849524190126873
0.504000000000000337,-0.649140718076923529
0.505000000000000338,-0.645334239591428105
0.506000000000000338,-0.641434339460433378
0.507000000000000339,-0.637445180321714711
0.508000000000000340,-0.633370837671573095
0.509000000000000341,-0.629215300821270751
0.510000000000000342,-0.624982473861473764
0.511000000000000343,-0.620676176634199495
0.512000000000000344,-0.616300145711411895
0.513000000000000345,-0.611858035379707066
0.514000000000000346,-0.607353418630432018
0.515000000000000346,-0.602789788154529660
0.516000000000000347,-0.598170557341561437
0.517000000000000348,-0.593499061282315110
0.518000000000000349,-0.588778557774335409
0.519000000000000350,-0.584012228329921279
0.520000000000000351,-0.579203179185905914
0.521000000000000352,-0.574354442314842784
0.522000000000000353,-0.569468976436917740
0.523000000000000353,-0.564549668032201635
0.524000000000000354,-0.559599332352704981
0.525000000000000355,-0.554620714433770923
0.526000000000000356,-0.549616490104331779
0.527000000000000357,-0.544589266995649690
0.528000000000000358,-0.539541585548010572
0.529000000000000359,-0.534475920015092809
0.530000000000000360,-0.529394679465461371
0.531000000000000361,-0.524300208780953958
0.532000000000000361,-0.519194789651470034
0.533000000000000362,-0.514080641565894503
0.534000000000000363,-0.508959922798741249
0.535000000000000364,-0.503834731392269530
0.536000000000000365,-0.498707106133669253
0.537000000000000366,-0.493579027527106529
0.538000000000000367,-0.488452418760230767
0.539000000000000368,-0.483329146665006704
0.540000000000000369,-0.478211022672449804
0.541000000000000369,-0.473099803761176996
0.542000000000000370,-0.467997193399355804
0.543000000000000371,-0.462904842479990808
0.544000000000000372,-0.457824350249206868
0.545000000000000373,-0.452757265227399508
0.546000000000000374,-0.447705086122999585
0.547000000000000375,-0.442669262738702607
0.548000000000000376,-0.437651196869983938
0.549000000000000377,-0.432652243195711494
0.550000000000000377,-0.427673710160740406
0.551000000000000378,-0.422716860850273435
0.552000000000000379,-0.417782913855955562
0.553000000000000380,-0.412873044133465927
0.554000000000000381,-0.407988383851537795
0.555000000000000382,-0.403130023232343426
0.556000000000000383,-0.398299011383013102
0.557000000000000384,-0.393496357118355622
0.558000000000000385,-0.388723029774532158
0.559000000000000385,-0.383979960013734023
0.560000000000000386,-0.379268040619732627
0.561000000000000387,-0.374588127284224304
0.562000000000000388,-0.369941039383938519
0.563000000000000389,-0.365327560748481273
0.564000000000000390,-0.360748440418800942
0.565000000000000391,-0.356204393396301833
0.566000000000000392,-0.351696101382532378
0.567000000000000393,-0.347224213509476187
0.568000000000000393,-0.342789347060333482
0.569000000000000394,-0.338392088180873740
0.570000000000000395,-0.334032992581301813
0.571000000000000396,-0.329712586228613880
0.572000000000000397,-0.325431366029515889
0.573000000000000398,-0.321189800503814071
0.574000000000000399,-0.316988330448378985
0.575000000000000400,-0.312827369591628324
0.576000000000000401,-0.308707305238558938
0.577000000000000401,-0.304628498906430845
0.578000000000000402,-0.300591286950989800
0.579000000000000403,-0.296595981183352342
0.580000000000000404,-0.292642869477617085
0.581000000000000405,-0.288732216369106232
0.582000000000000406,-0.284864263643442084
0.583000000000000407,-0.281039230916358296
0.584000000000000408,-0.277257316204399362
0.585000000000000409,-0.273518696486492907
0.586000000000000409,-0.269823528256463330
0.587000000000000410,-0.266171948066583341
0.588000000000000411,-0.262564073062126146
0.589000000000000412,-0.259000001507104560
0.590000000000000413,-0.255479813301133007
0.591000000000000414,-0.252003570487566164
0.592000000000000415,-0.248571317752956628
0.593000000000000416,-0.245183082917862949
0.594000000000000417,-0.241838877419121523
0.595000000000000417,-0.238538696783678589
0.596000000000000418,-0.235282521093934577
0.597000000000000419,-0.232070315444856845
0.598000000000000420,-0.228902030392749367
0.599000000000000421,-0.225777602395918459
0.600000000000000422,-0.222696954247199846
0.601000000000000423,-0.219659995498470761
0.602000000000000424,-0.216666622877251497
0.603000000000000425,-0.213716720695435569
0.604000000000000425,-0.210810161250243100
0.605000000000000426,-0.207946805217489261
0.606000000000000427,-0.205126502037290492
0.607000000000000428,-0.202349090292152756
0.608000000000000429,-0.199614398077772787
0.609000000000000430,-0.196922243366335015
0.610000000000000431,-0.194272434362682656
0.611000000000000432,-0.191664769853240963
0.612000000000000433,-0.189099039547863140
0.613000000000000433,-0.186575024414713464
0.614000000000000434,-0.184092497008211176
