# ZnO1m210NB_BSAIV7
# h[nm],U(h)[kJ/mol]
0.149999999999999994,199.194679173051383714
0.150999999999999995,195.381373392399609656
0.151999999999999996,193.154294557530050724
0.152999999999999997,191.298422455860247737
0.153999999999999998,189.359054689099309599
0.154999999999999999,187.242175716269372288
0.156000000000000000,184.997365690346356359
0.157000000000000001,182.708681941885146216
0.158000000000000002,180.446827780216636938
0.159000000000000002,178.254083184614898983
0.160000000000000003,176.145118288512605886
0.161000000000000004,174.114137621069488659
0.162000000000000005,172.143301010908459148
0.163000000000000006,170.210039491895855690
0.164000000000000007,168.292400846361175581
0.165000000000000008,166.372360829671521287
0.166000000000000009,164.437409413763191424
0.167000000000000010,162.480849671802019429
0.168000000000000010,160.501244493672231783
0.169000000000000011,158.501382386203488295
0.170000000000000012,156.487048337364086592
0.171000000000000013,154.465800942322999845
0.172000000000000014,152.445883280743203159
0.173000000000000015,150.435336332609210785
0.174000000000000016,148.441340254292924783
0.175000000000000017,146.469778966584783575
0.176000000000000018,144.525004824122703440
0.177000000000000018,142.609770098576348119
0.178000000000000019,140.725288273525876548
0.179000000000000020,138.871388725878830428
0.180000000000000021,137.046731660270324937
0.181000000000000022,135.249054950953592424
0.182000000000000023,133.475429944811139649
0.183000000000000024,131.722508679863665293
0.184000000000000025,129.986749985239441685
0.185000000000000026,128.264616326387397294
0.186000000000000026,126.552736940043999425
0.187000000000000027,124.848035748220311802
0.188000000000000028,123.147824785842814777
0.189000000000000029,121.449865492605027839
0.190000000000000030,119.752401293154804307
0.191000000000000031,118.054165513703239299
0.192000000000000032,116.354368948203699574
0.193000000000000033,114.652671377199908420
0.194000000000000034,112.949141131464642740
0.195000000000000034,111.244206443973283172
0.196000000000000035,109.538601899949824769
0.197000000000000036,107.833312817611158607
0.198000000000000037,106.129519904249065121
0.199000000000000038,104.428546057543186976
0.200000000000000039,102.731806737523243100
0.201000000000000040,101.040764931558697981
0.202000000000000041,99.356891379603993641
0.203000000000000042,97.681630422424234439
0.204000000000000042,96.016371581636491328
0.205000000000000043,94.362426775065245010
0.206000000000000044,92.721012910666175344
0.207000000000000045,91.093239482781228844
0.208000000000000046,89.480100710936682162
0.209000000000000047,87.882471708802498256
0.210000000000000048,86.301108144386716958
0.211000000000000049,84.736648847375363403
0.212000000000000050,83.189620831411943414
0.213000000000000050,81.660446224144010330
0.214000000000000051,80.149450632580993670
0.215000000000000052,78.656872512719260726
0.216000000000000053,77.182873157948648668
0.217000000000000054,75.727546968342920763
0.218000000000000055,74.290931710833220336
0.219000000000000056,72.873018527107916498
0.220000000000000057,71.473761490818233710
0.221000000000000058,70.093086557544580728
0.222000000000000058,68.730899789443370196
0.223000000000000059,67.387094771233861934
0.224000000000000060,66.061559165023012952
0.225000000000000061,64.754180378376673843
0.226000000000000062,63.464850343102412467
0.227000000000000063,62.193469421564756772
0.228000000000000064,60.939949473230342392
0.229000000000000065,59.704216126786832319
0.230000000000000066,58.486210312889205909
0.231000000000000066,57.285889119650050816
0.232000000000000067,56.103226037715934638
0.233000000000000068,54.938210664451432308
0.234000000000000069,53.790847937680176472
0.235000000000000070,52.661156968875012296
0.236000000000000071,51.549169543908440971
0.237000000000000072,50.454928356697010372
0.238000000000000073,49.378485037519205036
0.239000000000000073,48.319898033643866597
0.240000000000000074,47.279230395341343751
0.241000000000000075,46.256547515518107616
0.242000000000000076,45.251914866238088564
0.243000000000000077,44.265395770382731655
0.244000000000000078,43.297049241748297277
0.245000000000000079,42.346927922055385807
0.246000000000000080,41.415076138716443666
0.247000000000000081,40.501528102812585530
0.248000000000000081,39.606306262614559444
0.249000000000000082,38.729419824162178543
0.250000000000000111,37.870863446911030792
0.251000000000000112,37.030616119274100129
0.252000000000000113,36.208640216027042413
0.253000000000000114,35.404880737010628877
0.254000000000000115,34.619264724339728900
0.255000000000000115,33.851700853406725855
0.256000000000000116,33.102079191332286712
0.257000000000000117,32.370271115152036145
0.258000000000000118,31.656129380917519711
0.259000000000000119,30.959488334011773247
0.260000000000000120,30.280164250317518793
0.261000000000000121,29.617955797408836105
0.262000000000000122,28.972644604645374500
0.263000000000000123,28.343995930913798986
0.264000000000000123,27.731759418764635683
0.265000000000000124,27.135669923818699800
0.266000000000000125,26.555448408545970551
0.267000000000000126,25.990802889839905276
0.268000000000000127,25.441429430201850437
0.269000000000000128,24.907013162806229900
0.270000000000000129,24.387229341219232026
0.271000000000000130,23.881744405084635474
0.272000000000000131,23.390217053658691526
0.273000000000000131,22.912299319661926233
0.274000000000000132,22.447637636512215664
0.275000000000000133,21.995873892603114541
0.276000000000000134,21.556646466886824953
0.277000000000000135,21.129591240609705949
0.278000000000000136,20.714342580621323719
0.279000000000000137,20.310534290235413124
0.280000000000000138,19.917800524157961206
0.281000000000000139,19.535776664510489553
0.282000000000000139,19.164100155465881414
0.283000000000000140,18.802411294475248837
0.284000000000000141,18.450353978499201446
0.285000000000000142,18.107576404062371012
0.286000000000000143,17.773731720327059946
0.287000000000000144,17.448478634730726355
0.288000000000000145,17.131481971050966706
0.289000000000000146,16.822413180054503812
0.290000000000000147,16.520950803149911934
0.291000000000000147,16.226780889702368427
0.292000000000000148,15.939597368880109585
0.293000000000000149,15.659102377090414748
0.294000000000000150,15.385006542226381754
0.295000000000000151,15.117029226087748128
0.296000000000000152,14.854898726459969893
0.297000000000000153,14.598352440436357824
0.298000000000000154,14.347136990651033983
0.299000000000000155,14.101008316155693834
0.300000000000000155,13.859731729722543747
0.301000000000000156,13.623081943391037285
0.302000000000000157,13.390843064096845438
0.303000000000000158,13.162808561231262416
0.304000000000000159,12.938781207976788323
0.305000000000000160,12.718572998253154793
0.306000000000000161,12.502005041086693637
0.307000000000000162,12.288907434187361645
0.308000000000000163,12.079119118481779438
0.309000000000000163,11.872487715308517764
0.310000000000000164,11.668869347934649028
0.311000000000000165,11.468128449000722924
0.312000000000000166,11.270137555445664646
0.313000000000000167,11.074777092404454848
0.314000000000000168,10.881935147510251483
0.315000000000000169,10.691507236969517436
0.316000000000000170,10.503396064714122460
0.317000000000000171,10.317511275869328813
0.318000000000000171,10.133769205710484229
0.319000000000000172,9.952092625215424704
0.320000000000000173,9.772410484254077545
0.321000000000000174,9.594657653391813312
0.322000000000000175,9.418774665218757391
0.323000000000000176,9.244707456054660710
0.324000000000000177,9.072407108816985755
0.325000000000000178,8.901829597780146486
0.326000000000000179,8.732935535895018475
0.327000000000000179,8.565689925281713357
0.328000000000000180,8.400061911453819974
0.329000000000000181,8.236024541779517705
0.330000000000000182,8.073554528634961258
0.331000000000000183,7.912632017656368255
0.332000000000000184,7.753240361451642748
0.333000000000000185,7.595365899088013961
0.334000000000000186,7.438997741630524629
0.335000000000000187,7.284127563966667829
0.336000000000000187,7.130749403114924334
0.337000000000000188,6.978859463180063116
0.338000000000000189,6.828455927084492671
0.339000000000000190,6.679538775174253651
0.340000000000000191,6.532109610769277985
0.341000000000000192,6.386171492700303709
0.342000000000000193,6.241728774849942596
0.343000000000000194,6.098786952692020868
0.344000000000000195,5.957352516802321141
0.345000000000000195,5.817432813293430982
0.346000000000000196,5.679035911109263424
0.347000000000000197,5.542170476097698639
0.348000000000000198,5.406845651765406657
0.349000000000000199,5.273070946605205478
0.350000000000000200,5.140856127874420700
0.351000000000000201,5.010211121691936498
0.352000000000000202,4.881145919312307235
0.353000000000000203,4.753670489426808032
0.354000000000000203,4.627794696334271762
0.355000000000000204,4.503528223818582532
0.356000000000000205,4.380880504564318656
0.357000000000000206,4.259860654937819291
0.358000000000000207,4.140477414958096070
0.359000000000000208,4.022739093278831390
0.360000000000000209,3.906653517001225762
0.361000000000000210,3.792227986136606610
0.362000000000000210,3.679469232536665579
0.363000000000000211,3.568383383109943630
0.364000000000000212,3.458975927143414175
0.365000000000000213,3.351251687549448466
0.366000000000000214,3.245214795859986623
0.367000000000000215,3.140868670791769013
0.368000000000000216,3.038216000208842082
0.369000000000000217,2.937258726311517076
0.370000000000000218,2.837998033883631699
0.371000000000000218,2.740434341433720000
0.372000000000000219,2.644567295068779966
0.373000000000000220,2.550395764943364618
0.374000000000000221,2.457917844130580676
0.375000000000000222,2.367130849765676448
0.376000000000000223,2.278031326316791283
0.377000000000000224,2.190615050842249723
0.378000000000000225,2.104877040097686169
0.379000000000000226,2.020811559361044285
0.380000000000000226,1.938412132847623370
0.381000000000000227,1.857671555592309343
0.382000000000000228,1.778581906680158697
0.383000000000000229,1.701134563711331538
0.384000000000000230,1.625320218390794214
0.385000000000000231,1.551128893137462272
0.386000000000000232,1.478549958612302317
0.387000000000000233,1.407572152068734539
0.388000000000000234,1.338183596433576428
0.389000000000000234,1.270371820030464116
0.390000000000000235,1.204123776862280559
0.391000000000000236,1.139425867372985124
0.392000000000000237,1.076263959613327881
0.393000000000000238,1.014623410738816345
0.394000000000000239,0.954489088772192629
0.395000000000000240,0.895845394566301523
0.396000000000000241,0.838676283906975684
0.397000000000000242,0.782965289699011247
0.398000000000000242,0.728695544181712007
0.399000000000000243,0.675849801123950211
0.400000000000000244,0.624410457951661058
0.401000000000000245,0.574359577763933760
0.402000000000000246,0.525678911196986620
0.403000000000000247,0.478349918097844107
0.404000000000000248,0.432353788972678843
0.405000000000000249,0.387671466177201218
0.406000000000000250,0.344283664819273583
0.407000000000000250,0.302170893346124736
0.408000000000000251,0.261313473791142781
0.409000000000000252,0.221691561657369363
0.410000000000000253,0.183285165416962409
0.411000000000000254,0.146074165608042511
0.412000000000000255,0.110038333512265663
0.413000000000000256,0.075157349398235151
0.414000000000000257,0.041410820317930155
0.415000000000000258,0.008778297444614669
0.416000000000000258,-0.022760707057251039
0.417000000000000259,-0.053226703638461006
0.418000000000000260,-0.082640209454492283
0.419000000000000261,-0.111021732943381135
0.420000000000000262,-0.138391758896040967
0.421000000000000263,-0.164770734022059440
0.422000000000000264,-0.190179053012521665
0.423000000000000265,-0.214637045100729396
0.424000000000000266,-0.238164961120433449
0.425000000000000266,-0.260782961060257279
0.426000000000000267,-0.282511102112324775
0.427000000000000268,-0.303369327212063777
0.428000000000000269,-0.323377454065488013
0.429000000000000270,-0.342555164659695599
0.430000000000000271,-0.360921995251364813
0.431000000000000272,-0.378497326827813119
0.432000000000000273,-0.395300376034300349
0.433000000000000274,-0.411350186561001141
0.434000000000000274,-0.426665620982475624
0.435000000000000275,-0.441265353042104735
0.436000000000000276,-0.455167860373630273
0.437000000000000277,-0.468391417651472353
0.438000000000000278,-0.480954090161363645
0.439000000000000279,-0.492873727782472126
0.440000000000000280,-0.504167959371973451
0.441000000000000281,-0.514854187542817754
0.442000000000000282,-0.524949583825427224
0.443000000000000282,-0.534471084203549607
0.444000000000000283,-0.543435385014882977
0.445000000000000284,-0.551858939206522292
0.446000000000000285,-0.559757952935483583
0.447000000000000286,-0.567148382504559567
0.448000000000000287,-0.574045931623397676
0.449000000000000288,-0.580466048985185057
0.450000000000000289,-0.586423926148837205
0.451000000000000290,-0.591934495716978093
0.452000000000000290,-0.597012429799938404
0.453000000000000291,-0.601672138755897756
0.454000000000000292,-0.605927770197666415
0.455000000000000293,-0.609793208256420360
0.456000000000000294,-0.613282073092942026
0.457000000000000295,-0.616407720647056734
0.458000000000000296,-0.619183242615856555
0.459000000000000297,-0.621621466651768317
0.460000000000000298,-0.623734956771311300
0.461000000000000298,-0.625536013965802828
0.462000000000000299,-0.627036677005244569
0.463000000000000300,-0.628248723426825917
0.464000000000000301,-0.629183670699713926
0.465000000000000302,-0.629852777557860732
0.466000000000000303,-0.630267045492713063
0.467000000000000304,-0.630437220398060605
0.468000000000000305,-0.630373794359155859
0.469000000000000306,-0.630087007578654434
0.470000000000000306,-0.629586850432048317
0.471000000000000307,-0.628883065645234440
0.472000000000000308,-0.627985150587420549
0.473000000000000309,-0.626902359672424470
0.474000000000000310,-0.625643706861734650
0.475000000000000311,-0.624217968262900658
0.476000000000000312,-0.622633684816989996
0.477000000000000313,-0.620899165068966141
0.478000000000000314,-0.619022488015083527
0.479000000000000314,-0.617011506021626688
0.480000000000000315,-0.614873847809316976
0.481000000000000316,-0.612616921498140288
0.482000000000000317,-0.610247917707254617
0.483000000000000318,-0.607773812705052152
0.484000000000000319,-0.605201371604437433
0.485000000000000320,-0.602537151598661391
0.486000000000000321,-0.599787505233186136
0.487000000000000322,-0.596958583709203294
0.488000000000000322,-0.594056340214538459
0.489000000000000323,-0.591086533278049275
0.490000000000000324,-0.588054730143478088
0.491000000000000325,-0.584966310159081848
0.492000000000000326,-0.581826468179433953
0.493000000000000327,-0.578640217976002846
0.494000000000000328,-0.575412395653127962
0.495000000000000329,-0.572147663066331469
0.496000000000000330,-0.568850511239821222
0.497000000000000330,-0.565525263780498166
0.498000000000000331,-0.562176080285421542
0.499000000000000332,-0.558806959740429710
0.500000000000000333,-0.555421743907206555
0.501000000000000334,-0.552024120696418263
0.502000000000000335,-0.548617627524794815
0.503000000000000336,-0.545205654653879823
0.504000000000000337,-0.541791448508478934
0.505000000000000338,-0.538378114972867139
0.506000000000000338,-0.534968622662947757
0.507000000000000339,-0.531565806172640709
0.508000000000000340,-0.528172369292843169
0.509000000000000341,-0.524790888201589034
0.510000000000000342,-0.521423814623768855
0.511000000000000343,-0.518073478959286016
0.512000000000000344,-0.514742093378241172
0.513000000000000345,-0.511431754882080813
0.514000000000000346,-0.508144448329648446
0.515000000000000346,-0.504882049427029189
0.516000000000000347,-0.501646327680367321
0.517000000000000348,-0.498438949310817669
0.518000000000000349,-0.495261480130748111
0.519000000000000350,-0.492115388380632346
0.520000000000000351,-0.489002047525837646
0.521000000000000352,-0.485922739012904281
0.522000000000000353,-0.482878654984629008
0.523000000000000353,-0.479870900953620005
0.524000000000000354,-0.476900498433884323
0.525000000000000355,-0.473968387530092794
0.526000000000000356,-0.471075429484215824
0.527000000000000357,-0.468222409179372190
0.528000000000000358,-0.465410037600559323
0.529000000000000359,-0.462638954252282075
0.530000000000000360,-0.459909729532786582
0.531000000000000361,-0.457222867065031235
0.532000000000000361,-0.454578805984204748
0.533000000000000362,-0.451977923181940244
0.534000000000000363,-0.449420535507157659
0.535000000000000364,-0.446906901923741273
0.536000000000000365,-0.444437225625051890
0.537000000000000366,-0.442011656105544659
0.538000000000000367,-0.439630291189523681
0.539000000000000368,-0.437293179017447298
0.540000000000000369,-0.435000319989777229
0.541000000000000369,-0.432751668668864664
0.542000000000000370,-0.430547135638955580
0.543000000000000371,-0.428386589324765421
0.544000000000000372,-0.426269857768886706
0.545000000000000373,-0.424196730368382180
0.546000000000000374,-0.422166959570935973
0.547000000000000375,-0.420180262530925219
0.548000000000000376,-0.418236322725860699
0.549000000000000377,-0.416334791533543414
0.550000000000000377,-0.414475289770433075
0.551000000000000378,-0.412657409191582059
0.552000000000000379,-0.410880713952704812
0.553000000000000380,-0.409144742034729947
0.554000000000000381,-0.407449006631357413
0.555000000000000382,-0.405792997500170560
0.556000000000000383,-0.404176182277622309
0.557000000000000384,-0.402598007758613818
0.558000000000000385,-0.401057901140955408
0.559000000000000385,-0.399555271235393972
0.560000000000000386,-0.398089509641622874
0.561000000000000387,-0.396659991890826069
0.562000000000000388,-0.395266078555263189
0.563000000000000389,-0.393907116325488971
0.564000000000000390,-0.392582439055631782
0.565000000000000391,-0.391291368777356596
0.566000000000000392,-0.390033216682983852
0.567000000000000393,-0.388807284078378446
0.568000000000000393,-0.387612863306017741
0.569000000000000394,-0.386449238638911063
0.570000000000000395,-0.385315687145833696
0.571000000000000396,-0.384211479528369759
0.572000000000000397,-0.383135880930446981
0.573000000000000398,-0.382088151720687108
0.574000000000000399,-0.381067548248312793
0.575000000000000400,-0.380073323572949484
0.576000000000000401,-0.379104728168976668
0.577000000000000401,-0.378161010604932513
0.578000000000000402,-0.377241418198411504
0.579000000000000403,-0.376345197647033891
0.580000000000000404,-0.375471595636040933
0.581000000000000405,-0.374619859422883228
0.582000000000000406,-0.373789237399472174
0.583000000000000407,-0.372978979632440977
0.584000000000000408,-0.372188338382029638
0.585000000000000409,-0.371416568599997388
0.586000000000000409,-0.370662928407079650
0.587000000000000410,-0.369926679550503401
0.588000000000000411,-0.369207087841918136
0.589000000000000412,-0.368503423576389599
0.590000000000000413,-0.367814961932714735
0.591000000000000414,-0.367140983355668804
0.592000000000000415,-0.366480773920582092
0.593000000000000416,-0.365833625680647978
0.594000000000000417,-0.365198836997449816
0.595000000000000417,-0.364575712855184531
0.596000000000000418,-0.363963565158828828
0.597000000000000419,-0.363361713016920551
0.598000000000000420,-0.362769483009128479
0.599000000000000421,-0.362186209439186890
0.600000000000000422,-0.361611234573513518
0.601000000000000423,-0.361043908865889940
0.602000000000000424,-0.360483591168677675
0.603000000000000425,-0.359929648930871593
0.604000000000000425,-0.359381458383364438
0.605000000000000426,-0.358838404711841419
0.606000000000000427,-0.358299882217679722
0.607000000000000428,-0.357765294467029815
0.608000000000000429,-0.357234054428780756
0.609000000000000430,-0.356705584601296588
0.610000000000000431,-0.356179317128697215
0.611000000000000432,-0.355654693906708730
0.612000000000000433,-0.355131166678509524
0.613000000000000433,-0.354608197120959645
0.614000000000000434,-0.354085256921402469
