# ZnO1m210NB_TRP-AC
# h[nm],U(h)[kJ/mol]
0.149999999999999994,168.531984742286198298
0.150999999999999995,165.540102113432197939
0.151999999999999996,164.165171540441917841
0.152999999999999997,163.115411876520624901
0.153999999999999998,161.909231798983284989
0.154999999999999999,160.452461684002855691
0.156000000000000000,158.806789305846024263
0.157000000000000001,157.072095835863450475
0.158000000000000002,155.334008287561061934
0.159000000000000002,153.646716661032883167
0.160000000000000003,152.033184063336932468
0.161000000000000004,150.492526780625013316
0.162000000000000005,149.009072595690525986
0.163000000000000006,147.560443526618144006
0.164000000000000007,146.123639722229853533
0.165000000000000008,144.678979150962192080
0.166000000000000009,143.212170219853447861
0.167000000000000010,141.714952693227303371
0.168000000000000010,140.184756563623380998
0.169000000000000011,138.623772507502167173
0.170000000000000012,137.037744594496842865
0.171000000000000013,135.434710093689261612
0.172000000000000014,133.823834655378220759
0.173000000000000015,132.214428798204664872
0.174000000000000016,130.615184377213580547
0.175000000000000017,129.033636291818709196
0.176000000000000018,127.475832909102138046
0.177000000000000018,125.946186068363431332
0.178000000000000019,124.447465762156980418
0.179000000000000020,122.980903628256186266
0.180000000000000021,121.546371578058867158
0.181000000000000022,120.142605940782885909
0.182000000000000023,118.767452462580152428
0.183000000000000024,117.418112689483791655
0.184000000000000025,116.091377233347458287
0.185000000000000026,114.783835896227373041
0.186000000000000026,113.492058466892984825
0.187000000000000027,112.212743152166538607
0.188000000000000028,110.942832077452976591
0.189000000000000029,109.679595136860058346
0.190000000000000030,108.420684768002246301
0.191000000000000031,107.164165054244634234
0.192000000000000032,105.908519003460853014
0.193000000000000033,104.652637998742150671
0.194000000000000034,103.395797336596274363
0.195000000000000034,102.137621526216776147
0.196000000000000035,100.878042673516816308
0.197000000000000036,99.617254860039793130
0.198000000000000037,98.355666984594037672
0.199000000000000038,97.093856091273124775
0.200000000000000039,95.832522781031258319
0.201000000000000040,94.572449908767197257
0.202000000000000041,93.314465412579565395
0.203000000000000042,92.059409811188061212
0.204000000000000042,90.808108641112795567
0.205000000000000043,89.561349886421339761
0.206000000000000044,88.319866278396105486
0.207000000000000045,87.084322206947717859
0.208000000000000046,85.855304885922166136
0.209000000000000047,84.633319346203307987
0.210000000000000048,83.418786789193461573
0.211000000000000049,82.212045814471395033
0.212000000000000050,81.013356035024898461
0.213000000000000050,79.822903607616552790
0.214000000000000051,78.640808231126740679
0.215000000000000052,77.467131199105878636
0.216000000000000053,76.301884131641386944
0.217000000000000054,75.145038053794607436
0.218000000000000055,73.996532531454960235
0.219000000000000056,72.856284619008619075
0.220000000000000057,71.724197415553874180
0.221000000000000058,70.600168066630260455
0.222000000000000058,69.484095085902509936
0.223000000000000059,68.375884905524344504
0.224000000000000060,67.275457594721302712
0.225000000000000061,66.182751713359408541
0.226000000000000062,65.097728290896313297
0.227000000000000063,64.020373941228015724
0.228000000000000064,62.950703140699467042
0.229000000000000065,61.888759710148953275
0.230000000000000066,60.834617552541388363
0.231000000000000066,59.788380705779317736
0.232000000000000067,58.750182775936558244
0.233000000000000068,57.720185819712604314
0.234000000000000069,56.698578746631461911
0.235000000000000070,55.685575311664749165
0.236000000000000071,54.681411767798181245
0.237000000000000072,53.686344245810765585
0.238000000000000073,52.700645925411969017
0.239000000000000073,51.724604058078895719
0.240000000000000074,50.758516897621731800
0.241000000000000075,49.802690589840565849
0.242000000000000076,48.857436067751692121
0.243000000000000077,47.923065993871638568
0.244000000000000078,46.999891786054568854
0.245000000000000079,46.088220758462135507
0.246000000000000080,45.188353404475904540
0.247000000000000081,44.300580843791365737
0.248000000000000081,43.425182451605493839
0.249000000000000082,42.562423683756328785
0.250000000000000111,41.712554107915629231
0.251000000000000112,40.875805647488832051
0.252000000000000113,40.052391041746339795
0.253000000000000114,39.242502522899918915
0.254000000000000115,38.446310708340398321
0.255000000000000115,37.663963704063220916
0.256000000000000116,36.895586413412814863
0.257000000000000117,36.141280043663073229
0.258000000000000118,35.401121801603565586
0.259000000000000119,34.675164768200666288
0.260000000000000120,33.963437941533257458
0.261000000000000121,33.265946436545043241
0.262000000000000122,32.582671829690205811
0.263000000000000123,31.913572636258670912
0.264000000000000123,31.258584908032673866
0.265000000000000124,30.617622938930253440
0.266000000000000125,29.990580066416832494
0.267000000000000126,29.377329556697340252
0.268000000000000127,28.777725562021963412
0.269000000000000128,28.191604138837067950
0.270000000000000129,27.618784315972980892
0.271000000000000130,27.059069202571471635
0.272000000000000131,26.512247126007906672
0.273000000000000131,25.978092790643295018
0.274000000000000132,25.456368448844109764
0.275000000000000133,24.946825076321399450
0.276000000000000134,24.449203544460750948
0.277000000000000135,23.963235782933967499
0.278000000000000136,23.488645926494836402
0.279000000000000137,23.025151440462821029
0.280000000000000138,22.572464219984691880
0.281000000000000139,22.130291658730502746
0.282000000000000139,21.698337683226665007
0.283000000000000140,21.276303749550216082
0.284000000000000141,20.863889799605473740
0.285000000000000142,20.460795174673222618
0.286000000000000143,20.066719484365439286
0.287000000000000144,19.681363429531721465
0.288000000000000145,19.304429578049173699
0.289000000000000146,18.935623092784943822
0.290000000000000147,18.574652411348637315
0.291000000000000147,18.221229877554044663
0.292000000000000148,17.875072324783054967
0.293000000000000149,17.535901611693468283
0.294000000000000150,17.203445110935131623
0.295000000000000151,16.877436151737150283
0.296000000000000152,16.557614417405169149
0.297000000000000153,16.243726298920922346
0.298000000000000154,15.935525205969167217
0.299000000000000155,15.632771836830499979
0.300000000000000155,15.335234408673205309
0.301000000000000156,15.042688849855684552
0.302000000000000157,14.754918955911955791
0.303000000000000158,14.471716510940799694
0.304000000000000159,14.192881376151998296
0.305000000000000160,13.918221547344606037
0.306000000000000161,13.647553183101896579
0.307000000000000162,13.380700605486911314
0.308000000000000163,13.117496275013030171
0.309000000000000163,12.857780741645669309
0.310000000000000164,12.601402573565568588
0.311000000000000165,12.348218265392237214
0.312000000000000166,12.098092127528021322
0.313000000000000167,11.850896158240614042
0.314000000000000168,11.606509900054565065
0.315000000000000169,11.364820281971748983
0.316000000000000170,11.125721448986942264
0.317000000000000171,10.889114580308582703
0.318000000000000171,10.654907697636964770
0.319000000000000172,10.423015464792257490
0.320000000000000173,10.193358979924889596
0.321000000000000174,9.965865561479608559
0.322000000000000175,9.740468529023319277
0.323000000000000176,9.517106979986113657
0.324000000000000177,9.295725563303896877
0.325000000000000178,9.076274250891525952
0.326000000000000179,8.858708107815962407
0.327000000000000179,8.642987061981415309
0.328000000000000180,8.429075674081598635
0.329000000000000181,8.216942908519222044
0.330000000000000182,8.006561905939182822
0.331000000000000183,7.797909757969978095
0.332000000000000184,7.590967284717855534
0.333000000000000185,7.385718815509791924
0.334000000000000186,7.182151973335026973
0.335000000000000187,6.980257463390421080
0.336000000000000187,6.780028866092263407
0.337000000000000188,6.581462434876891976
0.338000000000000189,6.384556899073574598
0.339000000000000190,6.189313272096596208
0.340000000000000191,5.995734665169070610
0.341000000000000192,5.803826106757935754
0.342000000000000193,5.613594367868899759
0.343000000000000194,5.425047793321071232
0.344000000000000195,5.238196139094158710
0.345000000000000195,5.053050415815022234
0.346000000000000196,4.869622738427642261
0.347000000000000197,4.687926182067696956
0.348000000000000198,4.507974644143170728
0.349000000000000199,4.329782712603291728
0.350000000000000200,4.153365540360870689
0.351000000000000201,3.978738725817132060
0.352000000000000202,3.805918199423868664
0.353000000000000203,3.634920116204203744
0.354000000000000203,3.465760754141500311
0.355000000000000204,3.298456418335406592
0.356000000000000205,3.133023350814040597
0.357000000000000206,2.969477645882909744
0.358000000000000207,2.807835170883965947
0.359000000000000208,2.648111492231227881
0.360000000000000209,2.490321806583883024
0.361000000000000210,2.334480877013225708
0.362000000000000210,2.180602974015460660
0.363000000000000211,2.028701821219361712
0.364000000000000212,1.878790545635175446
0.365000000000000213,1.730881632289257954
0.366000000000000214,1.584986883087645015
0.367000000000000215,1.441117379751072125
0.368000000000000216,1.299283450663520689
0.369000000000000217,1.159494641477081922
0.370000000000000218,1.021759689316050546
0.371000000000000218,0.886086500424791423
0.372000000000000219,0.752482131105005059
0.373000000000000220,0.620952771789932356
0.374000000000000221,0.491503734105238066
0.375000000000000222,0.364139440768659395
0.376000000000000223,0.238863418182702791
0.377000000000000224,0.115678291578225331
0.378000000000000225,-0.005414217430971924
0.379000000000000226,-0.124413291018703909
0.380000000000000226,-0.241319013175440494
0.381000000000000227,-0.356132365725244093
0.382000000000000228,-0.468855222456906862
0.383000000000000229,-0.579490341491682992
0.384000000000000230,-0.688041356006462657
0.385000000000000231,-0.794512763427557722
0.386000000000000232,-0.898909913206226152
0.387000000000000233,-1.001238993283744216
0.388000000000000234,-1.101507015349434404
0.389000000000000234,-1.199721798991863375
0.390000000000000235,-1.295891954839147653
0.391000000000000236,-1.390026866780883941
0.392000000000000237,-1.482136673360228807
0.393000000000000238,-1.572232248421220113
0.394000000000000239,-1.660325181092450419
0.395000000000000240,-1.746427755185026687
0.396000000000000241,-1.830552928078773345
0.397000000000000242,-1.912714309167493854
0.398000000000000242,-1.992926137930577823
0.399000000000000243,-2.071203261694768649
0.400000000000000244,-2.147561113146999823
0.401000000000000245,-2.222015687655650051
0.402000000000000246,-2.294583520454597014
0.403000000000000247,-2.365281663741654050
0.404000000000000248,-2.434127663739632297
0.405000000000000249,-2.501139537765777465
0.406000000000000250,-2.566335751352356809
0.407000000000000250,-2.629735195458599684
0.408000000000000251,-2.691357163811596731
0.409000000000000252,-2.751221330411179888
0.410000000000000253,-2.809347727231567227
0.411000000000000254,-2.865756722150025304
0.412000000000000255,-2.920468997130677646
0.413000000000000256,-2.973505526689548706
0.414000000000000257,-3.024887556664507482
0.415000000000000258,-3.074636583312282845
0.416000000000000258,-3.122774332752326298
0.417000000000000259,-3.169322740775901259
0.418000000000000260,-3.214303933036693373
0.419000000000000261,-3.257740205637867259
0.420000000000000262,-3.299654006128609929
0.421000000000000263,-3.340067914922042469
0.422000000000000264,-3.379004627144504891
0.423000000000000265,-3.416486934925301533
0.424000000000000266,-3.452537710134397919
0.425000000000000266,-3.487179887574338721
0.426000000000000267,-3.520436448631709681
0.427000000000000268,-3.552330405392103874
0.428000000000000269,-3.582884785221624124
0.429000000000000270,-3.612122615817054960
0.430000000000000271,-3.640066910725670457
0.431000000000000272,-3.666740655335102073
0.432000000000000273,-3.692166793332527508
0.433000000000000274,-3.716368213631960682
0.434000000000000274,-3.739367737767545830
0.435000000000000275,-3.761188107750118803
0.436000000000000276,-3.781851974383742654
0.437000000000000277,-3.801381886038250890
0.438000000000000278,-3.819800277873355299
0.439000000000000279,-3.837129461509420025
0.440000000000000280,-3.853391615139403203
0.441000000000000281,-3.868608774076203183
0.442000000000000282,-3.882802821729284037
0.443000000000000282,-3.895995481003780014
0.444000000000000283,-3.908208306115557917
0.445000000000000284,-3.919462674814764291
0.446000000000000285,-3.929779781010608986
0.447000000000000286,-3.939180627789815592
0.448000000000000287,-3.947686020820677211
0.449000000000000288,-3.955316562134964187
0.450000000000000289,-3.962092644279324283
0.451000000000000290,-3.968034444827954754
0.452000000000000290,-3.973161921248237860
0.453000000000000291,-3.977494806110660530
0.454000000000000292,-3.981052602634659543
0.455000000000000293,-3.983854580561664083
0.456000000000000294,-3.985919772346731005
0.457000000000000295,-3.987266969660217875
0.458000000000000296,-3.987914720190628426
0.459000000000000297,-3.987881324740245592
0.460000000000000298,-3.987184834604705852
0.461000000000000298,-3.985843049228137147
0.462000000000000299,-3.983873514125178872
0.463000000000000300,-3.981293519061466668
0.464000000000000301,-3.978120096484249135
0.465000000000000302,-3.974370020194721853
0.466000000000000303,-3.970059804253855962
0.467000000000000304,-3.965205702113697050
0.468000000000000305,-3.959823705965906271
0.469000000000000306,-3.953929546299769449
0.470000000000000306,-3.947538691661847565
0.471000000000000307,-3.940666348609445979
0.472000000000000308,-3.933327461850486095
0.473000000000000309,-3.925536714562250840
0.474000000000000310,-3.917308528881711993
0.475000000000000311,-3.908657066560233151
0.476000000000000312,-3.899596229775712963
0.477000000000000313,-3.890139662095141837
0.478000000000000314,-3.880300749580883668
0.479000000000000314,-3.870092622034109642
0.480000000000000315,-3.859528154368834230
0.481000000000000316,-3.848619968110346345
0.482000000000000317,-3.837380433011742475
0.483000000000000318,-3.825821668782675822
0.484000000000000319,-3.813955546924364448
0.485000000000000320,-3.801793692665153657
0.486000000000000321,-3.789347486991117897
0.487000000000000322,-3.776628068766231472
0.488000000000000322,-3.763646336936761649
0.489000000000000323,-3.750412952814984546
0.490000000000000324,-3.736938342436972427
0.491000000000000325,-3.723232698989818346
0.492000000000000326,-3.709305985303475328
0.493000000000000327,-3.695167936402770970
0.494000000000000328,-3.680828062115082844
0.495000000000000329,-3.666295649729511386
0.496000000000000330,-3.651579766703279439
0.497000000000000330,-3.636689263411574391
0.498000000000000331,-3.621632775936657112
0.499000000000000332,-3.606418728892853753
0.500000000000000333,-3.591055338283587695
0.501000000000000334,-3.575550614387005943
0.502000000000000335,-3.559912364666953266
0.503000000000000336,-3.544148196705964260
0.504000000000000337,-3.528265521157218476
0.505000000000000338,-3.512271554712408594
0.506000000000000338,-3.496173323082723439
0.507000000000000339,-3.479977663990132974
0.508000000000000340,-3.463691230166273449
0.509000000000000341,-3.447320492356572341
0.510000000000000342,-3.430871742326903728
0.511000000000000343,-3.414351095870704178
0.512000000000000344,-3.397764495814100449
0.513000000000000345,-3.381117715017045278
0.514000000000000346,-3.364416359368407772
0.515000000000000346,-3.347665870772989827
0.516000000000000347,-3.330871530128673985
0.517000000000000348,-3.314038460291990340
0.518000000000000349,-3.297171629030243967
0.519000000000000350,-3.280275851958852407
0.520000000000000351,-3.263355795462100417
0.521000000000000352,-3.246415979596161350
0.522000000000000353,-3.229460780972764233
0.523000000000000353,-3.212494435622397226
0.524000000000000354,-3.195521041835776010
0.525000000000000355,-3.178544562982415833
0.526000000000000356,-3.161568830305244937
0.527000000000000357,-3.144597545690286822
0.528000000000000358,-3.127634284410387266
0.529000000000000359,-3.110682497842225835
0.530000000000000360,-3.093745516155606445
0.531000000000000361,-3.076826550974468333
0.532000000000000361,-3.059928698008739900
0.533000000000000362,-3.043054939656476332
0.534000000000000363,-3.026208147575615293
0.535000000000000364,-3.009391085224863538
0.536000000000000365,-2.992606410373125136
0.537000000000000366,-2.975856677577099596
0.538000000000000367,-2.959144340626514769
0.539000000000000368,-2.942471754956807573
0.540000000000000369,-2.925841180028687649
0.541000000000000369,-2.909254781674537771
0.542000000000000370,-2.892714634411157171
0.543000000000000371,-2.876222723718835805
0.544000000000000372,-2.859780948286462010
0.545000000000000373,-2.843391122222548528
0.546000000000000374,-2.827054977232060118
0.547000000000000375,-2.810774164758949034
0.548000000000000376,-2.794550258094381956
0.549000000000000377,-2.778384754450579752
0.550000000000000377,-2.762279077000317162
0.551000000000000378,-2.746234576882034428
0.552000000000000379,-2.730252535170759831
0.553000000000000380,-2.714334164814735662
0.554000000000000381,-2.698480612537942136
0.555000000000000382,-2.682692960708718211
0.556000000000000383,-2.666972229174375375
0.557000000000000384,-2.651319377062274274
0.558000000000000385,-2.635735304547234925
0.559000000000000385,-2.620220854585715298
0.560000000000000386,-2.604776814616835079
0.561000000000000387,-2.589403918230499535
0.562000000000000388,-2.574102846802845956
0.563000000000000389,-2.558874231099337315
0.564000000000000390,-2.543718652845654571
0.565000000000000391,-2.528636646266765986
0.566000000000000392,-2.513628699594375071
0.567000000000000393,-2.498695256543162380
0.568000000000000393,-2.483836717755966372
0.569000000000000394,-2.469053442218360761
0.570000000000000395,-2.454345748642932534
0.571000000000000396,-2.439713916823462281
0.572000000000000397,-2.425158188959579686
0.573000000000000398,-2.410678770951998118
0.574000000000000399,-2.396275833668878086
0.575000000000000400,-2.381949514183531402
0.576000000000000401,-2.367699916983903474
0.577000000000000401,-2.353527115154252947
0.578000000000000402,-2.339431151529240971
0.579000000000000403,-2.325412039820939025
0.580000000000000404,-2.311469765719147862
0.581000000000000405,-2.297604287965248737
0.582000000000000406,-2.283815539400183336
0.583000000000000407,-2.270103427986751576
0.584000000000000408,-2.256467837806758858
0.585000000000000409,-2.242908630033320527
0.586000000000000409,-2.229425643878706786
0.587000000000000410,-2.216018697518212122
0.588000000000000411,-2.202687588990259293
0.589000000000000412,-2.189432097073363170
0.590000000000000413,-2.176251982140083197
0.591000000000000414,-2.163146986988557785
0.592000000000000415,-2.150116837651929291
0.593000000000000416,-2.137161244185988629
0.594000000000000417,-2.124279901435490725
0.595000000000000417,-2.111472489779598671
0.596000000000000418,-2.098738675856561819
0.597000000000000419,-2.086078113268384993
0.598000000000000420,-2.073490443265498140
0.599000000000000421,-2.060975295412085906
0.600000000000000422,-2.048532288232260523
0.601000000000000423,-2.036161029837510128
0.602000000000000424,-2.023861118535827508
0.603000000000000425,-2.011632143422814156
0.604000000000000425,-1.999473684955114461
0.605000000000000426,-1.987385315506605021
0.606000000000000427,-1.975366599907666609
0.607000000000000428,-1.963417095967729509
0.608000000000000429,-1.951536354981796340
0.609000000000000430,-1.939723922220817354
0.610000000000000431,-1.927979337406692251
0.611000000000000432,-1.916302135171918719
0.612000000000000433,-1.904691845504344672
0.613000000000000433,-1.893147994177381221
