# ZnO1m210NB_ARG-AC
# h[nm],U(h)[kJ/mol]
0.149999999999999994,156.284350945326679039
0.150999999999999995,151.707311268559095652
0.151999999999999996,150.715300972661282231
0.152999999999999997,150.556868333544599636
0.153999999999999998,150.199793337900160850
0.154999999999999999,149.424205345719286697
0.156000000000000000,148.332946951499081933
0.157000000000000001,147.107116929230357982
0.158000000000000002,145.899748235967109622
0.159000000000000002,144.802679109593526618
0.160000000000000003,143.848502161130141985
0.161000000000000004,143.026232314314171390
0.162000000000000005,142.299535617323869019
0.163000000000000006,141.622362358668027582
0.164000000000000007,140.950190766798243658
0.165000000000000008,140.246834154012447016
0.166000000000000009,139.487554088704172273
0.167000000000000010,138.659472452228726524
0.168000000000000010,137.760243934093892904
0.169000000000000011,136.795791831018959783
0.170000000000000012,135.777711916975789563
0.171000000000000013,134.720758282672761652
0.172000000000000014,133.640663011670540072
0.173000000000000015,132.552415453090560504
0.174000000000000016,131.469035872081491334
0.175000000000000017,130.400817810251908213
0.176000000000000018,129.354977580097767031
0.177000000000000018,128.335631917494936260
0.178000000000000019,127.344020530650794853
0.179000000000000020,126.378894637937307266
0.180000000000000021,125.437002075587884065
0.181000000000000022,124.513611570823741204
0.182000000000000023,123.603031475888741397
0.183000000000000024,122.699090425182745889
0.184000000000000025,121.795558274287529343
0.185000000000000026,120.886494926441656617
0.186000000000000026,119.966522122238714587
0.187000000000000027,119.031019004948802831
0.188000000000000028,118.076246425219821390
0.189000000000000029,117.099407720955085210
0.190000000000000030,116.098655330322031887
0.191000000000000031,115.073053297793535421
0.192000000000000032,114.022505729878986358
0.193000000000000033,112.947660740480131381
0.194000000000000034,111.849798559920557750
0.195000000000000034,110.730711402558853251
0.196000000000000035,109.592581504088869337
0.197000000000000036,108.437862534774652090
0.198000000000000037,107.269168430615238208
0.199000000000000038,106.089172603755216073
0.200000000000000039,104.900519523918745790
0.201000000000000040,103.705749819441592763
0.202000000000000041,102.507239335231176369
0.203000000000000042,101.307152004132575485
0.204000000000000042,100.107405931014440625
0.205000000000000043,98.909651745272910262
0.206000000000000044,97.715262035135893370
0.207000000000000045,96.525330522887728080
0.208000000000000046,95.340679560448194252
0.209000000000000047,94.161874506541010987
0.210000000000000048,92.989243577691624409
0.211000000000000049,91.822901834272215638
0.212000000000000050,90.662778059761208738
0.213000000000000050,89.508643407596551356
0.214000000000000051,88.360140818036825294
0.215000000000000052,87.216814341120908693
0.216000000000000053,86.078137636093771334
0.217000000000000054,84.943541048565364804
0.218000000000000055,83.812436791149806936
0.219000000000000056,82.684241869177313333
0.220000000000000057,81.558398498765839690
0.221000000000000058,80.434391859175363493
0.222000000000000058,79.311765104507060187
0.223000000000000059,78.190131631436003090
0.224000000000000060,77.069184660050666480
0.225000000000000061,75.948704234541452252
0.226000000000000062,74.828561790118911290
0.227000000000000063,73.708722462966733247
0.228000000000000064,72.589245342117521886
0.229000000000000065,71.470281876803397836
0.230000000000000066,70.352072660995830233
0.231000000000000066,69.234942819407223169
0.232000000000000067,68.119296217050916198
0.233000000000000068,67.005608708350195002
0.234000000000000069,65.894420632508030167
0.235000000000000070,64.786328750085473871
0.236000000000000071,63.681977802100824704
0.237000000000000072,62.582051858009172918
0.238000000000000073,61.487265603130275338
0.239000000000000073,60.398355699880724501
0.240000000000000074,59.316072340883309266
0.241000000000000075,58.241171095974586081
0.242000000000000076,57.174405139547310739
0.243000000000000077,56.116517929745000970
0.244000000000000078,55.068236396921761866
0.245000000000000079,54.030264685600478458
0.246000000000000080,53.003278481989333670
0.247000000000000081,51.987919947991258596
0.248000000000000081,50.984793272594814084
0.249000000000000082,49.994460842561672109
0.250000000000000111,49.017440026415762588
0.251000000000000112,48.054200558857054659
0.252000000000000113,47.105162506829785229
0.253000000000000114,46.170694793519629684
0.254000000000000115,45.251114252477734112
0.255000000000000115,44.346685180812386307
0.256000000000000116,43.457619357884688327
0.257000000000000117,42.584076494127828028
0.258000000000000118,41.726165073415508289
0.259000000000000119,40.883943551765483448
0.260000000000000120,40.057421875019166180
0.261000000000000121,39.246563278424495991
0.262000000000000122,38.451286331709503941
0.263000000000000123,37.671467194213853702
0.264000000000000123,36.906942045893018189
0.265000000000000124,36.157509661477057250
0.266000000000000125,35.422934096712012320
0.267000000000000126,34.702947457392156139
0.268000000000000127,33.997252723774565197
0.269000000000000128,33.305526604917922384
0.270000000000000129,32.627422399478362536
0.271000000000000130,31.962572841498250398
0.272000000000000131,31.310592911721631282
0.273000000000000131,30.671082596937178977
0.274000000000000132,30.043629581775473270
0.275000000000000133,29.427811859253960591
0.276000000000000134,28.823200248161025883
0.277000000000000135,28.229360807091062213
0.278000000000000136,27.645857136576086788
0.279000000000000137,27.072252562302729473
0.280000000000000138,26.508112193853058614
0.281000000000000139,25.953004854758045639
0.282000000000000139,25.406504880906350508
0.283000000000000140,24.868193785505816606
0.284000000000000141,24.337661789852397476
0.285000000000000142,23.814509220122968003
0.286000000000000143,23.298347771276677776
0.287000000000000144,22.788801639927459775
0.288000000000000145,22.285508528740958667
0.289000000000000146,21.788120525517260972
0.290000000000000147,21.296304860648582746
0.291000000000000147,20.809744547095434086
0.292000000000000148,20.328138907407087288
0.293000000000000149,19.851203992630107820
0.294000000000000150,19.378672898203696207
0.295000000000000151,18.910295982139572857
0.296000000000000152,18.445840990930083336
0.297000000000000153,17.985093098726352423
0.298000000000000154,17.527854865382010985
0.299000000000000155,17.073946118972244790
0.300000000000000155,16.623203768376249911
0.301000000000000156,16.175481551457291829
0.302000000000000157,15.730649724291613012
0.303000000000000158,15.288594696790687166
0.304000000000000159,14.849218619931193075
0.305000000000000160,14.412438929658790698
0.306000000000000161,13.978187852367634392
0.307000000000000162,13.546411876679211872
0.308000000000000163,13.117071196055315241
0.309000000000000163,12.690139126582431928
0.310000000000000164,12.265601504060038351
0.311000000000000165,11.843456064316322696
0.312000000000000166,11.423711810462382488
0.313000000000000167,11.006388370582078196
0.314000000000000168,10.591515349140681934
0.315000000000000169,10.179131675182611971
0.316000000000000170,9.769284950177505422
0.317000000000000171,9.362030798166870227
0.318000000000000171,8.957432220659820032
0.319000000000000172,8.555558958527523572
0.320000000000000173,8.156486862953531869
0.321000000000000174,7.760297277309192054
0.322000000000000175,7.367076431643174494
0.323000000000000176,6.976914851299900633
0.324000000000000177,6.589906781014891024
0.325000000000000178,6.206149625675777770
0.326000000000000179,5.825743408785084121
0.327000000000000179,5.448790249517258211
0.328000000000000180,5.075393859124522677
0.329000000000000181,4.705659057317930660
0.330000000000000182,4.339691309127308827
0.331000000000000183,3.977596282630242452
0.332000000000000184,3.619479427832941631
0.333000000000000185,3.265445576886538248
0.334000000000000186,2.915598565729422553
0.335000000000000187,2.570040877160837844
0.336000000000000187,2.228873305271390493
0.337000000000000188,1.892194641084421702
0.338000000000000189,1.560101379194700710
0.339000000000000190,1.232687445131212867
0.340000000000000191,0.910043943115951492
0.341000000000000192,0.592258923841457396
0.342000000000000193,0.279417171845485535
0.343000000000000194,-0.028399987977343954
0.344000000000000195,-0.331114865221390553
0.345000000000000195,-0.628653560698350988
0.346000000000000196,-0.920946105597724718
0.347000000000000197,-1.207926583651700359
0.348000000000000198,-1.489533236893883394
0.349000000000000199,-1.765708555616464448
0.350000000000000200,-2.036399353141164159
0.351000000000000201,-2.301556826027881364
0.352000000000000202,-2.561136600350005565
0.353000000000000203,-2.815098764668460429
0.354000000000000203,-3.063407890337043415
0.355000000000000204,-3.306033039769276094
0.356000000000000205,-3.542947763293804009
0.357000000000000206,-3.774130085219695729
0.358000000000000207,-3.999562479725073949
0.359000000000000208,-4.219231837174424626
0.360000000000000209,-4.433129421459561570
0.361000000000000210,-4.641250818947488810
0.362000000000000210,-4.843595879606576560
0.363000000000000211,-5.040168650868594113
0.364000000000000212,-5.230977304770290992
0.365000000000000213,-5.416034058903085757
0.366000000000000214,-5.595355091684185211
0.367000000000000215,-5.768960452446170173
0.368000000000000216,-5.936873966826105686
0.369000000000000217,-6.099123137918136095
0.370000000000000218,-6.255739043636971530
0.371000000000000218,-6.406756230722206347
0.372000000000000219,-6.552212605796630562
0.373000000000000220,-6.692149323874349243
0.374000000000000221,-6.826610674697181302
0.375000000000000222,-6.955643967260876082
0.376000000000000223,-7.079299412876058462
0.377000000000000224,-7.197630007091473381
0.378000000000000225,-7.310691410790871814
0.379000000000000226,-7.418541830758597300
0.380000000000000226,-7.521241899992989310
0.381000000000000227,-7.618854558030629498
0.382000000000000228,-7.711444931529669589
0.383000000000000229,-7.799080215344973865
0.384000000000000230,-7.881829554313466879
0.385000000000000231,-7.959763925953851071
0.386000000000000232,-8.032956024270710316
0.387000000000000233,-8.101480144840200737
0.388000000000000234,-8.165412071340764300
0.389000000000000234,-8.224828963680510086
0.390000000000000235,-8.279809247860246302
0.391000000000000236,-8.330432507699695677
0.392000000000000237,-8.376779378543133703
0.393000000000000238,-8.418931443049972430
0.394000000000000239,-8.456971129165129497
0.395000000000000240,-8.490981610354626952
0.396000000000000241,-8.521046708181819085
0.397000000000000242,-8.547250797290827151
0.398000000000000242,-8.569678712855239411
0.399000000000000243,-8.588415660541416585
0.400000000000000244,-8.603547129028569884
0.401000000000000245,-8.615158805119673247
0.402000000000000246,-8.623336491470585230
0.403000000000000247,-8.628166026958115964
0.404000000000000248,-8.629733209701214491
0.405000000000000249,-8.628123722743740842
0.406000000000000250,-8.623423062401505135
0.407000000000000250,-8.615716469271164968
0.408000000000000251,-8.605088861893571917
0.409000000000000252,-8.591624773059495013
0.410000000000000253,-8.575408288741419582
0.411000000000000254,-8.556522989631215381
0.412000000000000255,-8.535051895259382349
0.413000000000000256,-8.511077410668756116
0.414000000000000257,-8.484681275611690054
0.415000000000000258,-8.455944516237414277
0.416000000000000258,-8.424947399233166934
0.417000000000000259,-8.391769388380541983
0.418000000000000260,-8.356489103486083536
0.419000000000000261,-8.319184281643341450
0.420000000000000262,-8.279931740781609761
0.421000000000000263,-8.238807345455144926
0.422000000000000264,-8.195885974825166898
0.423000000000000265,-8.151241492785622711
0.424000000000000266,-8.104946720182953257
0.425000000000000266,-8.057073409078610027
0.426000000000000267,-8.007692219003041956
0.427000000000000268,-7.956872695148506480
0.428000000000000269,-7.904683248448188593
0.429000000000000270,-7.851191137488484628
0.430000000000000271,-7.796462452200860760
0.431000000000000272,-7.740562099280127839
0.432000000000000273,-7.683553789275346269
0.433000000000000274,-7.625500025300141260
0.434000000000000274,-7.566462093308947701
0.435000000000000275,-7.506500053886381529
0.436000000000000276,-7.445672735496961181
0.437000000000000277,-7.384037729142880480
0.438000000000000278,-7.321651384378088601
0.439000000000000279,-7.258568806627482495
0.440000000000000280,-7.194843855760387541
0.441000000000000281,-7.130529145868450769
0.442000000000000282,-7.065676046198648308
0.443000000000000282,-7.000334683192706464
0.444000000000000283,-6.934553943585305191
0.445000000000000284,-6.868381478514000271
0.446000000000000285,-6.801863708594687807
0.447000000000000286,-6.735045829917619464
0.448000000000000287,-6.667971820919262882
0.449000000000000288,-6.600684450086985677
0.450000000000000289,-6.533225284453744841
0.451000000000000290,-6.465634698841502548
0.452000000000000290,-6.397951885812806161
0.453000000000000291,-6.330214866290852171
0.454000000000000292,-6.262460500809647002
0.455000000000000293,-6.194724501356554391
0.456000000000000294,-6.127041443770773199
0.457000000000000295,-6.059444780662231800
0.458000000000000296,-5.991966854816094035
0.459000000000000297,-5.924638913049735223
0.460000000000000298,-5.857491120489200398
0.461000000000000298,-5.790552575233982147
0.462000000000000299,-5.723851323379284928
0.463000000000000300,-5.657414374366223520
0.464000000000000301,-5.591267716631457496
0.465000000000000302,-5.525436333528557675
0.466000000000000303,-5.459944219494232698
0.467000000000000304,-5.394814396433922354
0.468000000000000305,-5.330068930301670171
0.469000000000000306,-5.265728947850449870
0.470000000000000306,-5.201814653530002275
0.471000000000000307,-5.138345346509744616
0.472000000000000308,-5.075339437805797438
0.473000000000000309,-5.012814467491450543
0.474000000000000310,-4.950787121971631954
0.475000000000000311,-4.889273251302384438
0.476000000000000312,-4.828287886537729001
0.477000000000000313,-4.767845257086280597
0.478000000000000314,-4.707958808061521339
0.479000000000000314,-4.648641217609952747
0.480000000000000315,-4.589904414202064409
0.481000000000000316,-4.531759593872096481
0.482000000000000317,-4.474217237392865698
0.483000000000000318,-4.417287127372919286
0.484000000000000319,-4.360978365263742162
0.485000000000000320,-4.305299388265511062
0.486000000000000321,-4.250257986120429265
0.487000000000000322,-4.195861317783371902
0.488000000000000322,-4.142115927959904020
0.489000000000000323,-4.089027763502885549
0.490000000000000324,-4.036602189658649920
0.491000000000000325,-3.984844006154932394
0.492000000000000326,-3.933757463122853348
0.493000000000000327,-3.883346276846052270
0.494000000000000328,-3.833613645330235187
0.495000000000000329,-3.784562263687197170
0.496000000000000330,-3.736194339327533420
0.497000000000000330,-3.688511606957017186
0.498000000000000331,-3.641515343371604096
0.499000000000000332,-3.595206382047024363
0.500000000000000333,-3.549585127518732008
0.501000000000000334,-3.504651569548622891
0.502000000000000335,-3.460405297075486608
0.503000000000000336,-3.416845511946092095
0.504000000000000337,-3.373971042424458666
0.505000000000000338,-3.331780356477076932
0.506000000000000338,-3.290271574832168255
0.507000000000000339,-3.249442483811328941
0.508000000000000340,-3.209290547932194926
0.509000000000000341,-3.169812922281273870
0.510000000000000342,-3.131006464655778920
0.511000000000000343,-3.092867747474262519
0.512000000000000344,-3.055393069455481392
0.513000000000000345,-3.018578467065526016
0.514000000000000346,-2.982419725733351346
0.515000000000000346,-2.946912390834914852
0.516000000000000347,-2.912051778446542283
0.517000000000000348,-2.877832985868270299
0.518000000000000349,-2.844250901917860119
0.519000000000000350,-2.811300216996792223
0.520000000000000351,-2.778975432929166267
0.521000000000000352,-2.747270872575123146
0.522000000000000353,-2.716180689220107247
0.523000000000000353,-2.685698875741618696
0.524000000000000354,-2.655819273555306559
0.525000000000000355,-2.626535581342156256
0.526000000000000356,-2.597841363558773597
0.527000000000000357,-2.569730058732928146
0.528000000000000358,-2.542194987546344986
0.529000000000000359,-2.515229360707277095
0.530000000000000360,-2.488826286614883365
0.531000000000000361,-2.462978778818122105
0.532000000000000361,-2.437679763271442646
0.533000000000000362,-2.412922085389971549
0.534000000000000363,-2.388698516906691438
0.535000000000000364,-2.365001762534387542
0.536000000000000365,-2.341824466434977214
0.537000000000000366,-2.319159218499085018
0.538000000000000367,-2.296998560438548331
0.539000000000000368,-2.275334991694826225
0.540000000000000369,-2.254160975166020986
0.541000000000000369,-2.233468942755583608
0.542000000000000370,-2.213251300745405992
0.543000000000000371,-2.193500434996439985
0.544000000000000372,-2.174208715979655704
0.545000000000000373,-2.155368503640373579
0.546000000000000374,-2.136972152098868261
0.547000000000000375,-2.119012014190299276
0.548000000000000376,-2.101480445846904299
0.549000000000000377,-2.084369810325427341
0.550000000000000377,-2.067672482282785218
0.551000000000000378,-2.051380851702885089
0.552000000000000379,-2.035487327677672820
0.553000000000000380,-2.019984342045204606
0.554000000000000381,-2.004864352887804291
0.555000000000000382,-1.990119847893208727
0.556000000000000383,-1.975743347581546683
0.557000000000000384,-1.961727408401156225
0.558000000000000385,-1.948064625695975494
0.559000000000000385,-1.934747636547484051
0.560000000000000386,-1.921769122493967030
0.561000000000000387,-1.909121812129886520
0.562000000000000388,-1.896798483588158390
0.563000000000000389,-1.884791966908137884
0.564000000000000390,-1.873095146291939184
0.565000000000000391,-1.861700962251876534
0.566000000000000392,-1.850602413651606826
0.567000000000000393,-1.839792559643747438
0.568000000000000393,-1.829264521506368979
0.569000000000000394,-1.819011484381124033
0.570000000000000395,-1.809026698915472853
0.571000000000000396,-1.799303482811454913
0.572000000000000397,-1.789835222283629790
0.573000000000000398,-1.780615373428426240
0.574000000000000399,-1.771637463507496291
0.575000000000000400,-1.762895092147289233
0.576000000000000401,-1.754381932457229398
0.577000000000000401,-1.746091732068870472
0.578000000000000402,-1.738018314098122463
0.579000000000000403,-1.730155578032875230
0.580000000000000404,-1.722497500548261895
0.581000000000000405,-1.715038136251511691
0.582000000000000406,-1.707771618358737697
0.583000000000000407,-1.700692159305538853
0.584000000000000408,-1.693794051293564085
0.585000000000000409,-1.687071666775015188
0.586000000000000409,-1.680519458877000050
0.587000000000000410,-1.674131961767760135
0.588000000000000411,-1.667903790966529076
0.589000000000000412,-1.661829643599030293
0.590000000000000413,-1.655904298600254787
0.591000000000000414,-1.650122616866464442
0.592000000000000415,-1.644479541358050412
0.593000000000000416,-1.638970097154987426
0.594000000000000417,-1.633589391466550467
0.595000000000000417,-1.628332613597012868
0.596000000000000418,-1.623195034868715636
0.597000000000000419,-1.618172008504351833
0.598000000000000420,-1.613258969469743009
0.599000000000000421,-1.608451434278800551
0.600000000000000422,-1.603745000762010875
0.601000000000000423,-1.599135347799904405
0.602000000000000424,-1.594618235022980501
0.603000000000000425,-1.590189502479342654
0.604000000000000425,-1.585845070271425072
0.605000000000000426,-1.581580938163128724
0.606000000000000427,-1.577393185158684430
0.607000000000000428,-1.573277969054222236
0.608000000000000429,-1.569231525963737939
0.609000000000000430,-1.565250169820065151
0.610000000000000431,-1.561330291852486507
0.611000000000000432,-1.557468360041804001
0.612000000000000433,-1.553660918554044867
