# ZnO1m210NB_AZANE-AC
# h[nm],U(h)[kJ/mol]
0.149999999999999994,47.220266544581797064
0.150999999999999995,46.194263569201211794
0.151999999999999996,45.410560686377962725
0.152999999999999997,44.676448569748558270
0.153999999999999998,43.922618621958847029
0.154999999999999999,43.137817311630286099
0.156000000000000000,42.333495858758865893
0.157000000000000001,41.526126834090412387
0.158000000000000002,40.729505233009611231
0.159000000000000002,39.952362692694272539
0.160000000000000003,39.198544718548518517
0.161000000000000004,38.468202977461146475
0.162000000000000005,37.759188504814645171
0.163000000000000006,37.068264948443541584
0.164000000000000007,36.392005089213995461
0.165000000000000008,35.727361809074203336
0.166000000000000009,35.071963552033096789
0.167000000000000010,34.424204028100007235
0.168000000000000010,33.783194957750744436
0.169000000000000011,33.148640157904743830
0.170000000000000012,32.520675609439749110
0.171000000000000013,31.899706738799931571
0.172000000000000014,31.286262609932514067
0.173000000000000015,30.680877625056211855
0.174000000000000016,30.084004665449491256
0.175000000000000017,29.495959075307961683
0.176000000000000018,28.916890102298793863
0.177000000000000018,28.346774945925481859
0.178000000000000019,27.785430056378736197
0.179000000000000020,27.232534459857212994
0.180000000000000021,26.687660414436436440
0.181000000000000022,26.150307437729786386
0.182000000000000023,25.619936561046358747
0.183000000000000024,25.096002464954441535
0.184000000000000025,24.577981882281342507
0.185000000000000026,24.065397286029039492
0.186000000000000026,23.557835398947950978
0.187000000000000027,23.054960468387982075
0.188000000000000028,22.556522552178591923
0.189000000000000029,22.062361270813191538
0.190000000000000030,21.572405612342663517
0.191000000000000031,21.086670443747401293
0.192000000000000032,20.605250400112186782
0.193000000000000033,20.128311803302359806
0.194000000000000034,19.656083216002166125
0.195000000000000034,19.188845174115730430
0.196000000000000035,18.726919568098981728
0.197000000000000036,18.270659067617454951
0.198000000000000037,17.820436908406474430
0.199000000000000038,17.376637288504575451
0.200000000000000039,16.939646555267501071
0.201000000000000040,16.509845306038275936
0.202000000000000041,16.087601474684600333
0.203000000000000042,15.673264433549515928
0.204000000000000042,15.267160105459836927
0.205000000000000043,14.869587052810661731
0.206000000000000044,14.480813489734604360
0.207000000000000045,14.101075148226419387
0.208000000000000046,13.730573919038141284
0.209000000000000047,13.369477182406097171
0.210000000000000048,13.017917741468576054
0.211000000000000049,12.675994271886544595
0.212000000000000050,12.343772204057410491
0.213000000000000050,12.021284958857517466
0.214000000000000051,11.708535463575490354
0.215000000000000052,11.405497881196222210
0.216000000000000053,11.112119493120399483
0.217000000000000054,10.828322682477447003
0.218000000000000055,10.554006972190142832
0.219000000000000056,10.289051078705281128
0.220000000000000057,10.033314948690573942
0.221000000000000058,9.786641751925943211
0.222000000000000058,9.548859809029130119
0.223000000000000059,9.319784437522610432
0.224000000000000060,9.099219704060077518
0.225000000000000061,8.886960074394577802
0.226000000000000062,8.682791955905836190
0.227000000000000063,8.486495130240882645
0.228000000000000064,8.297844075895545402
0.229000000000000065,8.116609182413412782
0.230000000000000066,7.942557859346611515
0.231000000000000066,7.775455544250290174
0.232000000000000067,7.615066614812737278
0.233000000000000068,7.461155210795172188
0.234000000000000069,7.313485971807851982
0.235000000000000070,7.171824697117467728
0.236000000000000071,7.035938933697307718
0.237000000000000072,6.905598498625485249
0.238000000000000073,6.780575941734080736
0.239000000000000073,6.660646954136444364
0.240000000000000074,6.545590727930641783
0.241000000000000075,6.435190272012289547
0.242000000000000076,6.329232688543571683
0.243000000000000077,6.227509414229838391
0.244000000000000078,6.129816430160376584
0.245000000000000079,6.035954443584273577
0.246000000000000080,5.945729044621566040
0.247000000000000081,5.858950840558826201
0.248000000000000081,5.775435570050933443
0.249000000000000082,5.695004199248503873
0.250000000000000111,5.617483001595173775
0.251000000000000112,5.542703622790957851
0.252000000000000113,5.470503132196915530
0.253000000000000114,5.400724061762183226
0.254000000000000115,5.333214433385232489
0.255000000000000115,5.267827775476439101
0.256000000000000116,5.204423129366258394
0.257000000000000117,5.142865046101407600
0.258000000000000118,5.083023574088257668
0.259000000000000119,5.024774237976217250
0.260000000000000120,4.967998009122538861
0.261000000000000121,4.912581267941858343
0.262000000000000122,4.858415758416834151
0.263000000000000123,4.805398535029394402
0.264000000000000123,4.753431902362896366
0.265000000000000124,4.702423347623546412
0.266000000000000125,4.652285466332349628
0.267000000000000126,4.602935881446299504
0.268000000000000127,4.554297156177794292
0.269000000000000128,4.506296700793799737
0.270000000000000129,4.458866673690060622
0.271000000000000130,4.411943877049883334
0.272000000000000131,4.365469647411342358
0.273000000000000131,4.319389741480348377
0.274000000000000132,4.273654217539640143
0.275000000000000133,4.228217312815009343
0.276000000000000134,4.183037317169663538
0.277000000000000135,4.138076443505463331
0.278000000000000136,4.093300695255516430
0.279000000000000137,4.048679731356404687
0.280000000000000138,4.004186729090013053
0.281000000000000139,3.959798245184489751
0.282000000000000139,3.915494075561476883
0.283000000000000140,3.871257114112287123
0.284000000000000141,3.827073210879509357
0.285000000000000142,3.782931030012394835
0.286000000000000143,3.738821907854761317
0.287000000000000144,3.694739711513013170
0.288000000000000145,3.650680698239275213
0.289000000000000146,3.606643375951052999
0.290000000000000147,3.562628365193936109
0.291000000000000147,3.518638262838392983
0.292000000000000148,3.474677507785135511
0.293000000000000149,3.430752248936676629
0.294000000000000150,3.386870215675272355
0.295000000000000151,3.343040591069542877
0.296000000000000152,3.299273888014322864
0.297000000000000153,3.255581828490083041
0.298000000000000154,3.211977226110404704
0.299000000000000155,3.168473872108068523
0.300000000000000155,3.125086424892735693
0.301000000000000156,3.081830303295932882
0.302000000000000157,3.038721583602075338
0.303000000000000158,2.995776900447940427
0.304000000000000159,2.953013351656944785
0.305000000000000160,2.910448407059408105
0.306000000000000161,2.868099821335112765
0.307000000000000162,2.825985550900472987
0.308000000000000163,2.784123674849229069
0.309000000000000163,2.742532319942887931
0.310000000000000164,2.701229589635160355
0.311000000000000165,2.660233497103418721
0.312000000000000166,2.619561902249699425
0.313000000000000167,2.579232452624023342
0.314000000000000168,2.539262528213749537
0.315000000000000169,2.499669190034437882
0.316000000000000170,2.460469132450037399
0.317000000000000171,2.421678639143383105
0.318000000000000171,2.383313542651804617
0.319000000000000172,2.345389187377034279
0.320000000000000173,2.307920395973800609
0.321000000000000174,2.270921439017202559
0.322000000000000175,2.234406007845242570
0.323000000000000176,2.198387190469860641
0.324000000000000177,2.162877450447222571
0.325000000000000178,2.127888608596007369
0.326000000000000179,2.093431827450829008
0.327000000000000179,2.059517598336963573
0.328000000000000180,2.026155730951778366
0.329000000000000181,1.993355345338110096
0.330000000000000182,1.961124866134964062
0.331000000000000183,1.929472018991366555
0.332000000000000184,1.898403829030076650
0.333000000000000185,1.867926621248971797
0.334000000000000186,1.838046022749302733
0.335000000000000187,1.808766966681724098
0.336000000000000187,1.780093697802801689
0.337000000000000188,1.752029779536905973
0.338000000000000189,1.724578102440564420
0.339000000000000190,1.697740893968831433
0.340000000000000191,1.671519729445857916
0.341000000000000192,1.645915544144441300
0.342000000000000193,1.620928646382262972
0.343000000000000194,1.596558731545308252
0.344000000000000195,1.572804896952079368
0.345000000000000195,1.549665657475077341
0.346000000000000196,1.527138961839225928
0.347000000000000197,1.505222209519994525
0.348000000000000198,1.483912268167047799
0.349000000000000199,1.463205491482459042
0.350000000000000200,1.443097737485574017
0.351000000000000201,1.423584387099794846
0.352000000000000202,1.404660362999613943
0.353000000000000203,1.386320148659274887
0.354000000000000203,1.368557807547482907
0.355000000000000204,1.351367002415588381
0.356000000000000205,1.334741014629542644
0.357000000000000206,1.318672763498808909
0.358000000000000207,1.303154825558290986
0.359000000000000208,1.288179453761995719
0.360000000000000209,1.273738596549848223
0.361000000000000210,1.259823916751756867
0.362000000000000210,1.246426810295437448
0.363000000000000211,1.233538424687066426
0.364000000000000212,1.221149677236120557
0.365000000000000213,1.209251272998143500
0.366000000000000214,1.197833722411318691
0.367000000000000215,1.186887358604912457
0.368000000000000216,1.176402354359650904
0.369000000000000217,1.166368738702150631
0.370000000000000218,1.156776413117286406
0.371000000000000218,1.147615167364321787
0.372000000000000219,1.138874694884238314
0.373000000000000220,1.130544607787403510
0.374000000000000221,1.122614451412282444
0.375000000000000222,1.115073718447386231
0.376000000000000223,1.107911862610018616
0.377000000000000224,1.101118311876790212
0.378000000000000225,1.094682481262089002
0.379000000000000226,1.088593785141910519
0.380000000000000226,1.082841649121532912
0.381000000000000227,1.077415521446668745
0.382000000000000228,1.072304883958600463
0.383000000000000229,1.067499262594821197
0.384000000000000230,1.062988237437553884
0.385000000000000231,1.058761452313250917
0.386000000000000232,1.054808623947052437
0.387000000000000233,1.051119550676743231
0.388000000000000234,1.047684120731500856
0.389000000000000234,1.044492320081196413
0.390000000000000235,1.041534239862663691
0.391000000000000236,1.038800083389751272
0.392000000000000237,1.036280172754466822
0.393000000000000238,1.033964955026891008
0.394000000000000239,1.031845008061933910
0.395000000000000240,1.029911045921288792
0.396000000000000241,1.028153923919233215
0.397000000000000242,1.026564643301203672
0.398000000000000242,1.025134355564203625
0.399000000000000243,1.023854366428394336
0.400000000000000244,1.022716139469270535
0.401000000000000245,1.021711299419975738
0.402000000000000246,1.020831635153444772
0.403000000000000247,1.020069102354070223
0.404000000000000248,1.019415825888657867
0.405000000000000249,1.018864101886469475
0.406000000000000250,1.018406399538139828
0.407000000000000250,1.018035362623225026
0.408000000000000251,1.017743810776127189
0.409000000000000252,1.017524740500063807
0.410000000000000253,1.017371325938690063
0.411000000000000254,1.017276919414896508
0.412000000000000255,1.017235051746209429
0.413000000000000256,1.017239432346087380
0.414000000000000257,1.017283949120342923
0.415000000000000258,1.017362668167694162
0.416000000000000258,1.017469833293414672
0.417000000000000259,1.017599865344815946
0.418000000000000260,1.017747361377174808
0.419000000000000261,1.017907093658562356
0.420000000000000262,1.018074008521833607
0.421000000000000263,1.018243225071876701
0.422000000000000264,1.018410033756050215
0.423000000000000265,1.018569894805529952
0.424000000000000266,1.018718436555101192
0.425000000000000266,1.018851453648775607
0.426000000000000267,1.018964905138366905
0.427000000000000268,1.019054912482015629
0.428000000000000269,1.019117757449418793
0.429000000000000270,1.019149879940340231
0.430000000000000271,1.019147875722802521
0.431000000000000272,1.019108494097108464
0.432000000000000273,1.019028635491717738
0.433000000000000274,1.018905348996737903
0.434000000000000274,1.018735829840653917
0.435000000000000275,1.018517416815692522
0.436000000000000276,1.018247589657029772
0.437000000000000277,1.017923966380890555
0.438000000000000278,1.017544300586365802
0.439000000000000279,1.017106478725604557
0.440000000000000280,1.016608517346865304
0.441000000000000281,1.016048560314731786
0.442000000000000282,1.015424876011580935
0.443000000000000282,1.014735854524307701
0.444000000000000283,1.013980004820033365
0.445000000000000284,1.013155951914442854
0.446000000000000285,1.012262434036211856
0.447000000000000286,1.011298299790771793
0.448000000000000287,1.010262505326608995
0.449000000000000288,1.009154111507031937
0.450000000000000289,1.007972281090279365
0.451000000000000290,1.006716275920646719
0.452000000000000290,1.005385454133174816
0.453000000000000291,1.003979267374336626
0.454000000000000292,1.002497258040983663
0.455000000000000293,1.000939056539712935
0.456000000000000294,0.999304378568678153
0.457000000000000295,0.997593022423748366
0.458000000000000296,0.995804866330794014
0.459000000000000297,0.993939865805781531
0.460000000000000298,0.991998051044219564
0.461000000000000298,0.989979524341425110
0.462000000000000299,0.987884457544938366
0.463000000000000300,0.985713089540353971
0.464000000000000301,0.983465723771696609
0.465000000000000302,0.981142725797413462
0.466000000000000303,0.978744520882944058
0.467000000000000304,0.976271591630746949
0.468000000000000305,0.973724475648578669
0.469000000000000306,0.971103763256747299
0.470000000000000306,0.968410095234963686
0.471000000000000307,0.965644160609380409
0.472000000000000308,0.962806694480287995
0.473000000000000309,0.959898475890905933
0.474000000000000310,0.956920325737637079
0.475000000000000311,0.953873104722065435
0.476000000000000312,0.950757711344953571
0.477000000000000313,0.947575079942412635
0.478000000000000314,0.944326178764386404
0.479000000000000314,0.941012008095501784
0.480000000000000315,0.937633598418347480
0.481000000000000316,0.934192008619130987
0.482000000000000317,0.930688324235674047
0.483000000000000318,0.927123655747626230
0.484000000000000319,0.923499136908764839
0.485000000000000320,0.919815923121192092
0.486000000000000321,0.916075189851209060
0.487000000000000322,0.912278131086622146
0.488000000000000322,0.908425957835204967
0.489000000000000323,0.904519896663984135
0.490000000000000324,0.900561188279029645
0.491000000000000325,0.896551086145369380
0.492000000000000326,0.892490855146653495
0.493000000000000327,0.888381770284134453
0.494000000000000328,0.884225115414549956
0.495000000000000329,0.880022182026440780
0.496000000000000330,0.875774268054442806
0.497000000000000330,0.871482676731049843
0.498000000000000331,0.867148715475367426
0.499000000000000332,0.862773694818318226
0.500000000000000333,0.858358927363773838
0.501000000000000334,0.853905726785086472
0.502000000000000335,0.849415406856445676
0.503000000000000336,0.844889280518518526
0.504000000000000337,0.840328658977788523
0.505000000000000338,0.835734850839030763
0.506000000000000338,0.831109161270328300
0.507000000000000339,0.826452891200047501
0.508000000000000340,0.821767336545184079
0.509000000000000341,0.817053787470471526
0.510000000000000342,0.812313527677669400
0.511000000000000343,0.807547833724412856
0.512000000000000344,0.802757974372038552
0.513000000000000345,0.797945209961777202
0.514000000000000346,0.793110791818698702
0.515000000000000346,0.788255961682831963
0.516000000000000347,0.783381951166844503
0.517000000000000348,0.778489981239675055
0.518000000000000349,0.773581261735544867
0.519000000000000350,0.768656990887736979
0.520000000000000351,0.763718354886561479
0.521000000000000352,0.758766527460911222
0.522000000000000353,0.753802669482849241
0.523000000000000353,0.748827928594613224
0.524000000000000354,0.743843438857505146
0.525000000000000355,0.738850320422063889
0.526000000000000356,0.733849679218989026
0.527000000000000357,0.728842606670234483
0.528000000000000358,0.723830179419738151
0.529000000000000359,0.718813459083243123
0.530000000000000360,0.713793492016667530
0.531000000000000361,0.708771309102496638
0.532000000000000361,0.703747925553679265
0.533000000000000362,0.698724340734499183
0.534000000000000363,0.693701537997938100
0.535000000000000364,0.688680484538994997
0.536000000000000365,0.683662131263508277
0.537000000000000366,0.678647412671957495
0.538000000000000367,0.673637246757804009
0.539000000000000368,0.668632534919862298
0.540000000000000369,0.663634161888279617
0.541000000000000369,0.658642995663637376
0.542000000000000370,0.653659887468753809
0.543000000000000371,0.648685671712736500
0.544000000000000372,0.643721165966857689
0.545000000000000373,0.638767170951841434
0.546000000000000374,0.633824470536131335
0.547000000000000375,0.628893831744761544
0.548000000000000376,0.623976004778402538
0.549000000000000377,0.619071723042227795
0.550000000000000377,0.614181703184188299
0.551000000000000378,0.609306645142353442
0.552000000000000379,0.604447232200933771
0.553000000000000380,0.599604131054639056
0.554000000000000381,0.594777991881025314
0.555000000000000382,0.589969448420484155
0.556000000000000383,0.585179118063554493
0.557000000000000384,0.580407601945216123
0.558000000000000385,0.575655485045871163
0.559000000000000385,0.570923336298683526
0.560000000000000386,0.566211708702988759
0.561000000000000387,0.561521139443477812
0.562000000000000388,0.556852150014870206
0.563000000000000389,0.552205246351790691
0.564000000000000390,0.547580918963592955
0.565000000000000391,0.542979643073850271
0.566000000000000392,0.538401878764270814
0.567000000000000393,0.533848071122770218
0.568000000000000393,0.529318650395485646
0.569000000000000394,0.524814032142458253
0.570000000000000395,0.520334617396791765
0.571000000000000396,0.515880792827039358
0.572000000000000397,0.511452930902606351
0.573000000000000398,0.507051390061973306
0.574000000000000399,0.502676514883512282
0.575000000000000400,0.498328636258719093
0.576000000000000401,0.494008071567662466
0.577000000000000401,0.489715124856455464
0.578000000000000402,0.485450087016581100
0.579000000000000403,0.481213235965902875
0.580000000000000404,0.477004836831166235
0.581000000000000405,0.472825142131857501
0.582000000000000406,0.468674391965247961
0.583000000000000407,0.464552814192462193
0.584000000000000408,0.460460624625448234
0.585000000000000409,0.456398027214681423
0.586000000000000409,0.452365214237483326
0.587000000000000410,0.448362366486807218
0.588000000000000411,0.444389653460384060
0.589000000000000412,0.440447233550078643
0.590000000000000413,0.436535254231365077
0.591000000000000414,0.432653852252787297
0.592000000000000415,0.428803153825304595
0.593000000000000416,0.424983274811414791
0.594000000000000417,0.421194320913955145
0.595000000000000417,0.417436387864479286
0.596000000000000418,0.413709561611122101
0.597000000000000419,0.410013918505861774
0.598000000000000420,0.406349525491093821
0.599000000000000421,0.402716440285429134
0.600000000000000422,0.399114711568645641
0.601000000000000423,0.395544379165723381
0.602000000000000424,0.392005474229871198
0.603000000000000425,0.388498019424491914
0.604000000000000425,0.385022029104029773
0.605000000000000426,0.381577509493617018
0.606000000000000427,0.378164458867465691
0.607000000000000428,0.374782867725976576
0.608000000000000429,0.371432718971456244
0.609000000000000430,0.368113988082461263
0.610000000000000431,0.364826643286657815
0.611000000000000432,0.361570645732195550
0.612000000000000433,0.358345949657536467
0.613000000000000433,0.355152502559693939
0.614000000000000434,0.351990245360859766
0.615000000000000435,0.348859112573372876
0.616000000000000436,0.345759032462999161
0.617000000000000437,0.342689927210492351
0.618000000000000438,0.339651713071408623
0.619000000000000439,0.336644300534151009
0.620000000000000440,0.333667594476209972
0.621000000000000441,0.330721494318589548
0.622000000000000441,0.327805894178386459
