# ZnO1m210NB_PROPANAL-AC
# h[nm],U(h)[kJ/mol]
0.149999999999999994,118.276785317966869115
0.150999999999999995,116.710984659727643020
0.151999999999999996,115.406302410049903528
0.152999999999999997,114.174344852086505853
0.153999999999999998,112.937493540729263941
0.154999999999999999,111.674720867907737443
0.156000000000000000,110.390368108237950651
0.157000000000000001,109.097182008037975720
0.158000000000000002,107.807931228752451602
0.159000000000000002,106.531966101252848489
0.160000000000000003,105.274447478297133785
0.161000000000000004,104.036866378861390103
0.162000000000000005,102.818054939535571179
0.163000000000000006,101.615254797220131877
0.164000000000000007,100.425033157148817509
0.165000000000000008,99.243968574927095005
0.166000000000000009,98.069101208335425213
0.167000000000000010,96.898178287878678816
0.168000000000000010,95.729739544186529088
0.169000000000000011,94.563088859678742892
0.170000000000000012,93.398193517992552870
0.171000000000000013,92.235544802063230918
0.172000000000000014,91.076005496455579191
0.173000000000000015,89.920662247718126991
0.174000000000000016,88.770694274962963277
0.175000000000000017,87.627264775623672222
0.176000000000000018,86.491437501083723305
0.177000000000000018,85.364118237998781069
0.178000000000000019,84.246019133674309387
0.179000000000000020,83.137642751222045945
0.180000000000000021,82.039282250064189839
0.181000000000000022,80.951034001551946062
0.182000000000000023,79.872819137527500288
0.183000000000000024,78.804410888197836016
0.184000000000000025,77.745465015918654217
0.185000000000000026,76.695551135707134449
0.186000000000000026,75.654183191207607706
0.187000000000000027,74.620847799963030411
0.188000000000000028,73.595029578398339254
0.189000000000000029,72.576232897061913718
0.190000000000000030,71.563999798269222197
0.191000000000000031,70.557924033136515618
0.192000000000000032,69.557661347394073914
0.193000000000000033,68.562936271086329043
0.194000000000000034,67.573545752746397852
0.195000000000000034,66.589360030432928284
0.196000000000000035,65.610321156451760771
0.197000000000000036,64.636439595467493291
0.198000000000000037,63.667789302235256343
0.199000000000000038,62.704501659852880380
0.200000000000000039,61.746758626059786934
0.201000000000000040,60.794785396835187896
0.202000000000000041,59.848842855905914462
0.203000000000000042,58.909220037743089904
0.204000000000000042,57.976226791706267250
0.205000000000000043,57.050186797272807837
0.206000000000000044,56.131431045511575917
0.207000000000000045,55.220291870590315852
0.208000000000000046,54.317097587378341927
0.209000000000000047,53.422167767186728327
0.210000000000000048,52.535809163300520197
0.211000000000000049,51.658312281035271951
0.212000000000000050,50.789948573352077688
0.213000000000000050,49.930968232314661748
0.214000000000000051,49.081598538559234157
0.215000000000000052,48.242042725162562533
0.216000000000000053,47.412479308524197563
0.217000000000000054,46.593061836825931721
0.218000000000000055,45.783919006014208719
0.219000000000000056,44.985155093810888616
0.220000000000000057,44.196850663755625988
0.221000000000000058,43.419063493514457264
0.222000000000000058,42.651829684460935255
0.223000000000000059,41.895164912695591397
0.224000000000000060,41.149065785072622248
0.225000000000000061,40.413511267337085542
0.226000000000000062,39.688464155045117820
0.227000000000000063,38.973872561464261821
0.228000000000000064,38.269671400072013512
0.229000000000000065,37.575783842536701229
0.230000000000000066,36.892122736144287387
0.231000000000000066,36.218591967499513373
0.232000000000000067,35.555087761966838400
0.233000000000000068,34.901499910715244823
0.234000000000000069,34.257712919390726825
0.235000000000000070,33.623607074362951153
0.236000000000000071,32.999059424185659850
0.237000000000000072,32.383944675382686285
0.238000000000000073,31.778136002935376325
0.239000000000000073,31.181505776918491790
0.240000000000000074,30.593926207619169588
0.241000000000000075,30.015269912200231772
0.242000000000000076,29.445410406543430781
0.243000000000000077,28.884222526349208948
0.244000000000000078,28.331582781890904954
0.245000000000000079,27.787369651036204488
0.246000000000000080,27.251463815273449853
0.247000000000000081,26.723748343522828463
0.248000000000000081,26.204108828489701466
0.249000000000000082,25.692433480236200438
0.250000000000000111,25.188613181519357909
0.251000000000000112,24.692541509277926792
0.252000000000000113,24.204114726453148876
0.253000000000000114,23.723231748110567452
0.254000000000000115,23.249794085592686343
0.255000000000000115,22.783705772185541605
0.256000000000000116,22.324873273528606177
0.257000000000000117,21.873205385740959628
0.258000000000000118,21.428613123982501065
0.259000000000000119,20.991009603917920145
0.260000000000000120,20.560309918306948873
0.261000000000000121,20.136431010709269884
0.262000000000000122,19.719291548066326669
0.263000000000000123,19.308811793708382964
0.264000000000000123,18.904913482132720048
0.265000000000000124,18.507519696709145762
0.266000000000000125,18.116554751292660796
0.267000000000000126,17.731944076559294388
0.268000000000000127,17.353614111730873759
0.269000000000000128,16.981492202216834642
0.270000000000000129,16.615506503576362718
0.271000000000000130,16.255585892091023226
0.272000000000000131,15.901659882137090918
0.273000000000000131,15.553658550456725962
0.274000000000000132,15.211512467347571231
0.275000000000000133,14.875152634720748779
0.276000000000000134,14.544510430916810506
0.277000000000000135,14.219517562117957254
0.278000000000000136,13.900106020150502673
0.279000000000000137,13.586208046435586994
0.280000000000000138,13.277756101816695633
0.281000000000000139,12.974682841968549596
0.282000000000000139,12.676921098074586780
0.283000000000000140,12.384403862446802691
0.284000000000000141,12.097064278753681066
0.285000000000000142,11.814835636517216244
0.286000000000000143,11.537651369539009494
0.287000000000000144,11.265445057917771621
0.288000000000000145,10.998150433324822117
0.289000000000000146,10.735701387211801006
0.290000000000000147,10.478031981633140646
0.291000000000000147,10.225076462376867070
0.292000000000000148,9.976769274108834296
0.293000000000000149,9.733045077248746679
0.294000000000000150,9.493838766309830035
0.295000000000000151,9.259085489448480644
0.296000000000000152,9.028720668985002362
0.297000000000000153,8.802680022671591331
0.298000000000000154,8.580899585498684701
0.299000000000000155,8.363315731846105550
0.300000000000000155,8.149865197800064465
0.301000000000000156,7.940485103472136430
0.302000000000000157,7.735112975170122418
0.303000000000000158,7.533686767285215247
0.304000000000000159,7.336144883772890424
0.305000000000000160,7.142426199118110830
0.306000000000000161,6.952470078687822408
0.307000000000000162,6.766216398385378916
0.308000000000000163,6.583605563532937133
0.309000000000000163,6.404578526918375481
0.310000000000000164,6.229076805953226881
0.311000000000000165,6.057042498897574845
0.312000000000000166,5.888418300116490478
0.313000000000000167,5.723147514340825026
0.314000000000000168,5.561174069912621754
0.315000000000000169,5.402442531002421333
0.316000000000000170,5.246898108791972604
0.317000000000000171,5.094486671621884177
0.318000000000000171,4.945154754108903816
0.319000000000000172,4.798849565242282900
0.320000000000000173,4.655518995473049593
0.321000000000000174,4.515111622813912540
0.322000000000000175,4.377576717970644182
0.323000000000000176,4.242864248529168769
0.324000000000000177,4.110924882224750831
0.325000000000000178,3.981709989322318677
0.326000000000000179,3.855171644138430054
0.327000000000000179,3.731262625737320260
0.328000000000000180,3.609936417834485045
0.329000000000000181,3.491147207942316921
0.330000000000000182,3.374849885793159920
0.331000000000000183,3.261000041075390321
0.332000000000000184,3.149553960518738371
0.333000000000000185,3.040468624364935035
0.334000000000000186,2.933701702259766453
0.335000000000000187,2.829211548602402093
0.336000000000000187,2.726957197387363863
0.337000000000000188,2.626898356574276505
0.338000000000000189,2.528995402019519556
0.339000000000000190,2.433209371003480559
0.340000000000000191,2.339501955386249943
0.341000000000000192,2.247835494423603642
0.342000000000000193,2.158172967274306853
0.343000000000000194,2.070477985228584394
0.344000000000000195,1.984714783686967410
0.345000000000000195,1.900848213917004204
0.346000000000000196,1.818843734614923546
0.347000000000000197,1.738667403297666114
0.348000000000000198,1.660285867549877725
0.349000000000000199,1.583666356149220800
0.350000000000000200,1.508776670092166317
0.351000000000000201,1.435585173541385817
0.352000000000000202,1.364060784714717478
0.353000000000000203,1.294172966734493224
0.354000000000000203,1.225891718454958479
0.355000000000000204,1.159187565284528265
0.356000000000000205,1.094031550018445431
0.357000000000000206,1.030395223696304097
0.358000000000000207,0.968250636498234840
0.359000000000000208,0.907570328692178796
0.360000000000000209,0.848327321643925658
0.361000000000000210,0.790495108900758803
0.362000000000000210,0.734047647358445743
0.363000000000000211,0.678959348520687733
0.364000000000000212,0.625205069859161688
0.365000000000000213,0.572760106281625991
0.366000000000000214,0.521600181714738986
0.367000000000000215,0.471701440807606454
0.368000000000000216,0.423040440761237146
0.369000000000000217,0.375594143288708604
0.370000000000000218,0.329339906709903762
0.371000000000000218,0.284255478184451849
0.372000000000000219,0.240318986085644642
0.373000000000000220,0.197508932517753283
0.374000000000000221,0.155804185978680343
0.375000000000000222,0.115183974169463549
0.376000000000000223,0.075627876951462697
0.377000000000000224,0.037115819452061286
0.378000000000000225,-0.000371934680962260
0.379000000000000226,-0.036854789876431204
0.380000000000000226,-0.072351825088628627
0.381000000000000227,-0.106881800098571997
0.382000000000000228,-0.140463161668833603
0.383000000000000229,-0.173114049553019539
0.384000000000000230,-0.204852302361378469
0.385000000000000231,-0.235695463284265966
0.386000000000000232,-0.265660785675190247
0.387000000000000233,-0.294765238495591220
0.388000000000000234,-0.323025511623380668
0.389000000000000234,-0.350458021027667876
0.390000000000000235,-0.377078913812011307
0.391000000000000236,-0.402904073128760032
0.392000000000000237,-0.427949122967076767
0.393000000000000238,-0.452229432817384036
0.394000000000000239,-0.475760122214902825
0.395000000000000240,-0.498556065165194462
0.396000000000000241,-0.520631894454493427
0.397000000000000242,-0.542002005847708856
0.398000000000000242,-0.562680562177076182
0.399000000000000243,-0.582681497324258002
0.400000000000000244,-0.602018520098923871
0.401000000000000245,-0.620705118016703139
0.402000000000000246,-0.638754560979341357
0.403000000000000247,-0.656179904860089813
0.404000000000000248,-0.672993994997087452
0.405000000000000249,-0.689209469597648949
0.406000000000000250,-0.704838763056207629
0.407000000000000250,-0.719894109188765285
0.408000000000000251,-0.734387544386513325
0.409000000000000252,-0.748330910691345386
0.410000000000000253,-0.761735858795914322
0.411000000000000254,-0.774613850970797158
0.412000000000000255,-0.786976163921301208
0.413000000000000256,-0.798833891576451682
0.414000000000000257,-0.810197947812479446
0.415000000000000258,-0.821079069113301641
0.416000000000000258,-0.831487817170177612
0.417000000000000259,-0.841434581422885408
0.418000000000000260,-0.850929581544517810
0.419000000000000261,-0.859982869872095157
0.420000000000000262,-0.868604333784972149
0.421000000000000263,-0.876803698033119305
0.422000000000000264,-0.884590527017114936
0.423000000000000265,-0.891974227021772648
0.424000000000000266,-0.898964048405244021
0.425000000000000266,-0.905569087745212054
0.426000000000000267,-0.911798289944005802
0.427000000000000268,-0.917660450294152441
0.428000000000000269,-0.923164216505948154
0.429000000000000270,-0.928318090698602383
0.430000000000000271,-0.933130431356283596
0.431000000000000272,-0.937609455250590584
0.432000000000000273,-0.941763239330642987
0.433000000000000274,-0.945599722582162405
0.434000000000000274,-0.949126707856702501
0.435000000000000275,-0.952351863672216248
0.436000000000000276,-0.955282725986083769
0.437000000000000277,-0.957926699941629933
0.438000000000000278,-0.960291061589175654
0.439000000000000279,-0.962382959582592123
0.440000000000000280,-0.964209416852250478
0.441000000000000281,-0.965777332255250309
0.442000000000000282,-0.967093482203817190
0.443000000000000282,-0.968164522272534578
0.444000000000000283,-0.968996988785309377
0.445000000000000284,-0.969597300382668115
0.446000000000000285,-0.969971759570075087
0.447000000000000286,-0.970126554248002426
0.448000000000000287,-0.970067759224188642
0.449000000000000288,-0.969801337708825484
0.450000000000000289,-0.969333142793064928
0.451000000000000290,-0.968668918911429366
0.452000000000000290,-0.967814303288608402
0.453000000000000291,-0.966774827371003065
0.454000000000000292,-0.965555918243528488
0.455000000000000293,-0.964162900032015324
0.456000000000000294,-0.962600995291566286
0.457000000000000295,-0.960875326381271933
0.458000000000000296,-0.958990916825505635
0.459000000000000297,-0.956952692662200177
0.460000000000000298,-0.954765483778293622
0.461000000000000298,-0.952434025232670067
0.462000000000000299,-0.949962958566791138
0.463000000000000300,-0.947356833103230267
0.464000000000000301,-0.944620107232371220
0.465000000000000302,-0.941757149687400763
0.466000000000000303,-0.938772240807772995
0.467000000000000304,-0.935669573791363285
0.468000000000000305,-0.932453255935367764
0.469000000000000306,-0.929127309866144002
0.470000000000000306,-0.925695674758131304
0.471000000000000307,-0.922162207541867396
0.472000000000000308,-0.918530684101309447
0.473000000000000309,-0.914804800460491618
0.474000000000000310,-0.910988173959606740
0.475000000000000311,-0.907084344420584943
0.476000000000000312,-0.903096775302276500
0.477000000000000313,-0.899028854845234759
0.478000000000000314,-0.894883897206176671
0.479000000000000314,-0.890665143582207386
0.480000000000000315,-0.886375763324775301
0.481000000000000316,-0.882018855043472660
0.482000000000000317,-0.877597447699637767
0.483000000000000318,-0.873114501689853606
0.484000000000000319,-0.868572909919324565
0.485000000000000320,-0.863975498865157454
0.486000000000000321,-0.859325029629592896
0.487000000000000322,-0.854624198983180983
0.488000000000000322,-0.849875640397864673
0.489000000000000323,-0.845081925070118367
0.490000000000000324,-0.840245562933999879
0.491000000000000325,-0.835369003664224286
0.492000000000000326,-0.830454637669208018
0.493000000000000327,-0.825504797074145813
0.494000000000000328,-0.820521756694071014
0.495000000000000329,-0.815507734996957168
0.496000000000000330,-0.810464895056796975
0.497000000000000330,-0.805395345496782822
0.498000000000000331,-0.800301141422418594
0.499000000000000332,-0.795184285344759823
0.500000000000000333,-0.790046728093678929
0.501000000000000334,-0.784890369721135128
0.502000000000000335,-0.779717060394574113
0.503000000000000336,-0.774528601280361273
0.504000000000000337,-0.769326745417310165
0.505000000000000338,-0.764113198580305686
0.506000000000000338,-0.758889620134034382
0.507000000000000339,-0.753657623876846317
0.508000000000000340,-0.748418778874719082
0.509000000000000341,-0.743174610285445403
0.510000000000000342,-0.737926600172922886
0.511000000000000343,-0.732676188311698895
0.512000000000000344,-0.727424772981684842
0.513000000000000345,-0.722173711753130609
0.514000000000000346,-0.716924322261888292
0.515000000000000346,-0.711677882974927956
0.516000000000000347,-0.706435633946189467
0.517000000000000348,-0.701198777562812792
0.518000000000000349,-0.695968479281705910
0.519000000000000350,-0.690745868356578585
0.520000000000000351,-0.685532038555375922
0.521000000000000352,-0.680328048868271362
0.522000000000000353,-0.675134924206123310
0.523000000000000353,-0.669953656089537386
0.524000000000000354,-0.664785203328547736
0.525000000000000355,-0.659630492692936388
0.526000000000000356,-0.654490419573253823
0.527000000000000357,-0.649365848632623810
0.528000000000000358,-0.644257614449290750
0.529000000000000359,-0.639166522150091954
0.530000000000000360,-0.634093348034751814
0.531000000000000361,-0.629038840191193716
0.532000000000000361,-0.624003719101829613
0.533000000000000362,-0.618988678240935619
0.534000000000000363,-0.613994384663129389
0.535000000000000364,-0.609021479583065517
0.536000000000000365,-0.604070578946338532
0.537000000000000366,-0.599142273991730923
0.538000000000000367,-0.594237131804777885
0.539000000000000368,-0.589355695862839535
0.540000000000000369,-0.584498486571589093
0.541000000000000369,-0.579666001793150421
0.542000000000000370,-0.574858717365792193
0.543000000000000371,-0.570077087615375233
0.544000000000000372,-0.565321545858545105
0.545000000000000373,-0.560592504897787669
0.546000000000000374,-0.555890357508370014
0.547000000000000375,-0.551215476917282676
0.548000000000000376,-0.546568217274239987
0.549000000000000377,-0.541948914114806501
0.550000000000000377,-0.537357884815733322
0.551000000000000378,-0.532795429042560498
0.552000000000000379,-0.528261829189599741
0.553000000000000380,-0.523757350812333100
0.554000000000000381,-0.519282243052306525
0.555000000000000382,-0.514836739054653991
0.556000000000000383,-0.510421056378225879
0.557000000000000384,-0.506035397398519216
0.558000000000000385,-0.501679949703371486
0.559000000000000385,-0.497354886481591207
0.560000000000000386,-0.493060366904556791
0.561000000000000387,-0.488796536500865741
0.562000000000000388,-0.484563527524111248
0.563000000000000389,-0.480361459313905226
0.564000000000000390,-0.476190438650163195
0.565000000000000391,-0.472050560100785777
0.566000000000000392,-0.467941906362774052
0.567000000000000393,-0.463864548596915394
0.568000000000000393,-0.459818546756043112
0.569000000000000394,-0.455803949907012285
0.570000000000000395,-0.451820796546458070
0.571000000000000396,-0.447869114910378396
0.572000000000000397,-0.443948923277691421
0.573000000000000398,-0.440060230267761199
0.574000000000000399,-0.436203035132065486
0.575000000000000400,-0.432377328039986242
0.576000000000000401,-0.428583090358873098
0.577000000000000401,-0.424820294928456910
0.578000000000000402,-0.421088906329635637
0.579000000000000403,-0.417388881147745583
0.580000000000000404,-0.413720168230444885
0.581000000000000405,-0.410082708940165852
0.582000000000000406,-0.406476437401351642
0.583000000000000407,-0.402901280742434864
0.584000000000000408,-0.399357159332718148
0.585000000000000409,-0.395843987014194432
0.586000000000000409,-0.392361671328370298
0.587000000000000410,-0.388910113738219099
0.588000000000000411,-0.385489209845262193
0.589000000000000412,-0.382098849601945567
0.590000000000000413,-0.378738917519280294
0.591000000000000414,-0.375409292869908762
0.592000000000000415,-0.372109849886632593
0.593000000000000416,-0.368840457956455148
0.594000000000000417,-0.365600981810229486
0.595000000000000417,-0.362391281708033142
0.596000000000000418,-0.359211213620197423
0.597000000000000419,-0.356060629404252149
0.598000000000000420,-0.352939376977669916
0.599000000000000421,-0.349847300486624768
0.600000000000000422,-0.346784240470734750
0.601000000000000423,-0.343750034023899753
0.602000000000000424,-0.340744514951301147
0.603000000000000425,-0.337767513922618667
0.604000000000000425,-0.334818858621516724
0.605000000000000426,-0.331898373891486631
0.606000000000000427,-0.329005881878133066
0.607000000000000428,-0.326141202167845590
0.608000000000000429,-0.323304151923140881
0.609000000000000430,-0.320494546014458204
0.610000000000000431,-0.317712197148736497
0.611000000000000432,-0.314956915994640874
0.612000000000000433,-0.312228511304574241
0.613000000000000433,-0.309526790033562760
0.614000000000000434,-0.306851557455011192
