# Ag111_HMB
# h[nm],U(h)[kJ/mol]
0.149999999999999994,107.181042405090607872
0.150999999999999995,102.210360001684392728
0.151999999999999996,98.853729015407537872
0.152999999999999997,95.878293890774074271
0.153999999999999998,92.839228431913554118
0.154999999999999999,89.657750905030795252
0.156000000000000000,86.395337176029940451
0.157000000000000001,83.142583656266594971
0.158000000000000002,79.972182570310877736
0.159000000000000002,76.925493144981118121
0.160000000000000003,74.014906858684327062
0.161000000000000004,71.232114798091203056
0.162000000000000005,68.557177117410631695
0.163000000000000006,65.966095595745557034
0.164000000000000007,63.436145509166706802
0.165000000000000008,60.949018979382707073
0.166000000000000009,58.492181370019658004
0.167000000000000010,56.058942336971128384
0.168000000000000010,53.647714998055484159
0.169000000000000011,51.260852358976521259
0.170000000000000012,48.903350309197307411
0.171000000000000013,46.581612432487837339
0.172000000000000014,44.302393113270895242
0.173000000000000015,42.071974786150377668
0.174000000000000016,39.895591896758347161
0.175000000000000017,37.777085750929657593
0.176000000000000018,35.718757888561889047
0.177000000000000018,33.721381936782414357
0.178000000000000019,31.784332434399789946
0.179000000000000020,29.905791706888596337
0.180000000000000021,28.083000822637369964
0.181000000000000022,26.312526731914260836
0.182000000000000023,24.590524008746452722
0.183000000000000024,22.912975611897273609
0.184000000000000025,21.275902414579746846
0.185000000000000026,19.675535753809050732
0.186000000000000026,18.108450869322748389
0.187000000000000027,16.571661868190837197
0.188000000000000028,15.062680842679046833
0.189000000000000029,13.579545089670745028
0.190000000000000030,12.120817143890850076
0.191000000000000031,10.685562657164021871
0.192000000000000032,9.273311136895829421
0.193000000000000033,7.884004291948389032
0.194000000000000034,6.517936302514371505
0.195000000000000034,5.175689797922872870
0.196000000000000035,3.858070744671878938
0.197000000000000036,2.566044856387533990
0.198000000000000037,1.300677567278420321
0.199000000000000038,0.063079081420985353
0.200000000000000039,-1.145644465068282436
0.201000000000000040,-2.324433106096926771
0.202000000000000041,-3.472308139509078018
0.203000000000000042,-4.588400228079597021
0.204000000000000042,-5.671970750829935959
0.205000000000000043,-6.722426821170207845
0.206000000000000044,-7.739330512754500901
0.207000000000000045,-8.722402915758799224
0.208000000000000046,-9.671523691976707582
0.209000000000000047,-10.586726812904885264
0.210000000000000048,-11.468193156706687930
0.211000000000000049,-12.316240612935038357
0.212000000000000050,-13.131312302928346725
0.213000000000000050,-13.913963473008394089
0.214000000000000051,-14.664847560556784956
0.215000000000000052,-15.384701872679192647
0.216000000000000053,-16.074333255900079109
0.217000000000000054,-16.734604075082067709
0.218000000000000055,-17.366418762008692056
0.219000000000000056,-17.970711139892447505
0.220000000000000057,-18.548432680233574388
0.221000000000000058,-19.100541803425080900
0.222000000000000058,-19.627994294532502551
0.223000000000000059,-20.131734870818863925
0.224000000000000060,-20.612689907754429441
0.225000000000000061,-21.071761305240947593
0.226000000000000062,-21.509821455305182525
0.227000000000000063,-21.927709256235907276
0.228000000000000064,-22.326227105670248818
0.229000000000000065,-22.706138796085831189
0.230000000000000066,-23.068168230116711470
0.231000000000000066,-23.412998869694241932
0.232000000000000067,-23.741273831832774732
0.233000000000000068,-24.053596544578120131
0.234000000000000069,-24.350531878877937686
0.235000000000000070,-24.632607675612799625
0.236000000000000071,-24.900316591466005178
0.237000000000000072,-25.154118192466732751
0.238000000000000073,-25.394441229693075712
0.239000000000000073,-25.621686037583646822
0.240000000000000074,-25.836227001419054261
0.241000000000000075,-26.038415046657132024
0.242000000000000076,-26.228580108831529571
0.243000000000000077,-26.407033548557564018
0.244000000000000078,-26.574070481762749552
0.245000000000000079,-26.729972000515139996
0.246000000000000080,-26.875007264723063116
0.247000000000000081,-27.009435449497665616
0.248000000000000081,-27.133507537088455308
0.249000000000000082,-27.247467946016712403
0.250000000000000111,-27.351555993344714324
0.251000000000000112,-27.446007188935926280
0.252000000000000113,-27.531054363100622595
0.253000000000000114,-27.606928631193717649
0.254000000000000115,-27.673860200565759015
0.255000000000000115,-27.732079026778421849
0.256000000000000116,-27.781815327213202238
0.257000000000000117,-27.823299961147341719
0.258000000000000118,-27.856764686070629722
0.259000000000000119,-27.882442300495974052
0.260000000000000120,-27.900566683799819856
0.261000000000000121,-27.911372743737352664
0.262000000000000122,-27.915096282238057057
0.263000000000000123,-27.911973789916352473
0.264000000000000123,-27.902242179453462967
0.265000000000000124,-27.886138467636261140
0.266000000000000125,-27.863899415394694614
0.267000000000000126,-27.835761134676438644
0.268000000000000127,-27.801958670450186872
0.269000000000000128,-27.762725565549409623
0.270000000000000129,-27.718293415468025387
0.271000000000000130,-27.668891419608211635
0.272000000000000131,-27.614745934866601118
0.273000000000000131,-27.556080036836572589
0.274000000000000132,-27.493113093306185135
0.275000000000000133,-27.426060354151626797
0.276000000000000134,-27.355132561164772653
0.277000000000000135,-27.280535580819446295
0.278000000000000136,-27.202470062472229984
0.279000000000000137,-27.121131124015686709
0.280000000000000138,-27.036708066553966745
0.281000000000000139,-26.949384119255444858
0.282000000000000139,-26.859336215153451377
0.283000000000000140,-26.766734798315319210
0.284000000000000141,-26.671743662481141257
0.285000000000000142,-26.574519820986420626
0.286000000000000143,-26.475213407525906462
0.287000000000000144,-26.373967607088900422
0.288000000000000145,-26.270918616198020601
0.289000000000000146,-26.166195631410953837
0.290000000000000147,-26.059920864899645210
0.291000000000000147,-25.952209585798364344
0.292000000000000148,-25.843170185913361792
0.293000000000000149,-25.732904268307855489
0.294000000000000150,-25.621506757216604200
0.295000000000000151,-25.509066027703305224
0.296000000000000152,-25.395664053448097519
0.297000000000000153,-25.281376571042411427
0.298000000000000154,-25.166273259170132803
0.299000000000000155,-25.050417931069425492
0.300000000000000155,-24.933868738693384159
0.301000000000000156,-24.816678387022598429
0.302000000000000157,-24.698894357023966961
0.303000000000000158,-24.580559135799500581
0.304000000000000159,-24.461710452523469428
0.305000000000000160,-24.342381518825185083
0.306000000000000161,-24.222601272338845746
0.307000000000000162,-24.102394622207562236
0.308000000000000163,-23.981782695397733107
0.309000000000000163,-23.860783082749918549
0.310000000000000164,-23.739410083763733184
0.311000000000000165,-23.617674949185328614
0.312000000000000166,-23.495586120537844010
0.313000000000000167,-23.373149465805472147
0.314000000000000168,-23.250368510551432166
0.315000000000000169,-23.127244663818611770
0.316000000000000170,-23.003777438227842822
0.317000000000000171,-22.879964663753650456
0.318000000000000171,-22.755802694719243107
0.319000000000000172,-22.631286609612978111
0.320000000000000173,-22.506410403385778807
0.321000000000000174,-22.381167171943619820
0.322000000000000175,-22.255549288601812918
0.323000000000000176,-22.129548572316718236
0.324000000000000177,-22.003156447557245201
0.325000000000000178,-21.876364095722003356
0.326000000000000179,-21.749162598049263551
0.327000000000000179,-21.621543070004314302
0.328000000000000180,-21.493496787164481532
0.329000000000000181,-21.365015302654914109
0.330000000000000182,-21.236090556217096292
0.331000000000000183,-21.106714975020945957
0.332000000000000184,-20.976881566354556696
0.333000000000000185,-20.846584002349224818
0.334000000000000186,-20.715816696916963480
0.335000000000000187,-20.584574875095405844
0.336000000000000187,-20.452854635011270545
0.337000000000000188,-20.320653002686498212
0.338000000000000189,-20.187967979923485018
0.339000000000000190,-20.054798585515619891
0.340000000000000191,-19.921144890037130182
0.341000000000000192,-19.787008044473658686
0.342000000000000193,-19.652390302959030777
0.343000000000000194,-19.517295039888306718
0.344000000000000195,-19.381726761678624626
0.345000000000000195,-19.245691113451474763
0.346000000000000196,-19.109194880908955128
0.347000000000000197,-18.972245987676377155
0.348000000000000198,-18.834853488381163800
0.349000000000000199,-18.697027557735221848
0.350000000000000200,-18.558779475884342958
0.351000000000000201,-18.420121610283850089
0.352000000000000202,-18.281067394354714395
0.353000000000000203,-18.141631303168825440
0.354000000000000203,-18.001828826406086392
0.355000000000000204,-17.861676438819507950
0.356000000000000205,-17.721191568437625108
0.357000000000000206,-17.580392562726530059
0.358000000000000207,-17.439298652926119360
0.359000000000000208,-17.297929916767845526
0.360000000000000209,-17.156307239773187945
0.361000000000000210,-17.014452275324309483
0.362000000000000210,-16.872387403690151331
0.363000000000000211,-16.730135690183271180
0.364000000000000212,-16.587720842614736227
0.365000000000000213,-16.445167168205905739
0.366000000000000214,-16.302499530108413239
0.367000000000000215,-16.159743303675181636
0.368000000000000216,-16.016924332617886506
0.369000000000000217,-15.874068885178010291
0.370000000000000218,-15.731203610431460760
0.371000000000000218,-15.588355494838827653
0.372000000000000219,-15.445551819146226435
0.373000000000000220,-15.302820115734428796
0.374000000000000221,-15.160188126507089024
0.375000000000000222,-15.017683761401851683
0.376000000000000223,-14.875335057601745348
0.377000000000000224,-14.733170139517856256
0.378000000000000225,-14.591217179607989252
0.379000000000000226,-14.449504360090125843
0.380000000000000226,-14.308059835603913257
0.381000000000000227,-14.166911696867492410
0.382000000000000228,-14.026087935372249405
0.383000000000000229,-13.885616409152580886
0.384000000000000230,-13.745524809662962085
0.385000000000000231,-13.605840629790396434
0.386000000000000232,-13.466591133025332283
0.387000000000000233,-13.327803323810408997
0.388000000000000234,-13.189503919082227412
0.389000000000000234,-13.051719321017774433
0.390000000000000235,-12.914475590993177434
0.391000000000000236,-12.777798424759785334
0.392000000000000237,-12.641713128838675928
0.393000000000000238,-12.506244598132454371
0.394000000000000239,-12.371417294749843307
0.395000000000000240,-12.237255228036454824
0.396000000000000241,-12.103781935802462755
0.397000000000000242,-11.971020466735716070
0.398000000000000242,-11.838993363986924479
0.399000000000000243,-11.707722649911431745
0.400000000000000244,-11.577229811950406457
0.401000000000000245,-11.447535789632897973
0.402000000000000246,-11.318660962678444903
0.403000000000000247,-11.190625140178685371
0.404000000000000248,-11.063447550835444844
0.405000000000000249,-10.937146834231427306
0.406000000000000250,-10.811741033108914323
0.407000000000000250,-10.687247586630851615
0.408000000000000251,-10.563683324598148516
0.409000000000000252,-10.441064462596417073
0.410000000000000253,-10.319406598044544410
0.411000000000000254,-10.198724707117573729
0.412000000000000255,-10.079033142515573473
0.413000000000000256,-9.960345632050174203
0.414000000000000257,-9.842675278020127649
0.415000000000000258,-9.726034557347279730
0.416000000000000258,-9.610435322444228490
0.417000000000000259,-9.495888802784863358
0.418000000000000260,-9.382405607149312488
0.419000000000000261,-9.269995726514707712
0.420000000000000262,-9.158668537563546153
0.421000000000000263,-9.048432806781615767
0.422000000000000264,-8.939296695117651126
0.423000000000000265,-8.831267763177283570
0.424000000000000266,-8.724352976924382830
0.425000000000000266,-8.618558713862842779
0.426000000000000267,-8.513890769672748604
0.427000000000000268,-8.410354365275040323
0.428000000000000269,-8.307954154299416416
0.429000000000000270,-8.206694230930583700
0.430000000000000271,-8.106578138108611498
0.431000000000000272,-8.007608876059634895
0.432000000000000273,-7.909788911133658118
0.433000000000000274,-7.813120184926935607
0.434000000000000274,-7.717604123666720106
0.435000000000000275,-7.623241647837088131
0.436000000000000276,-7.530033182024918226
0.437000000000000277,-7.437978664965666731
0.438000000000000278,-7.347077559769442878
0.439000000000000279,-7.257328864308289162
0.440000000000000280,-7.168731121746174217
0.441000000000000281,-7.081282431193942628
0.442000000000000282,-6.994980458472052298
0.443000000000000282,-6.909822446964371423
0.444000000000000283,-6.825805228547165981
0.445000000000000284,-6.742925234577862525
0.446000000000000285,-6.661178506928609799
0.447000000000000286,-6.580560709050788049
0.448000000000000287,-6.501067137056392831
0.449000000000000288,-6.422692730803627015
0.450000000000000289,-6.345432084973928966
0.451000000000000290,-6.269279460128663217
0.452000000000000290,-6.194228793734007255
0.453000000000000291,-6.120273711143193296
0.454000000000000292,-6.047407536525840399
0.455000000000000293,-5.975623303734439062
0.456000000000000294,-5.904913767098849853
0.457000000000000295,-5.835271412139848124
0.458000000000000296,-5.766688466193516049
0.459000000000000297,-5.699156908938562083
0.460000000000000298,-5.632668482819174649
0.461000000000000298,-5.567214703356491157
0.462000000000000299,-5.502786869342157772
0.463000000000000300,-5.439376072907872839
0.464000000000000301,-5.376973209465273129
0.465000000000000302,-5.315568987510878252
0.466000000000000303,-5.255153938291185156
0.467000000000000304,-5.195718425323365253
0.468000000000000305,-5.137252653767545141
0.469000000000000306,-5.079746679646687468
0.470000000000000306,-5.023190418910787436
0.471000000000000307,-4.967573656342073818
0.472000000000000308,-4.912886054298595262
0.473000000000000309,-4.859117161293488252
0.474000000000000310,-4.806256420407826191
0.475000000000000311,-4.754293177535050319
0.476000000000000312,-4.703216689455421040
0.477000000000000313,-4.653016131738868744
0.478000000000000314,-4.603680606475313297
0.479000000000000314,-4.555199149831419270
0.480000000000000315,-4.507560739433070118
0.481000000000000316,-4.460754301573180314
0.482000000000000317,-4.414768718244497236
0.483000000000000318,-4.369592833997377745
0.484000000000000319,-4.325215462622617579
0.485000000000000320,-4.281625393659727052
0.486000000000000321,-4.238811398731014535
0.487000000000000322,-4.196762237702212239
0.488000000000000322,-4.155466664670368182
0.489000000000000323,-4.114913433780007068
0.490000000000000324,-4.075091304868609932
0.491000000000000325,-4.035989048942622226
0.492000000000000326,-3.997595453485282668
0.493000000000000327,-3.959899327597837804
0.494000000000000328,-3.922889506975549612
0.495000000000000329,-3.886554858720279615
0.496000000000000330,-3.850884285991317935
0.497000000000000330,-3.815866732496342451
0.498000000000000331,-3.781491186824418094
0.499000000000000332,-3.747746686623038670
0.500000000000000333,-3.714622322621278894
0.501000000000000334,-3.682107242501193589
0.502000000000000335,-3.650190654619632546
0.503000000000000336,-3.618861831582798061
0.504000000000000337,-3.588110113675727408
0.505000000000000338,-3.557924912149144969
0.506000000000000338,-3.528295712365999925
0.507000000000000339,-3.499212076810136018
0.508000000000000340,-3.470663647959534526
0.509000000000000341,-3.442640151026616024
0.510000000000000342,-3.415131396568067856
0.511000000000000343,-3.388127282966753917
0.512000000000000344,-3.361617798788205214
0.513000000000000345,-3.335593025014266466
0.514000000000000346,-3.310043137156431836
0.515000000000000346,-3.284958407251443280
0.516000000000000347,-3.260329205741690828
0.517000000000000348,-3.236146003243050906
0.518000000000000349,-3.212399372202589198
0.519000000000000350,-3.189079988448839664
0.520000000000000351,-3.166178632637108414
0.521000000000000352,-3.143686191592362178
0.522000000000000353,-3.121593659552264199
0.523000000000000353,-3.099892139312799166
0.524000000000000354,-3.078572843279096638
0.525000000000000355,-3.057627094423810199
0.526000000000000356,-3.037046327155603187
0.527000000000000357,-3.016822088100161281
0.528000000000000358,-2.996946036796121593
0.529000000000000359,-2.977409946308340771
0.530000000000000360,-2.958205703760878880
0.531000000000000361,-2.939325310792030521
0.532000000000000361,-2.920760883933700924
0.533000000000000362,-2.902504654917467786
0.534000000000000363,-2.884548970909549759
0.535000000000000364,-2.866886294676904701
0.536000000000000365,-2.849509204686692776
0.537000000000000366,-2.832410395141253368
0.538000000000000367,-2.815582675950707436
0.539000000000000368,-2.799018972645352932
0.540000000000000369,-2.782712326229832112
0.541000000000000369,-2.766655892981195741
0.542000000000000370,-2.750842944192817274
0.543000000000000371,-2.735266865866106123
0.544000000000000372,-2.719921158352023749
0.545000000000000373,-2.704799435944220676
0.546000000000000374,-2.689895426425708447
0.547000000000000375,-2.675202970570853545
0.548000000000000376,-2.660716021604546455
0.549000000000000377,-2.646428644620237414
0.550000000000000377,-2.632335015958559232
0.551000000000000378,-2.618429422548306018
0.552000000000000379,-2.604706261211293672
0.553000000000000380,-2.591160037932823901
0.554000000000000381,-2.577785367099251879
0.555000000000000382,-2.564576970704270487
0.556000000000000383,-2.551529677525327777
0.557000000000000384,-2.538638422271758621
0.558000000000000385,-2.525898244705970797
0.559000000000000385,-2.513304288739172776
0.560000000000000386,-2.500851801502929739
0.561000000000000387,-2.488536132397963563
0.562000000000000388,-2.476352732121446021
0.563000000000000389,-2.464297151674074815
0.564000000000000390,-2.452365041348159913
0.565000000000000391,-2.440552149697940543
0.566000000000000392,-2.428854322493283924
0.567000000000000393,-2.417267501657927475
0.568000000000000393,-2.405787724193341415
0.569000000000000394,-2.394411121089329519
0.570000000000000395,-2.383133916222386794
0.571000000000000396,-2.371952425242830120
0.572000000000000397,-2.360863054451725063
0.573000000000000398,-2.349862299668502352
0.574000000000000399,-2.338946745090271229
0.575000000000000400,-2.328113062143662759
0.576000000000000401,-2.317358008330109076
0.577000000000000401,-2.306678426065414289
0.578000000000000402,-2.296071241514408889
0.579000000000000403,-2.285533463421487888
0.580000000000000404,-2.275062181937812067
0.581000000000000405,-2.264654567445913980
0.582000000000000406,-2.254307869382382368
0.583000000000000407,-2.244019415059391065
0.584000000000000408,-2.233786608485658132
0.585000000000000409,-2.223606929187539105
0.586000000000000409,-2.213477931030848112
0.587000000000000410,-2.203397241044007249
0.588000000000000411,-2.193362558243102445
0.589000000000000412,-2.183371652459393797
0.590000000000000413,-2.173422363169821292
0.591000000000000414,-2.163512598331011283
0.592000000000000415,-2.153640333217275771
0.593000000000000416,-2.143803609263067678
0.594000000000000417,-2.134000532910367731
0.595000000000000417,-2.124229274461411521
0.596000000000000418,-2.114488066937164845
0.597000000000000419,-2.104775204941990552
0.598000000000000420,-2.095089043534811957
0.599000000000000421,-2.085427997107206277
0.600000000000000422,-2.075790538268719843
0.601000000000000423,-2.066175196739762132
0.602000000000000424,-2.056580558252373514
0.603000000000000425,-2.047005263459177549
0.604000000000000425,-2.037448006850790083
0.605000000000000426,-2.027907535681938267
0.606000000000000427,-2.018382648906594135
0.607000000000000428,-2.008872196122261311
0.608000000000000429,-1.999375076523770556
