# Ag111_NC4-JS
# h[nm],U(h)[kJ/mol]
0.149999999999999994,146.268656903920003742
0.150999999999999995,143.326462973915141674
0.151999999999999996,139.693093280445822302
0.152999999999999997,135.892491524561791039
0.153999999999999998,132.173549139782466000
0.154999999999999999,128.624873653086581271
0.156000000000000000,125.250768957182657459
0.157000000000000001,122.018828946798493007
0.158000000000000002,118.887617234891536100
0.159000000000000002,115.820997488183508040
0.160000000000000003,112.793988260694462156
0.161000000000000004,109.793617091251320517
0.162000000000000005,106.817147150205045136
0.163000000000000006,103.869217756592362889
0.164000000000000007,100.958835371705632156
0.165000000000000008,98.096729133011351109
0.166000000000000009,95.293302678862914945
0.167000000000000010,92.557235789459284092
0.168000000000000010,89.894685681319131731
0.169000000000000011,87.308985435114252027
0.170000000000000012,84.800718410373207234
0.171000000000000013,82.368049689862118612
0.172000000000000014,80.007209440987892890
0.173000000000000015,77.713042330307544603
0.174000000000000016,75.479557714974390592
0.175000000000000017,73.300434789800007707
0.176000000000000018,71.169453843029288009
0.177000000000000018,69.080838684573066644
0.178000000000000019,67.029506068977212863
0.179000000000000020,65.011225752860454463
0.180000000000000021,63.022700075512275930
0.181000000000000022,61.061575072132868058
0.182000000000000023,59.126396569117773083
0.183000000000000024,57.216524887099716068
0.184000000000000025,55.332021057361124861
0.185000000000000026,53.473516149285217125
0.186000000000000026,51.642073659650122863
0.187000000000000027,49.839053121673110525
0.188000000000000028,48.065981295795701556
0.189000000000000029,46.324435605735843069
0.190000000000000030,44.615942947766434656
0.191000000000000031,42.941895666112614549
0.192000000000000032,41.303485369003524852
0.193000000000000033,39.701654358686148782
0.194000000000000034,38.137063753948538647
0.195000000000000034,36.610076877455547617
0.196000000000000035,35.120756140283951652
0.197000000000000036,33.668871458310249523
0.198000000000000037,32.253918155178020299
0.199000000000000038,30.875142321050532246
0.200000000000000039,29.531571683609843859
0.201000000000000040,28.222050188432838524
0.202000000000000041,26.945274663094700429
0.203000000000000042,25.699832138825890127
0.204000000000000042,24.484236613469782640
0.205000000000000043,23.296964250390061579
0.206000000000000044,22.136486212502575199
0.207000000000000045,21.001298523290735432
0.208000000000000046,19.889948523655316848
0.209000000000000047,18.801057652275169119
0.210000000000000048,17.733340416475883217
0.211000000000000049,16.685619539994874572
0.212000000000000050,15.656837373780765788
0.213000000000000050,14.646063736915413855
0.214000000000000051,13.652500418115115721
0.215000000000000052,12.675482615555162980
0.216000000000000053,11.714477625616986245
0.217000000000000054,10.769081111310329746
0.218000000000000055,9.839011290310018865
0.219000000000000056,8.924101382461747889
0.220000000000000057,8.024290648857284936
0.221000000000000058,7.139614340666156522
0.222000000000000058,6.270192857193958247
0.223000000000000059,5.416220390364415493
0.224000000000000060,4.577953308071419869
0.225000000000000061,3.755698502572953679
0.226000000000000062,2.949801903110621737
0.227000000000000063,2.160637324917353830
0.228000000000000064,1.388595800284298853
0.229000000000000065,0.634075511842234874
0.230000000000000066,-0.102527575971336132
0.231000000000000066,-0.820828313885274552
0.232000000000000067,-1.520460140654571690
0.233000000000000068,-2.201081998185344002
0.234000000000000069,-2.862384372284303424
0.235000000000000070,-3.504094457412084473
0.236000000000000071,-4.125980456905073979
0.237000000000000072,-4.727855041343437037
0.238000000000000073,-5.309577997164920404
0.239000000000000073,-5.871058105358633483
0.240000000000000074,-6.412254296240361029
0.241000000000000075,-6.933176131029990863
0.242000000000000076,-7.433883664358002186
0.243000000000000077,-7.914486744051652423
0.244000000000000078,-8.375143805723002544
0.245000000000000079,-8.816060219929196862
0.246000000000000080,-9.237486249122483173
0.247000000000000081,-9.639714670372161009
0.248000000000000081,-10.023078118030092298
0.249000000000000082,-10.387946198229940364
0.250000000000000111,-10.734722424451280887
0.251000000000000112,-11.063841020427997108
0.252000000000000113,-11.375763633515344253
0.253000000000000114,-11.670975998316936995
0.254000000000000115,-11.949984586978510848
0.255000000000000115,-12.213313279127138600
0.256000000000000116,-12.461500081023730857
0.257000000000000117,-12.695093920140308796
0.258000000000000118,-12.914651538104445549
0.259000000000000119,-13.120734501801454286
0.260000000000000120,-13.313906349410142838
0.261000000000000121,-13.494729885288103688
0.262000000000000122,-13.663764634932075381
0.263000000000000123,-13.821564468724911734
0.264000000000000123,-13.968675400851219948
0.265000000000000124,-14.105633567619566549
0.266000000000000125,-14.232963387472935324
0.267000000000000126,-14.351175903196278227
0.268000000000000127,-14.460767305239878411
0.269000000000000128,-14.562217633661717286
0.270000000000000129,-14.655989654946747436
0.271000000000000130,-14.742527908877494980
0.272000000000000131,-14.822257919700396300
0.273000000000000131,-14.895585565047406718
0.274000000000000132,-14.962896595423021751
0.275000000000000133,-15.024556296544128386
0.276000000000000134,-15.080909286413662684
0.277000000000000135,-15.132279438710019903
0.278000000000000136,-15.178969923873463443
0.279000000000000137,-15.221263359158152539
0.280000000000000138,-15.259422058886267237
0.281000000000000139,-15.293688376179591870
0.282000000000000139,-15.324285127546033891
0.283000000000000140,-15.351416091856327384
0.284000000000000141,-15.375266575451624007
0.285000000000000142,-15.396004035369816876
0.286000000000000143,-15.413778752960080709
0.287000000000000144,-15.428724550465540588
0.288000000000000145,-15.440959543488336436
0.289000000000000146,-15.450586922602903783
0.290000000000000147,-15.457695757749785770
0.291000000000000147,-15.462361819416926778
0.292000000000000148,-15.464648410997131833
0.293000000000000149,-15.464607207092928576
0.294000000000000150,-15.462279092922875279
0.295000000000000151,-15.457695000362694060
0.296000000000000152,-15.450876736527192179
0.297000000000000153,-15.441837801165366528
0.298000000000000154,-15.430584189496205028
0.299000000000000155,-15.417115177458237341
0.300000000000000155,-15.401424086678286329
0.301000000000000156,-15.383499026784283714
0.302000000000000157,-15.363323612992653366
0.303000000000000158,-15.340877657191123618
0.304000000000000159,-15.316137831013971748
0.305000000000000160,-15.289078299666357452
0.306000000000000161,-15.259671325499670758
0.307000000000000162,-15.227887840568882893
0.308000000000000163,-15.193697987616568312
0.309000000000000163,-15.157071629126836143
0.310000000000000164,-15.117978824276130823
0.311000000000000165,-15.076390273776302919
0.312000000000000166,-15.032277732760388034
0.313000000000000167,-14.985614392002142736
0.314000000000000168,-14.936375227887648265
0.315000000000000169,-14.884537321672294041
0.316000000000000170,-14.830080148658655759
0.317000000000000171,-14.772985838021549299
0.318000000000000171,-14.713239404086005280
0.319000000000000172,-14.650828949933361045
0.320000000000000173,-14.585745844269425220
0.321000000000000174,-14.517984872538704622
0.322000000000000175,-14.447544363309864579
0.323000000000000176,-14.374426290990300004
0.324000000000000177,-14.298636355953155075
0.325000000000000178,-14.220184043178278444
0.326000000000000179,-14.139082660520713830
0.327000000000000179,-14.055349357725456017
0.328000000000000180,-13.969005127308093961
0.329000000000000181,-13.880074788416180809
0.330000000000000182,-13.788586954776352655
0.331000000000000183,-13.694573987819776306
0.332000000000000184,-13.598071936060751597
0.333000000000000185,-13.499120461783377323
0.334000000000000186,-13.397762756068043899
0.335000000000000187,-13.294045443163545528
0.336000000000000187,-13.188018475183127975
0.337000000000000188,-13.079735018072483399
0.338000000000000189,-12.969251329766873226
0.339000000000000190,-12.856626631421567808
0.340000000000000191,-12.741922972565911110
0.341000000000000192,-12.625205090997422275
0.342000000000000193,-12.506540268196236099
0.343000000000000194,-12.385998181005650309
0.344000000000000195,-12.263650750287837354
0.345000000000000195,-12.139571987228800154
0.346000000000000196,-12.013837837930319452
0.347000000000000197,-11.886526026891525376
0.348000000000000198,-11.757715899947630334
0.349000000000000199,-11.627488267198506477
0.350000000000000200,-11.495925246426217825
0.351000000000000201,-11.363110107466798837
0.352000000000000202,-11.229127117969301963
0.353000000000000203,-11.094061390943322110
0.354000000000000203,-10.957998734465169477
0.355000000000000204,-10.821025503882953700
0.356000000000000205,-10.683228456831930231
0.357000000000000206,-10.544694611343366830
0.358000000000000207,-10.405511107303009766
0.359000000000000208,-10.265765071489699523
0.360000000000000209,-10.125543486399378068
0.361000000000000210,-9.984933063036145029
0.362000000000000210,-9.844020117829145988
0.363000000000000211,-9.702890453812372584
0.364000000000000212,-9.561629246183969144
0.365000000000000213,-9.420320932341766706
0.366000000000000214,-9.279049106473497233
0.367000000000000215,-9.137896418762398554
0.368000000000000216,-8.996944479252576343
0.369000000000000217,-8.856273766402736669
0.370000000000000218,-8.715963540342569260
0.371000000000000218,-8.576091760832166955
0.372000000000000219,-8.436735009912315064
0.373000000000000220,-8.297968419221588121
0.374000000000000221,-8.159865601945206492
0.375000000000000222,-8.022498589350355758
0.376000000000000223,-7.885937771853508416
0.377000000000000224,-7.750251844556501624
0.378000000000000225,-7.615507757180428605
0.379000000000000226,-7.481770668319110307
0.380000000000000226,-7.349103903927698411
0.381000000000000227,-7.217568919955814621
0.382000000000000228,-7.087225269029832297
0.383000000000000229,-6.958130571084025107
0.384000000000000230,-6.830340487836330965
0.385000000000000231,-6.703908701001194181
0.386000000000000232,-6.578886894128662455
0.387000000000000233,-6.455324737956601666
0.388000000000000234,-6.333269879160752680
0.389000000000000234,-6.212767932385829361
0.390000000000000235,-6.093862475439387083
0.391000000000000236,-5.976595047529723814
0.392000000000000237,-5.861005150428070465
0.393000000000000238,-5.747130252435688647
0.394000000000000239,-5.635005795036146736
0.395000000000000240,-5.524665202113785867
0.396000000000000241,-5.416139891619931923
0.397000000000000242,-5.309459289569267604
0.398000000000000242,-5.204650846250134855
0.399000000000000243,-5.101740054533659752
0.400000000000000244,-5.000750470168124906
0.401000000000000245,-4.901703733947124775
0.402000000000000246,-4.804619595641257845
0.403000000000000247,-4.709515939585635635
0.404000000000000248,-4.616408811817395375
0.405000000000000249,-4.525312448659696507
0.406000000000000250,-4.436239306650943348
0.407000000000000250,-4.349200093720545723
0.408000000000000251,-4.264203801514819148
0.409000000000000252,-4.181257738779479816
0.410000000000000253,-4.100367565707406570
0.411000000000000254,-4.021537329163471952
0.412000000000000255,-3.944769498700428922
0.413000000000000256,-3.870065003283061689
0.414000000000000257,-3.797423268640046423
0.415000000000000258,-3.726842255166152196
0.416000000000000258,-3.658318496299829636
0.417000000000000259,-3.591847137304154280
0.418000000000000260,-3.527421974381758751
0.419000000000000261,-3.465035494057080001
0.420000000000000262,-3.404678912762027387
0.421000000000000263,-3.346342216563768179
0.422000000000000264,-3.290014200975957870
0.423000000000000265,-3.235682510797369904
0.424000000000000266,-3.183333679924585713
0.425000000000000266,-3.132953171087594413
0.426000000000000267,-3.084525415460003916
0.427000000000000268,-3.038033852097788312
0.428000000000000269,-2.993460967162918429
0.429000000000000270,-2.950788332890618371
0.430000000000000271,-2.909996646261243658
0.431000000000000272,-2.871065767339973540
0.432000000000000273,-2.833974757249772214
0.433000000000000274,-2.798701915745110291
0.434000000000000274,-2.765224818356105452
0.435000000000000275,-2.733520353074601950
0.436000000000000276,-2.703564756555840720
0.437000000000000277,-2.675333649811110437
0.438000000000000278,-2.648802073368668353
0.439000000000000279,-2.623944521882062730
0.440000000000000280,-2.600734978166539868
0.441000000000000281,-2.579146946646005301
0.442000000000000282,-2.559153486194674532
0.443000000000000282,-2.540727242358794769
0.444000000000000283,-2.523840478945746924
0.445000000000000284,-2.508465108968846113
0.446000000000000285,-2.494572724937750952
0.447000000000000286,-2.482134628485791694
0.448000000000000287,-2.471121859326500747
0.449000000000000288,-2.461505223533160258
0.450000000000000289,-2.453255321136125211
0.451000000000000290,-2.446342573033880363
0.452000000000000290,-2.440737247214830763
0.453000000000000291,-2.436409484287827443
0.454000000000000292,-2.433329322320417099
0.455000000000000293,-2.431466720984659879
0.456000000000000294,-2.430791585011299993
0.457000000000000295,-2.431273786953840332
0.458000000000000296,-2.432883189264888113
0.459000000000000297,-2.435589665687822425
0.460000000000000298,-2.439363121967650372
0.461000000000000298,-2.444173515885359471
0.462000000000000299,-2.449990876620979030
0.463000000000000300,-2.456785323450829672
0.464000000000000301,-2.464527083785276407
0.465000000000000302,-2.473186510553539996
0.466000000000000303,-2.482734098942855461
0.467000000000000304,-2.493140502499426425
0.468000000000000305,-2.504376548599323904
0.469000000000000306,-2.516413253297590469
0.470000000000000306,-2.529221835564364973
0.471000000000000307,-2.542773730916995767
0.472000000000000308,-2.557040604457556654
0.473000000000000309,-2.571994363325313060
0.474000000000000310,-2.587607168573966554
0.475000000000000311,-2.603851446483830934
0.476000000000000312,-2.620699899319041570
0.477000000000000313,-2.638125515540353128
0.478000000000000314,-2.656101579483976849
0.479000000000000314,-2.674601680517259439
0.480000000000000315,-2.693599721681880776
0.481000000000000316,-2.713069927835595418
0.482000000000000317,-2.732986853303345232
0.483000000000000318,-2.753325389048870697
0.484000000000000319,-2.774060769377788560
0.485000000000000320,-2.795168578183284680
0.486000000000000321,-2.816624754745466142
0.487000000000000322,-2.838405599095448650
0.488000000000000322,-2.860487776955281447
0.489000000000000323,-2.882848324264699613
0.490000000000000324,-2.905464651305732726
0.491000000000000325,-2.928314546436088683
0.492000000000000326,-2.951376179442186221
0.493000000000000327,-2.974628104522641259
0.494000000000000328,-2.998049262912953594
0.495000000000000329,-3.021618985161987236
0.496000000000000330,-3.045316993070791511
0.497000000000000330,-3.069123401304222121
0.498000000000000331,-3.093018718685634383
0.499000000000000332,-3.116983849184832955
0.500000000000000333,-3.141000092609446348
0.501000000000000334,-3.165049145009547260
0.502000000000000335,-3.189113098805412161
0.503000000000000336,-3.213174442648039530
0.504000000000000337,-3.237216061021997771
0.505000000000000338,-3.261221233599932212
0.506000000000000338,-3.285173634357988703
0.507000000000000339,-3.309057330461230517
0.508000000000000340,-3.332856780927944129
0.509000000000000341,-3.356556835081620616
0.510000000000000342,-3.380142730799173822
0.511000000000000343,-3.403600092563879631
0.512000000000000344,-3.426914929331279946
0.513000000000000345,-3.450073632216123176
0.514000000000000346,-3.473062972008409410
0.515000000000000346,-3.495870096526140891
0.516000000000000347,-3.518482527812518690
0.517000000000000348,-3.540888159185000550
0.518000000000000349,-3.563075252143443894
0.519000000000000350,-3.585032433144482944
0.520000000000000351,-3.606748690249101941
0.521000000000000352,-3.628213369650129749
0.522000000000000353,-3.649416172086277221
0.523000000000000353,-3.670347149149203680
0.524000000000000354,-3.690996699489836885
0.525000000000000355,-3.711355564930118867
0.526000000000000356,-3.731414826486077807
0.527000000000000357,-3.751165900308070178
0.528000000000000358,-3.770600533543851274
0.529000000000000359,-3.789710800129869828
0.530000000000000360,-3.808489096516213923
0.531000000000000361,-3.826928137330307234
0.532000000000000361,-3.845020950984468389
0.533000000000000362,-3.862760875232079005
0.534000000000000363,-3.880141552677228933
0.535000000000000364,-3.897156926242312913
0.536000000000000365,-3.913801234598071943
0.537000000000000366,-3.930069007560363925
0.538000000000000367,-3.945955061457800728
0.539000000000000368,-3.961454494474324406
0.540000000000000369,-3.976562681970553736
0.541000000000000369,-3.991275271787686485
0.542000000000000370,-4.005588179537577176
0.543000000000000371,-4.019497583882481351
0.544000000000000372,-4.032999921807859600
0.545000000000000373,-4.046091883891454799
0.546000000000000374,-4.058770409571809346
0.547000000000000375,-4.071032682419209792
0.548000000000000376,-4.082876125411975643
0.549000000000000377,-4.094298396220837688
0.550000000000000377,-4.105297382504137005
0.551000000000000378,-4.115871197216348421
0.552000000000000379,-4.126018173932425981
0.553000000000000380,-4.135736862190315222
0.554000000000000381,-4.145026022853858017
0.555000000000000382,-4.153884623498325546
0.556000000000000383,-4.162311833820515616
0.557000000000000384,-4.170307021075493559
0.558000000000000385,-4.177869745541775259
0.559000000000000385,-4.184999756016787309
0.560000000000000386,-4.191696985344229631
0.561000000000000387,-4.197961545975057440
0.562000000000000388,-4.203793725563476968
0.563000000000000389,-4.209193982599552797
0.564000000000000390,-4.214162942079644480
0.565000000000000391,-4.218701391216091778
0.566000000000000392,-4.222810275187290685
0.567000000000000393,-4.226490692929338877
0.568000000000000393,-4.229743892970304842
0.569000000000000394,-4.232571269308165185
0.570000000000000395,-4.234974357333333828
0.571000000000000396,-4.236954829796623301
0.572000000000000397,-4.238514492823545865
0.573000000000000398,-4.239655281975624135
0.574000000000000399,-4.240379258359444847
0.575000000000000400,-4.240688604784121907
0.576000000000000401,-4.240585621967689178
0.577000000000000401,-4.240072724793050085
0.578000000000000402,-4.239152438613875695
0.579000000000000403,-4.237827395610944237
0.580000000000000404,-4.236100331199305735
0.581000000000000405,-4.233974080486559544
0.582000000000000406,-4.231451574782623126
0.583000000000000407,-4.228535838161161742
0.584000000000000408,-4.225229984072953471
0.585000000000000409,-4.221537212011327256
0.586000000000000409,-4.217460804229809845
0.587000000000000410,-4.213004122512101546
0.588000000000000411,-4.208170604994391439
0.589000000000000412,-4.202963763040122203
0.590000000000000413,-4.197387178167077515
0.591000000000000414,-4.191444499026869330
0.592000000000000415,-4.185139438436713100
0.593000000000000416,-4.178475770463335515
0.594000000000000417,-4.171457327558993455
0.595000000000000417,-4.164087997749390979
0.596000000000000418,-4.156371721873282965
0.597000000000000419,-4.148312490873677483
0.598000000000000420,-4.139914343140267405
0.599000000000000421,-4.131181361902960703
0.600000000000000422,-4.122117672676175459
0.601000000000000423,-4.112727440753625174
0.602000000000000424,-4.103014868753301236
0.603000000000000425,-4.092984194212327509
0.604000000000000425,-4.082639687231268688
0.605000000000000426,-4.071985648167667726
0.606000000000000427,-4.061026405378330928
0.607000000000000428,-4.049766313009956598
0.608000000000000429,-4.038209748837831903
0.609000000000000430,-4.026361112151998434
0.610000000000000431,-4.014224821690637768
