# Ag111_CS-387-AC
# h[nm],U(h)[kJ/mol]
0.200000000000000011,100.856479195085825040
0.201000000000000012,93.405672808531775786
0.202000000000000013,89.390508802348364270
0.203000000000000014,86.937497189621808502
0.204000000000000015,84.988890444012454850
0.205000000000000016,83.006500027432053912
0.206000000000000016,80.769071454499425045
0.207000000000000017,78.236667074165580971
0.208000000000000018,75.462443592193011455
0.209000000000000019,72.537447860198440708
0.210000000000000020,69.557987025487122423
0.211000000000000021,66.608065716818458668
0.212000000000000022,63.751561607697098566
0.213000000000000023,61.030415037259182043
0.214000000000000024,58.466279551003580650
0.215000000000000024,56.063926466866007559
0.216000000000000025,53.815300543742090156
0.217000000000000026,51.703548433579385346
0.218000000000000027,49.706634490775272184
0.219000000000000028,47.800355619669304019
0.220000000000000029,45.960695092483682345
0.221000000000000030,44.165534722192631989
0.222000000000000031,42.395790251719517983
0.223000000000000032,40.636057182851942571
0.224000000000000032,38.874861387654007672
0.225000000000000033,37.104606355249636351
0.226000000000000034,35.321300794538672108
0.227000000000000035,33.524139275196340293
0.228000000000000036,31.714996481813255258
0.229000000000000037,29.897883665183947244
0.230000000000000038,28.078404722540017957
0.231000000000000039,26.263239421984529542
0.232000000000000040,24.459672780174173568
0.233000000000000040,22.675182533640160898
0.234000000000000041,20.917090946950416708
0.235000000000000042,19.192282754290168612
0.236000000000000043,17.506987686100501378
0.237000000000000044,15.866623630601191408
0.238000000000000045,14.275694865059842087
0.239000000000000046,12.737738817051464935
0.240000000000000047,11.255314349168788368
0.241000000000000048,9.830024485209381879
0.242000000000000048,8.462566711778984896
0.243000000000000049,7.152804412503638964
0.244000000000000050,5.899853553516658522
0.245000000000000051,4.702179382857994305
0.246000000000000052,3.557698589026816016
0.247000000000000053,2.463883051460339146
0.248000000000000054,1.417861983128343883
0.249000000000000055,0.416519894863457918
0.250000000000000056,-0.543411609504656057
0.251000000000000056,-1.465269675950752859
0.252000000000000057,-2.352384688362991305
0.253000000000000058,-3.208014009492865082
0.254000000000000059,-4.035285242551269747
0.255000000000000060,-4.837148998670549815
0.256000000000000061,-5.616340926002027167
0.257000000000000062,-6.375352575230128771
0.258000000000000063,-7.116410538738241698
0.259000000000000064,-7.841463201425509233
0.260000000000000064,-8.552174375184726784
0.261000000000000065,-9.249923051445239963
0.262000000000000066,-9.935808492392926183
0.263000000000000067,-10.610659887279064506
0.264000000000000068,-11.275049821792125115
0.265000000000000069,-11.929310842360136391
0.266000000000000070,-12.573554440445180447
0.267000000000000071,-13.207691831752200073
0.268000000000000071,-13.831455959529829869
0.269000000000000072,-14.444424207876725319
0.270000000000000073,-15.046041368578897846
0.271000000000000074,-15.635642462182872237
0.272000000000000075,-16.212475069704531450
0.273000000000000076,-16.775720884760900731
0.274000000000000077,-17.324516246372937189
0.275000000000000078,-17.857971459772073786
0.276000000000000079,-18.375188755954582120
0.277000000000000079,-18.875278780291804281
0.278000000000000080,-19.357375536150176032
0.279000000000000081,-19.820649741221352258
0.280000000000000082,-20.264320582191508890
0.281000000000000083,-20.687665877630237787
0.282000000000000084,-21.090030679731395225
0.283000000000000085,-21.470834363001078060
0.284000000000000086,-21.829576262390915531
0.285000000000000087,-22.165839934959610247
0.286000000000000087,-22.479296128161877277
0.287000000000000088,-22.769704544558880599
0.288000000000000089,-23.036914497363220278
0.289000000000000090,-23.280864554012758560
0.290000000000000091,-23.501581266136060577
0.291000000000000092,-23.699177084047445163
0.292000000000000093,-23.873847552488857815
0.293000000000000094,-24.025867881910723867
0.294000000000000095,-24.155588986324865175
0.295000000000000095,-24.263433074829425351
0.296000000000000096,-24.349888879439781419
0.297000000000000097,-24.415506596990837807
0.298000000000000098,-24.460892617718776876
0.299000000000000099,-24.486704107785879359
0.300000000000000100,-24.493643507568798157
0.301000000000000101,-24.482453002066250747
0.302000000000000102,-24.453909014361311591
0.303000000000000103,-24.408816767753769739
0.304000000000000103,-24.348004957003745119
0.305000000000000104,-24.272320564139000965
0.306000000000000105,-24.182623849504775393
0.307000000000000106,-24.079783544199447221
0.308000000000000107,-23.964672265761059577
0.309000000000000108,-23.838162174959766304
0.310000000000000109,-23.701120887817324956
0.311000000000000110,-23.554407653520289756
0.312000000000000111,-23.398869805719286319
0.313000000000000111,-23.235339491807884826
0.314000000000000112,-23.064630682147559071
0.315000000000000113,-22.887536458840457954
0.316000000000000114,-22.704826581541830421
0.317000000000000115,-22.517245325936052325
0.318000000000000116,-22.325509588864825616
0.319000000000000117,-22.130307252678726115
0.320000000000000118,-21.932295800172678213
0.321000000000000119,-21.732101170447133853
0.322000000000000119,-21.530316845197997822
0.323000000000000120,-21.327503154264515928
0.324000000000000121,-21.124186788743905652
0.325000000000000122,-20.920860509600210264
0.326000000000000123,-20.717983039440603932
0.327000000000000124,-20.515979124992945515
0.328000000000000125,-20.315239757782727281
0.329000000000000126,-20.116122540562972887
0.330000000000000127,-19.918952187187919378
0.331000000000000127,-19.724021143831134140
0.332000000000000128,-19.531590319718684867
0.333000000000000129,-19.341889915873579753
0.334000000000000130,-19.155120340736665696
0.335000000000000131,-18.971453201937599431
0.336000000000000132,-18.791032363927332227
0.337000000000000133,-18.613975061646971909
0.338000000000000134,-18.440373060888823886
0.339000000000000135,-18.270293856501155005
0.340000000000000135,-18.103781900090950785
0.341000000000000136,-17.940859849387180702
0.342000000000000137,-17.781529831935323216
0.343000000000000138,-17.625774716299194012
0.344000000000000139,-17.473559384445390918
0.345000000000000140,-17.324831999477215305
0.346000000000000141,-17.179525263364201493
0.347000000000000142,-17.037557659781516151
0.348000000000000143,-16.898834677626297207
0.349000000000000143,-16.763250011215298230
0.350000000000000144,-16.630686733588952109
0.351000000000000145,-16.501018439749906008
0.352000000000000146,-16.374110357048472508
0.353000000000000147,-16.249820420293517031
0.354000000000000148,-16.128000309513911503
0.355000000000000149,-16.008496448623223074
0.356000000000000150,-15.891150963548616559
0.357000000000000151,-15.775802598674170341
0.358000000000000151,-15.662287590719117247
0.359000000000000152,-15.550440499423103802
0.360000000000000153,-15.440094994644320892
0.361000000000000154,-15.331084599692079706
0.362000000000000155,-15.223243390913918205
0.363000000000000156,-15.116406653739554500
0.364000000000000157,-15.010411495549424998
0.365000000000000158,-14.905097415886851664
0.366000000000000159,-14.800306834667779299
0.367000000000000159,-14.695885579164198020
0.368000000000000160,-14.591683330645707883
0.369000000000000161,-14.487554031658769205
0.370000000000000162,-14.383356255007115010
0.371000000000000163,-14.278953535568930988
0.372000000000000164,-14.174214666147562980
0.373000000000000165,-14.069013958604511316
0.374000000000000166,-13.963231471565169528
0.375000000000000167,-13.856753206021394931
0.376000000000000167,-13.749471270180336546
0.377000000000000168,-13.641284014926560175
0.378000000000000169,-13.532096141275536283
0.379000000000000170,-13.421818781201205084
0.380000000000000171,-13.310369553218563965
0.381000000000000172,-13.197672594096221843
0.382000000000000173,-13.083658568061684591
0.383000000000000174,-12.968264654847047268
0.384000000000000175,-12.851434517902344368
0.385000000000000175,-12.733118254081016829
0.386000000000000176,-12.613272326075357199
0.387000000000000177,-12.491859478850702914
0.388000000000000178,-12.368848641295842938
0.389000000000000179,-12.244214814273266967
0.390000000000000180,-12.117938946217901020
0.391000000000000181,-11.990007797395920264
0.392000000000000182,-11.860413793897667034
0.393000000000000183,-11.729154872399366383
0.394000000000000183,-11.596234316689102428
0.395000000000000184,-11.461660586912255866
0.396000000000000185,-11.325447142451109173
0.397000000000000186,-11.187612259313006291
0.398000000000000187,-11.048178842860711057
0.399000000000000188,-10.907174236678354617
0.400000000000000189,-10.764630028326484634
0.401000000000000190,-10.620581852699759295
0.402000000000000191,-10.475069193662408296
0.403000000000000191,-10.328135184597440954
0.404000000000000192,-10.179826408468599652
0.405000000000000193,-10.030192697956611170
0.406000000000000194,-9.879286936195695645
0.407000000000000195,-9.727164858601117459
0.408000000000000196,-9.573884856244159636
0.409000000000000197,-9.419507781198216634
0.410000000000000198,-9.264096754247519883
0.411000000000000199,-9.107716975318785657
0.412000000000000199,-8.950435536966462990
0.413000000000000200,-8.792321241213514327
0.414000000000000201,-8.633444420021678667
0.415000000000000202,-8.473876759638823586
0.416000000000000203,-8.313691129045754025
0.417000000000000204,-8.152961412699925248
0.418000000000000205,-7.991762347751020457
0.419000000000000206,-7.830169365880789378
0.420000000000000207,-7.668258439898385959
0.421000000000000207,-7.506105935203147617
0.422000000000000208,-7.343788466206836674
0.423000000000000209,-7.181382757790504279
0.424000000000000210,-7.018965511853425099
0.425000000000000211,-6.856613278996039007
0.426000000000000212,-6.694402335363871082
0.427000000000000213,-6.532408564665101558
0.428000000000000214,-6.370707345361757312
0.429000000000000214,-6.209373443021680927
0.430000000000000215,-6.048480907807473272
0.431000000000000216,-5.888102977067936727
0.432000000000000217,-5.728311982987319695
0.433000000000000218,-5.569179265239167620
0.434000000000000219,-5.410775088582846948
0.435000000000000220,-5.253168565333373508
0.436000000000000221,-5.096427582628049180
0.437000000000000222,-4.940618734407193458
0.438000000000000222,-4.785807258020525978
0.439000000000000223,-4.632056975365580698
0.440000000000000224,-4.479430238459906732
0.441000000000000225,-4.327987879344759037
0.442000000000000226,-4.177789164214702922
0.443000000000000227,-4.028891751663925547
0.444000000000000228,-3.881351654937933660
0.445000000000000229,-3.735223208076837498
0.446000000000000230,-3.590559035834700374
0.447000000000000230,-3.447410027257975518
0.448000000000000231,-3.305825312805008132
0.449000000000000232,-3.165852244887788380
0.450000000000000233,-3.027536381716820824
0.451000000000000234,-2.890921474329679608
0.452000000000000235,-2.756049456684156240
0.453000000000000236,-2.622960438697000907
0.454000000000000237,-2.491692702110339219
0.455000000000000238,-2.362282699068086522
0.456000000000000238,-2.234765053286372538
0.457000000000000239,-2.109172563702551351
0.458000000000000240,-1.985536210489504239
0.459000000000000241,-1.863885163322638761
0.460000000000000242,-1.744246791789570095
0.461000000000000243,-1.626646677833489152
0.462000000000000244,-1.511108630123824570
0.463000000000000245,-1.397654700249214565
0.464000000000000246,-1.286305200630497136
0.465000000000000246,-1.177078724053304937
0.466000000000000247,-1.069992164722142203
0.467000000000000248,-0.965060740740226963
0.468000000000000249,-0.862298017921888205
0.469000000000000250,-0.761715934846427190
0.470000000000000251,-0.663324829065160437
0.471000000000000252,-0.567133464375526586
0.472000000000000253,-0.473149059079013057
0.473000000000000254,-0.381377315141828821
0.474000000000000254,-0.291822448180020566
0.475000000000000255,-0.204487218193195319
0.476000000000000256,-0.119372960973445699
0.477000000000000257,-0.036479620118865297
0.478000000000000258,0.044194220416848971
0.479000000000000259,0.122651303304339265
0.480000000000000260,0.198895664411432249
0.481000000000000261,0.272932599029883594
0.482000000000000262,0.344768627814276474
0.483000000000000262,0.414411462489365057
0.484000000000000263,0.481869971379457751
0.485000000000000264,0.547154144811384135
0.486000000000000265,0.610275060440060191
0.487000000000000266,0.671244848543670947
0.488000000000000267,0.730076657333239565
0.489000000000000268,0.786784618318980278
0.490000000000000269,0.841383811774203516
0.491000000000000270,0.893890232334924484
0.492000000000000270,0.944320754771871607
0.493000000000000271,0.992693099969137571
0.494000000000000272,1.039025801142252181
0.495000000000000273,1.083338170326267003
0.496000000000000274,1.125650265162764008
0.497000000000000275,1.165982856013078273
0.498000000000000276,1.204357393423000300
0.499000000000000277,1.240795975962913911
0.500000000000000222,1.275321318465471698
0.501000000000000334,1.307956720681539453
0.502000000000000224,1.338726036373394601
0.503000000000000336,1.367653642863121854
0.504000000000000226,1.394764411052180186
0.505000000000000338,1.420083675927407141
0.506000000000000227,1.443637207566711433
0.507000000000000339,1.465451182657222962
0.508000000000000229,1.485552156536717794
0.509000000000000341,1.503967035768515537
0.510000000000000231,1.520723051258574099
0.511000000000000343,1.535847731922731496
0.512000000000000233,1.549368878910734271
0.513000000000000345,1.561314540392899408
0.514000000000000234,1.571712986914151067
0.515000000000000346,1.580592687319518186
0.516000000000000236,1.587982285254003312
0.517000000000000348,1.593910576239109256
0.518000000000000238,1.598406485327558801
0.519000000000000350,1.601499045336770122
0.520000000000000240,1.603217375661220911
0.521000000000000352,1.603590661662910533
0.522000000000000242,1.602648134638712918
0.523000000000000353,1.600419052362550332
0.524000000000000243,1.596932680200037868
0.525000000000000355,1.592218272792448541
0.526000000000000245,1.586305056306491323
0.527000000000000357,1.579222211245852936
0.528000000000000247,1.570998855819996987
0.529000000000000359,1.561664029865374115
0.530000000000000249,1.551246679313633914
0.531000000000000361,1.539775641201245993
0.532000000000000250,1.527279629214450596
0.533000000000000362,1.513787219763194303
0.534000000000000252,1.499326838577500265
0.535000000000000364,1.483926747819114933
0.536000000000000254,1.467615033701608729
0.537000000000000366,1.450419594611158880
0.538000000000000256,1.432368129720698713
0.539000000000000368,1.413488128089411155
0.540000000000000258,1.393806858239738711
0.541000000000000369,1.373351358203616757
0.542000000000000259,1.352148426029846640
0.543000000000000371,1.330224610744013436
0.544000000000000261,1.307606203752558649
0.545000000000000373,1.284319230682387403
0.546000000000000263,1.260389443647367269
0.547000000000000375,1.235842313932822290
0.548000000000000265,1.210703025089539198
0.549000000000000377,1.184996466428069439
0.550000000000000266,1.158747226904890182
0.551000000000000378,1.131979589391161056
0.552000000000000268,1.104717525315522364
0.553000000000000380,1.076984689671858009
0.554000000000000270,1.048804416383319449
0.555000000000000382,1.020199714013632741
0.556000000000000272,0.991193261817061133
0.557000000000000384,0.961807406118146746
0.558000000000000274,0.932064157012578276
0.559000000000000385,0.901985185380519638
0.560000000000000275,0.871591820203856948
0.561000000000000387,0.840905046178744287
0.562000000000000277,0.809945501615189856
0.563000000000000389,0.778733476615081743
0.564000000000000279,0.747288911520612609
0.565000000000000391,0.715631395624696465
0.566000000000000281,0.683780166135539491
0.567000000000000393,0.651754107387081838
0.568000000000000282,0.619571750287688849
0.569000000000000394,0.587251271999066238
0.570000000000000284,0.554810495838013451
0.571000000000000396,0.522266891393077581
0.572000000000000286,0.489637574849019763
0.573000000000000398,0.456939309511502523
0.574000000000000288,0.424188506524984799
0.575000000000000400,0.391401225776474238
0.576000000000000290,0.358593176978511174
0.577000000000000401,0.325779720924162686
0.578000000000000291,0.292975870907601799
0.579000000000000403,0.260196294303499553
0.580000000000000293,0.227455314298885936
0.581000000000000405,0.194766911770910239
0.582000000000000295,0.162144727304660508
0.583000000000000407,0.129602063344502000
0.584000000000000297,0.097151886473409249
0.585000000000000409,0.064806829814052502
0.586000000000000298,0.032579195546347230
0.587000000000000410,0.000480957535450943
0.588000000000000300,-0.031476235934802997
0.589000000000000412,-0.063281059328770178
0.590000000000000302,-0.094922506930978340
0.591000000000000414,-0.126389889828660035
0.592000000000000304,-0.157672832809443164
0.593000000000000416,-0.188761271179316459
0.594000000000000306,-0.219645447505338154
0.595000000000000417,-0.250315908287894351
0.596000000000000307,-0.280763500566681867
0.597000000000000419,-0.310979368465070682
0.598000000000000309,-0.340954949676859187
0.599000000000000421,-0.370681971899552709
0.600000000000000311,-0.400152449218237116
0.601000000000000423,-0.429358678443907571
0.602000000000000313,-0.458293235409886979
0.603000000000000425,-0.486948971230226513
0.604000000000000314,-0.515319008523373201
0.605000000000000426,-0.543396737604789681
0.606000000000000316,-0.571175812651642412
0.607000000000000428,-0.598650147842936020
0.608000000000000318,-0.625813913478144079
0.609000000000000430,-0.652661532077447371
0.610000000000000320,-0.679187674466307012
0.611000000000000432,-0.705387255847522376
0.612000000000000322,-0.731255431863139682
0.613000000000000433,-0.756787594649157014
0.614000000000000323,-0.781979368885394543
0.615000000000000435,-0.806826607843072585
0.616000000000000325,-0.831325389432355344
0.617000000000000437,-0.855472012252339375
0.618000000000000327,-0.879262991645434533
0.619000000000000439,-0.902695055758473641
0.620000000000000329,-0.925765141612425402
0.621000000000000441,-0.948470391182741013
0.622000000000000330,-0.970808147492181694
0.623000000000000442,-0.992775950717963651
0.624000000000000332,-1.014371534314809864
0.625000000000000444,-1.035592821155795651
0.626000000000000334,-1.056437919692279515
0.627000000000000446,-1.076905120134695748
0.628000000000000336,-1.096992890655441366
0.629000000000000448,-1.116699873615376593
0.630000000000000338,-1.136024881815112852
0.631000000000000449,-1.154966894772514685
0.632000000000000339,-1.173525055027404118
0.633000000000000451,-1.191698664474740266
0.634000000000000341,-1.209487180727228051
0.635000000000000453,-1.226890213508543770
0.636000000000000343,-1.243907521077833644
0.637000000000000455,-1.260539006686782093
0.638000000000000345,-1.276784715069675613
0.639000000000000457,-1.292644828967650206
0.640000000000000346,-1.308119665687549116
0.641000000000000458,-1.323209673696369881
0.642000000000000348,-1.337915429251695043
0.643000000000000460,-1.352237633068962053
0.644000000000000350,-1.366177107025929205
0.645000000000000462,-1.379734790905042585
0.646000000000000352,-1.392911739173998686
0.647000000000000464,-1.405709117805173936
0.648000000000000353,-1.418128201134069455
0.649000000000000465,-1.430170368757388122
0.650000000000000355,-1.441837102470866716
0.651000000000000467,-1.453129983247304802
0.652000000000000357,-1.464050688254985078
0.653000000000000469,-1.474600987916706574
0.654000000000000359,-1.484782743009696704
0.655000000000000471,-1.494597901806491214
0.656000000000000361,-1.504048497256949668
0.657000000000000473,-1.513136644211562132
0.658000000000000362,-1.521864536686048819
0.659000000000000474,-1.530234445167375501
0.660000000000000364,-1.538248713961170022
0.661000000000000476,-1.545909758580609417
0.662000000000000366,-1.553220063176669274
