# Ag111_CS-1143-AC
# h[nm],U(h)[kJ/mol]
0.149999999999999994,100.500940337443736894
0.150999999999999995,98.394128852093373894
0.151999999999999996,95.617887598350506551
0.152999999999999997,92.686412646233989676
0.153999999999999998,89.834685541580341805
0.154999999999999999,87.140857717216249512
0.156000000000000000,84.603802988650059547
0.157000000000000001,82.189773197886538014
0.158000000000000002,79.858447721844243006
0.159000000000000002,77.575775402931512303
0.160000000000000003,75.318780893638717089
0.161000000000000004,73.075839135669895086
0.162000000000000005,70.844703829812857521
0.163000000000000006,68.629710098806086194
0.164000000000000007,66.438973961599458562
0.165000000000000008,64.282012602790743472
0.166000000000000009,62.167954772190270774
0.167000000000000010,60.104357458004599835
0.168000000000000010,58.096561136704266914
0.169000000000000011,56.147477743487151258
0.170000000000000012,54.257695999729222081
0.171000000000000013,52.425795948434256388
0.172000000000000014,50.648780385400911541
0.173000000000000015,48.922550044045564732
0.174000000000000016,47.242368623035233099
0.175000000000000017,45.603281173576462493
0.176000000000000018,44.000464075793090046
0.177000000000000018,42.429496539038225933
0.178000000000000019,40.886552347796580875
0.179000000000000020,39.368516745501082710
0.180000000000000021,37.873037306594248719
0.181000000000000022,36.398519823577899501
0.182000000000000023,34.944081044193936236
0.183000000000000024,33.509469905022641001
0.184000000000000025,32.094968037758839330
0.185000000000000026,30.701279031558431853
0.186000000000000026,29.329414422055474887
0.187000000000000027,27.980582797876177636
0.188000000000000028,26.656086878581909616
0.189000000000000029,25.357231998065920209
0.190000000000000030,24.085248169924106776
0.191000000000000031,22.841226839387811509
0.192000000000000032,21.626072546592602919
0.193000000000000033,20.440469032914158731
0.194000000000000034,19.284858802483842766
0.195000000000000034,18.159434786507993920
0.196000000000000035,17.064142527818578543
0.197000000000000036,15.998691185542046611
0.198000000000000037,14.962571633735503696
0.199000000000000038,13.955079973495401191
0.200000000000000039,12.975344877463111715
0.201000000000000040,12.022357323077352831
0.202000000000000041,11.095001432876928860
0.203000000000000042,10.192085315415059910
0.204000000000000042,9.312370979810381755
0.205000000000000043,8.454602573495971995
0.206000000000000044,7.617532360933417124
0.207000000000000045,6.799944017058439094
0.208000000000000046,6.000672950423588503
0.209000000000000047,5.218623495884443741
0.210000000000000048,4.452782924588077229
0.211000000000000049,3.702232310006172700
0.212000000000000050,2.966154363369409630
0.213000000000000050,2.243838411059500437
0.214000000000000051,1.534682731510489839
0.215000000000000052,0.838194501350959298
0.216000000000000053,0.153987621354149867
0.217000000000000054,-0.518221296249857799
0.218000000000000055,-1.178618494935460559
0.219000000000000056,-1.827299915709540645
0.220000000000000057,-2.464279043810738923
0.221000000000000058,-3.089495504930654057
0.222000000000000058,-3.702824173405993236
0.223000000000000059,-4.304084575000267421
0.224000000000000060,-4.893050388595169942
0.225000000000000061,-5.469458873613850969
0.226000000000000062,-6.033020072688519697
0.227000000000000063,-6.583425661456852040
0.228000000000000064,-7.120357339015218834
0.229000000000000065,-7.643494673153790941
0.230000000000000066,-8.152522333803203125
0.231000000000000066,-8.647136665967066094
0.232000000000000067,-9.127051569681480458
0.233000000000000068,-9.592003669174882674
0.234000000000000069,-10.041756766376730425
0.235000000000000070,-10.476105585261086262
0.236000000000000071,-10.894878823254284583
0.237000000000000072,-11.297941534154997356
0.238000000000000073,-11.685196873791870331
0.239000000000000073,-12.056587245077157178
0.240000000000000074,-12.412094883311315385
0.241000000000000075,-12.751741925659707988
0.242000000000000076,-13.075590010773691318
0.243000000000000077,-13.383739455675160102
0.244000000000000078,-13.676328057374272262
0.245000000000000079,-13.953529566350947988
0.246000000000000080,-14.215551878100944450
0.247000000000000081,-14.462634987522386965
0.248000000000000081,-14.695048749084298478
0.249000000000000082,-14.913090483556549870
0.250000000000000111,-15.117082469664889999
0.251000000000000112,-15.307369356429585849
0.252000000000000113,-15.484315529214180529
0.253000000000000114,-15.648302459699916511
0.254000000000000115,-15.799726067163325283
0.255000000000000115,-15.938994115602707069
0.256000000000000116,-16.066523668473436715
0.257000000000000117,-16.182738620076321467
0.258000000000000118,-16.288067320023806417
0.259000000000000119,-16.382940304703609513
0.260000000000000120,-16.467788147283794586
0.261000000000000121,-16.543039435567518325
0.262000000000000122,-16.609118884919489290
0.263000000000000123,-16.666445591552260908
0.264000000000000123,-16.715431429683757614
0.265000000000000124,-16.756479594455736759
0.266000000000000125,-16.789983291037266611
0.267000000000000126,-16.816324569022008006
0.268000000000000127,-16.835873300060896440
0.269000000000000128,-16.848986295645538291
0.270000000000000129,-16.856006561067282234
0.271000000000000130,-16.857262680814145028
0.272000000000000131,-16.853068330026673038
0.273000000000000131,-16.843721906104569541
0.274000000000000132,-16.829506274133034793
0.275000000000000133,-16.810688619470706584
0.276000000000000134,-16.787520400603831661
0.277000000000000135,-16.760237395214613088
0.278000000000000136,-16.729059832328665891
0.279000000000000137,-16.694192603389268470
0.280000000000000138,-16.655825545147557420
0.281000000000000139,-16.614133787351260452
0.282000000000000139,-16.569278158353135666
0.283000000000000140,-16.521405641938411435
0.284000000000000141,-16.470649878881623351
0.285000000000000142,-16.417131706983134620
0.286000000000000143,-16.360959733597930210
0.287000000000000144,-16.302230934950479480
0.288000000000000145,-16.241031276825406593
0.289000000000000146,-16.177436351529081549
0.290000000000000147,-16.111512026331084257
0.291000000000000147,-16.043315098910834848
0.292000000000000148,-15.972893955653486131
0.293000000000000149,-15.900289228955557519
0.294000000000000150,-15.825534450014178134
0.295000000000000151,-15.748656693881889268
0.296000000000000152,-15.669677213869292132
0.297000000000000153,-15.588612062670581082
0.298000000000000154,-15.505472697869199905
0.299000000000000155,-15.420266569753085406
0.300000000000000155,-15.332997689629294769
0.301000000000000156,-15.243667177076440922
0.302000000000000157,-15.152273784809176860
0.303000000000000158,-15.058814400052202842
0.304000000000000159,-14.963284521531420523
0.305000000000000160,-14.865678711386710376
0.306000000000000161,-14.765991021495034730
0.307000000000000162,-14.664215393863424097
0.308000000000000163,-14.560346034909594337
0.309000000000000163,-14.454377763593907247
0.310000000000000164,-14.346306333499729391
0.311000000000000165,-14.236128729080894217
0.312000000000000166,-14.123843436405584484
0.313000000000000167,-14.009450688824784947
0.314000000000000168,-13.892952688082393919
0.315000000000000169,-13.774353801462718039
0.316000000000000170,-13.653660735640091417
0.317000000000000171,-13.530882687955344323
0.318000000000000171,-13.406031475895250793
0.319000000000000172,-13.279121645594448964
0.320000000000000173,-13.150170560215162396
0.321000000000000174,-13.019198469088522074
0.322000000000000175,-12.886228558523765031
0.323000000000000176,-12.751286985207345381
0.324000000000000177,-12.614402893124472271
0.325000000000000178,-12.475608414940751345
0.326000000000000179,-12.334938658782245824
0.327000000000000179,-12.192431681348120165
0.328000000000000180,-12.048128448282305669
0.329000000000000181,-11.902072782719713473
0.330000000000000182,-11.754311302907069603
0.331000000000000183,-11.604893349782276601
0.332000000000000184,-11.453870905375248768
0.333000000000000185,-11.301298502872054286
0.334000000000000186,-11.147233129159586085
0.335000000000000187,-10.991734120642886907
0.336000000000000187,-10.834863053100182384
0.337000000000000188,-10.676683626312506448
0.338000000000000189,-10.517261544176225385
0.339000000000000190,-10.356664390976815682
0.340000000000000191,-10.194961504472075831
0.341000000000000192,-10.032223846403057976
0.342000000000000193,-9.868523871019425187
0.343000000000000194,-9.703935392176271435
0.344000000000000195,-9.538533449528046049
0.345000000000000195,-9.372394174315573423
0.346000000000000196,-9.205594655211699617
0.347000000000000197,-9.038212804661714728
0.348000000000000198,-8.870327226125855447
0.349000000000000199,-8.702017082602299780
0.350000000000000200,-8.533361966781878749
0.351000000000000201,-8.364441773158073801
0.352000000000000202,-8.195336572390052865
0.353000000000000203,-8.026126488190849173
0.354000000000000203,-7.856891576988019210
0.355000000000000204,-7.687711710580623858
0.356000000000000205,-7.518666461993346317
0.357000000000000206,-7.349834994706657021
0.358000000000000207,-7.181295955420800681
0.359000000000000208,-7.013127370491565316
0.360000000000000209,-6.845406546156216798
0.361000000000000210,-6.678209972650103410
0.362000000000000210,-6.511613232296818765
0.363000000000000211,-6.345690911638600440
0.364000000000000212,-6.180516517658046993
0.365000000000000213,-6.016162398127524291
0.366000000000000214,-5.852699666109057119
0.367000000000000215,-5.690198128614399664
0.368000000000000216,-5.528726219423040433
0.369000000000000217,-5.368350936044537391
0.370000000000000218,-5.209137780801163409
0.371000000000000218,-5.051150705997044632
0.372000000000000219,-4.894452063131074837
0.373000000000000220,-4.739102556102500863
0.374000000000000221,-4.585161198350709455
0.375000000000000222,-4.432685273863509856
0.376000000000000223,-4.281730301982168641
0.377000000000000224,-4.132350005925689906
0.378000000000000225,-3.984596284951686052
0.379000000000000226,-3.838519190066699061
0.380000000000000226,-3.694166903194823881
0.381000000000000227,-3.551585719709847044
0.382000000000000228,-3.410820034233265741
0.383000000000000229,-3.271912329597859159
0.384000000000000230,-3.134903168874199952
0.385000000000000231,-2.999831190356097466
0.386000000000000232,-2.866733105399190684
0.387000000000000233,-2.735643699006137464
0.388000000000000234,-2.606595833051068123
0.389000000000000234,-2.479620452035718348
0.390000000000000235,-2.354746591269331280
0.391000000000000236,-2.232001387365005307
0.392000000000000237,-2.111410090945152529
0.393000000000000238,-1.992996081449866619
0.394000000000000239,-1.876780883942549494
0.395000000000000240,-1.762784187808465575
0.396000000000000241,-1.651023867243080590
0.397000000000000242,-1.541516003428499593
0.398000000000000242,-1.434274908297964224
0.399000000000000243,-1.329313149790120274
0.400000000000000244,-1.226641578496373564
0.401000000000000245,-1.126269355607214973
0.402000000000000246,-1.028203982064762156
0.403000000000000247,-0.932451328831374937
0.404000000000000248,-0.839015668186351982
0.405000000000000249,-0.747899705964925943
0.406000000000000250,-0.659104614656158105
0.407000000000000250,-0.572630067278801946
0.408000000000000251,-0.488474271956475969
0.409000000000000252,-0.406634007116198237
0.410000000000000253,-0.327104657236484186
0.411000000000000254,-0.249880249074048599
0.412000000000000255,-0.174953488300363669
0.413000000000000256,-0.102315796482041699
0.414000000000000257,-0.031957348341310143
0.415000000000000258,0.036132890764464430
0.416000000000000258,0.101967127202982399
0.417000000000000259,0.165558701323122837
0.418000000000000260,0.226922049660780306
0.419000000000000261,0.286072667145936765
0.420000000000000262,0.343027069359899461
0.421000000000000263,0.397802754889546417
0.422000000000000264,0.450418167822995152
0.423000000000000265,0.500892660428967185
0.424000000000000266,0.549246456059711230
0.425000000000000266,0.595500612315502220
0.426000000000000267,0.639676984506369450
0.427000000000000268,0.681798189444728697
0.428000000000000269,0.721887569600620949
0.429000000000000270,0.759969157649251104
0.430000000000000271,0.796067641438596429
0.431000000000000272,0.830208329403071765
0.432000000000000273,0.862417116447348087
0.433000000000000274,0.892720450322723957
0.434000000000000274,0.921145298516737432
0.435000000000000275,0.947719115675063839
0.436000000000000276,0.972469811573146381
0.437000000000000277,0.995425719653496466
0.438000000000000278,1.016615566143090899
0.439000000000000279,1.036068439763870419
0.440000000000000280,1.053813762047967062
0.441000000000000281,1.069881258268030155
0.442000000000000282,1.084300928991551283
0.443000000000000282,1.097103022267191808
0.444000000000000283,1.108318006449556137
0.445000000000000284,1.117976543668065759
0.446000000000000285,1.126109463944373612
0.447000000000000286,1.132747739961638134
0.448000000000000287,1.137922462488220265
0.449000000000000288,1.141664816457233389
0.450000000000000289,1.144006057702576573
0.451000000000000290,1.144977490351255955
0.452000000000000290,1.144610444870930888
0.453000000000000291,1.142936256770906933
0.454000000000000292,1.139986245954067501
0.455000000000000293,1.135791696716548227
0.456000000000000294,1.130383838391312734
0.457000000000000295,1.123793826631234172
0.458000000000000296,1.116052725326581285
0.459000000000000297,1.107191489151506447
0.460000000000000298,1.097240946733327061
0.461000000000000298,1.086231784438276948
0.462000000000000299,1.074194530766602762
0.463000000000000300,1.061159541349808944
0.464000000000000301,1.047156984542232383
0.465000000000000302,1.032216827598940512
0.466000000000000303,1.016368823431502255
0.467000000000000304,0.999642497933063923
0.468000000000000305,0.982067137863643858
0.469000000000000306,0.963671779286580543
0.470000000000000306,0.944485196546699157
0.471000000000000307,0.924535891780553287
0.472000000000000308,0.903852084949037460
0.473000000000000309,0.882461704382405565
0.474000000000000310,0.860392377827686738
0.475000000000000311,0.837671423988223696
0.476000000000000312,0.814325844545236932
0.477000000000000313,0.790382316650898309
0.478000000000000314,0.765867185882644463
0.479000000000000314,0.740806459648182480
0.480000000000000315,0.715225801030789476
0.481000000000000316,0.689150523064327003
0.482000000000000317,0.662605583427541056
0.483000000000000318,0.635615579547105014
0.484000000000000319,0.608204744098968630
0.485000000000000320,0.580396940897541458
0.486000000000000321,0.552215661162348770
0.487000000000000322,0.523684020151807261
0.488000000000000322,0.494824754153816493
0.489000000000000323,0.465660217823028355
0.490000000000000324,0.436212381854586162
0.491000000000000325,0.406502830984357133
0.492000000000000326,0.376552762305684907
0.493000000000000327,0.346382983892860430
0.494000000000000328,0.316013913721517603
0.495000000000000329,0.285465578876415049
0.496000000000000330,0.254757615037040197
0.497000000000000330,0.223909266231719167
0.498000000000000331,0.192939384850924933
0.499000000000000332,0.161866431910791364
0.500000000000000333,0.130708477557714142
0.501000000000000334,0.099483201805317403
0.502000000000000335,0.068207895495064133
0.503000000000000336,0.036899461471975994
0.504000000000000337,0.005574415967055135
0.505000000000000338,-0.025751109821806374
0.506000000000000338,-0.057061367958527856
0.507000000000000339,-0.088340991815096942
0.508000000000000340,-0.119574993943147884
0.509000000000000341,-0.150748763778457751
0.510000000000000342,-0.181848065185883451
0.511000000000000343,-0.212859033851978408
0.512000000000000344,-0.243768174532497328
0.513000000000000345,-0.274562358161709708
0.514000000000000346,-0.305228818830440785
0.515000000000000346,-0.335755150639421129
0.516000000000000347,-0.366129304434514302
0.517000000000000348,-0.396339584430181524
0.518000000000000349,-0.426374644727367358
0.519000000000000350,-0.456223485731821199
0.520000000000000351,-0.485875450478856330
0.521000000000000352,-0.515320220870137957
0.522000000000000353,-0.544547813828193505
0.523000000000000353,-0.573548577374058288
0.524000000000000354,-0.602313186633291808
0.525000000000000355,-0.630832639775597115
0.526000000000000356,-0.659098253892928754
0.527000000000000357,-0.687101660821011651
0.528000000000000358,-0.714834802908992151
0.529000000000000359,-0.742289928741670990
0.530000000000000360,-0.769459588818889539
0.531000000000000361,-0.796336631196253419
0.532000000000000361,-0.822914197091408339
0.533000000000000362,-0.849185716459839091
0.534000000000000363,-0.875144903544130548
0.535000000000000364,-0.900785752400422135
0.536000000000000365,-0.926102532405693402
0.537000000000000366,-0.951089783749407891
0.538000000000000367,-0.975742312912885046
0.539000000000000368,-1.000055188139685081
0.540000000000000369,-1.024023734900153748
0.541000000000000369,-1.047643531353148916
0.542000000000000370,-1.070910403807906253
0.543000000000000371,-1.093820422188818142
0.544000000000000372,-1.116369895505863186
0.545000000000000373,-1.138555367333254020
0.546000000000000374,-1.160373611298833652
0.547000000000000375,-1.181821626586576190
0.548000000000000376,-1.202896633454520581
0.549000000000000377,-1.223596068770297585
0.550000000000000377,-1.243917581566388986
0.551000000000000378,-1.263859028617102975
0.552000000000000379,-1.283418470039184633
0.553000000000000380,-1.302594164917918018
0.554000000000000381,-1.321384566960423612
0.555000000000000382,-1.339788320177862424
0.556000000000000383,-1.357804254598074856
0.557000000000000384,-1.375431382010186221
0.558000000000000385,-1.392668891742599779
0.559000000000000385,-1.409516146475720433
0.560000000000000386,-1.425972678090655865
0.561000000000000387,-1.442038183555155451
0.562000000000000388,-1.457712520847860738
0.563000000000000389,-1.472995704921986171
0.564000000000000390,-1.487887903709367299
0.565000000000000391,-1.502389434165886772
0.566000000000000392,-1.516500758359100143
0.567000000000000393,-1.530222479598889240
0.568000000000000393,-1.543555338611909633
0.569000000000000394,-1.556500209760540931
0.570000000000000395,-1.569058097306956778
0.571000000000000396,-1.581230131722934917
0.572000000000000397,-1.593017566045947797
0.573000000000000398,-1.604421772282024206
0.574000000000000399,-1.615444237855812259
0.575000000000000400,-1.626086562108281397
0.576000000000000401,-1.636350452842374015
0.577000000000000401,-1.646237722916958690
0.578000000000000402,-1.655750286889337008
0.579000000000000403,-1.664890157706530704
0.580000000000000404,-1.673659443445553396
0.581000000000000405,-1.682060344102818350
0.582000000000000406,-1.690095148432801064
0.583000000000000407,-1.697766230836033952
0.584000000000000408,-1.705076048296515934
0.585000000000000409,-1.712027137368488994
0.586000000000000409,-1.718622111212669168
0.587000000000000410,-1.724863656681804525
0.588000000000000411,-1.730754531455523049
0.589000000000000412,-1.736297561224412700
0.590000000000000413,-1.741495636923131585
0.591000000000000414,-1.746351712012482960
0.592000000000000415,-1.750868799810239906
0.593000000000000416,-1.755049970870527387
0.594000000000000417,-1.758898350411580269
0.595000000000000417,-1.762417115791597766
0.596000000000000418,-1.765609494032477356
0.597000000000000419,-1.768478759391138411
0.598000000000000420,-1.771028230978143103
0.599000000000000421,-1.773261270423306168
0.600000000000000422,-1.775181279587987770
0.601000000000000423,-1.776791698323697544
0.602000000000000424,-1.778096002276676968
0.603000000000000425,-1.779097700738119459
0.604000000000000425,-1.779800334539569207
0.605000000000000426,-1.780207473993189016
0.606000000000000427,-1.780322716876462597
0.607000000000000428,-1.780149686460883007
0.608000000000000429,-1.779692029584278856
0.609000000000000430,-1.778953414766248242
0.610000000000000431,-1.777937530366363150
0.611000000000000432,-1.776648082784594518
0.612000000000000433,-1.775088794703563178
0.613000000000000433,-1.773263403372145275
