# Ag111_CS-8898-AC
# h[nm],U(h)[kJ/mol]
0.200000000000000011,38.886200027171419435
0.201000000000000012,32.885399109720779620
0.202000000000000013,30.079016262322454622
0.203000000000000014,28.703432323715947661
0.204000000000000015,27.773800174398154184
0.205000000000000016,26.796440101352281715
0.206000000000000016,25.573784225170701490
0.207000000000000017,24.075101363431457457
0.208000000000000018,22.353360935067648541
0.209000000000000019,20.493942108294834981
0.210000000000000020,18.584885229124289197
0.211000000000000021,16.701342773986677770
0.212000000000000022,14.899067550693235518
0.213000000000000023,13.213369118981129091
0.214000000000000024,11.661122644620929734
0.215000000000000024,10.244239867577352499
0.216000000000000025,8.953594779105770840
0.217000000000000026,7.772801408202107964
0.218000000000000027,6.681516310945016635
0.219000000000000028,5.658120234541899940
0.220000000000000029,4.681748989621783430
0.221000000000000030,3.733712746766618462
0.222000000000000031,2.798380375783867446
0.223000000000000032,1.863621653070328010
0.224000000000000032,0.920902755074997637
0.225000000000000033,-0.034875215121955350
0.226000000000000034,-1.005715149954139020
0.227000000000000035,-1.990973072631873508
0.228000000000000036,-2.987862950346363178
0.229000000000000037,-3.991974751911987251
0.230000000000000038,-4.997774236845493157
0.231000000000000039,-5.999062417788374013
0.232000000000000040,-6.989380541704198535
0.233000000000000040,-7.962352828660010928
0.234000000000000041,-8.911964207596957621
0.235000000000000042,-9.832774054317495072
0.236000000000000043,-10.720069642450159364
0.237000000000000044,-11.569964838446692212
0.238000000000000045,-12.379450672369211262
0.239000000000000046,-13.146404947818894016
0.240000000000000047,-13.869568149333719731
0.241000000000000048,-14.548492677577508303
0.242000000000000048,-15.183471986880572757
0.243000000000000049,-15.775455594217731914
0.244000000000000050,-16.325955236048450558
0.245000000000000051,-16.836946718503519094
0.246000000000000052,-17.310771274350024385
0.247000000000000053,-17.750039534303560629
0.248000000000000054,-18.157540559702788130
0.249000000000000055,-18.536157780803733885
0.250000000000000056,-18.888793147199557154
0.251000000000000056,-19.218300327218162948
0.252000000000000057,-19.527427391576260618
0.253000000000000058,-19.818769080756666767
0.254000000000000059,-20.094728481606505710
0.255000000000000060,-20.357487721541406955
0.256000000000000061,-20.608987122880961351
0.257000000000000062,-20.850912139344877971
0.258000000000000063,-21.084687315695710197
0.259000000000000064,-21.311476464179015977
0.260000000000000064,-21.532188232343987266
0.261000000000000065,-21.747486240980947514
0.262000000000000066,-21.957802993689547577
0.263000000000000067,-22.163356796872726306
0.264000000000000068,-22.364170977101590410
0.265000000000000069,-22.560094738651471857
0.266000000000000070,-22.750825064861416536
0.267000000000000071,-22.935929130532976217
0.268000000000000071,-23.114866756964069339
0.269000000000000072,-23.287012504870592267
0.270000000000000073,-23.451677062157209264
0.271000000000000074,-23.608127642315448469
0.272000000000000075,-23.755607164450267987
0.273000000000000076,-23.893352037074375716
0.274000000000000077,-24.020608414549066367
0.275000000000000078,-24.136646837225775641
0.276000000000000079,-24.240775203913255353
0.277000000000000079,-24.332350058317455677
0.278000000000000080,-24.410786199711246525
0.279000000000000081,-24.475564652485864769
0.280000000000000082,-24.526239049656595625
0.281000000000000083,-24.562440502114480267
0.282000000000000084,-24.583881038727128043
0.283000000000000085,-24.590355712599222926
0.284000000000000086,-24.581743476212910338
0.285000000000000087,-24.558006933084950418
0.286000000000000087,-24.519191076295534515
0.287000000000000088,-24.465421125047022599
0.288000000000000089,-24.396899569567636945
0.289000000000000090,-24.313902532437435156
0.290000000000000091,-24.216775551013572709
0.291000000000000092,-24.105928881285137777
0.292000000000000093,-23.981832418387583061
0.293000000000000094,-23.845010323330406266
0.294000000000000095,-23.696035439395451760
0.295000000000000095,-23.535523575286340758
0.296000000000000096,-23.364127725574185490
0.297000000000000097,-23.182532292396530238
0.298000000000000098,-22.991447365815396608
0.299000000000000099,-22.791603113804775660
0.300000000000000100,-22.583744326579306971
0.301000000000000101,-22.368625153948350714
0.302000000000000102,-22.147004068624177364
0.303000000000000103,-21.919639082960863163
0.304000000000000103,-21.687283241476777107
0.305000000000000104,-21.450680406733432903
0.306000000000000105,-21.210561351717732492
0.307000000000000106,-20.967640167806063545
0.308000000000000107,-20.722610993678433289
0.309000000000000108,-20.476145067192664584
0.310000000000000109,-20.228888099215229346
0.311000000000000110,-19.981457965725677894
0.312000000000000111,-19.734442712152056032
0.313000000000000111,-19.488398861841382370
0.314000000000000112,-19.243850018804785407
0.315000000000000113,-19.001285753384685506
0.316000000000000114,-18.761160758253890180
0.317000000000000115,-18.523894261155060548
0.318000000000000116,-18.289869680005388375
0.319000000000000117,-18.059434505408781035
0.320000000000000118,-17.832900395216448430
0.321000000000000119,-17.610543465541542929
0.322000000000000119,-17.392604762546191921
0.323000000000000120,-17.179290899364747958
0.324000000000000121,-16.970774842689394291
0.325000000000000122,-16.767196833809883572
0.326000000000000123,-16.568665429253762511
0.327000000000000124,-16.375258646604144985
0.328000000000000125,-16.187025201568303601
0.329000000000000126,-16.003985822919169379
0.330000000000000127,-15.826134632524432533
0.331000000000000127,-15.653440578305279018
0.332000000000000128,-15.485848908618738307
0.333000000000000129,-15.323282677228434068
0.334000000000000130,-15.165644268709758791
0.335000000000000131,-15.012816934822115655
0.336000000000000132,-14.864666333066301362
0.337000000000000133,-14.721042059325094797
0.338000000000000134,-14.581779167155394461
0.339000000000000135,-14.446699666956877905
0.340000000000000135,-14.315613998881815405
0.341000000000000136,-14.188322473971265225
0.342000000000000137,-14.064616678601439048
0.343000000000000138,-13.944280837899308167
0.344000000000000139,-13.827093134336607250
0.345000000000000140,-13.712826978235714392
0.346000000000000141,-13.601252227417802487
0.347000000000000142,-13.492136353693799933
0.348000000000000143,-13.385245554340553298
0.349000000000000143,-13.280345807119076085
0.350000000000000144,-13.177203867778533919
0.351000000000000145,-13.075588209349053415
0.352000000000000146,-12.975269902859144722
0.353000000000000147,-12.876023439419791217
0.354000000000000148,-12.777627493898419786
0.355000000000000149,-12.679865630661677045
0.356000000000000150,-12.582526952098531225
0.357000000000000151,-12.485406690844241595
0.358000000000000151,-12.388306746813174897
0.359000000000000152,-12.291036170314521669
0.360000000000000153,-12.193411592671557386
0.361000000000000154,-12.095257605892321351
0.362000000000000155,-11.996407093049260340
0.363000000000000156,-11.896701511118152439
0.364000000000000157,-11.795991128103478829
0.365000000000000158,-11.694135216340020733
0.366000000000000159,-11.591002203908669088
0.367000000000000159,-11.486469786140364846
0.368000000000000160,-11.380424999206372405
0.369000000000000161,-11.272764257805807375
0.370000000000000162,-11.163393358965072011
0.371000000000000163,-11.052227453957748082
0.372000000000000164,-10.939190990339415777
0.373000000000000165,-10.824217626070540277
0.374000000000000166,-10.707250117671996748
0.375000000000000167,-10.588240184323828075
0.376000000000000167,-10.467148349778181426
0.377000000000000168,-10.343943763912990974
0.378000000000000169,-10.218604005704978732
0.379000000000000170,-10.091114869348507099
0.380000000000000171,-9.961470135192032060
0.381000000000000172,-9.829671327106929368
0.382000000000000173,-9.695727457843764441
0.383000000000000174,-9.559654763870739203
0.384000000000000175,-9.421476431126443174
0.385000000000000175,-9.281222313056717965
0.386000000000000176,-9.138928642241570088
0.387000000000000177,-8.994637736854832255
0.388000000000000178,-8.848397703135720604
0.389000000000000179,-8.700262134988154372
0.390000000000000180,-8.550289811761395242
0.391000000000000181,-8.398544395203476398
0.392000000000000182,-8.245094126518463185
0.393000000000000183,-8.090011524398281750
0.394000000000000183,-7.933373084842125778
0.395000000000000184,-7.775258983518763323
0.396000000000000185,-7.615752781371798896
0.397000000000000186,-7.454941134114081436
0.398000000000000187,-7.292913506204781626
0.399000000000000188,-7.129761889852352041
0.400000000000000189,-6.965580529537826138
0.401000000000000190,-6.800465652505474523
0.402000000000000191,-6.634515205623442213
0.403000000000000191,-6.467828598972912069
0.404000000000000192,-6.300506456483499385
0.405000000000000193,-6.132650373892786888
0.406000000000000194,-5.964362684270253290
0.407000000000000195,-5.795746231310260121
0.408000000000000196,-5.626904150564342899
0.409000000000000197,-5.457939658751344680
0.410000000000000198,-5.288955851253300366
0.411000000000000199,-5.120055507876371870
0.412000000000000199,-4.951340906929120322
0.413000000000000200,-4.782913647645463229
0.414000000000000201,-4.614874480955614366
0.415000000000000202,-4.447323148586454167
0.416000000000000203,-4.280358230452469215
0.417000000000000204,-4.114077000278792973
0.418000000000000205,-3.948575289380960918
0.419000000000000206,-3.783947358509345715
0.420000000000000207,-3.620285777651317094
0.421000000000000207,-3.457681313671021606
0.422000000000000208,-3.296222825653663424
0.423000000000000209,-3.135997167810554043
0.424000000000000210,-2.977089099790716453
0.425000000000000211,-2.819581204236021321
0.426000000000000212,-2.663553811408762240
0.427000000000000213,-2.509084930713590289
0.428000000000000214,-2.356250188929686296
0.429000000000000214,-2.205122774963665488
0.430000000000000215,-2.055773390929404698
0.431000000000000216,-1.908270209357558089
0.432000000000000217,-1.762678836334094612
0.433000000000000218,-1.619062280365662687
0.434000000000000219,-1.477480926767478886
0.435000000000000220,-1.337992517368828960
0.436000000000000221,-1.200652135330705361
0.437000000000000222,-1.065512194870290141
0.438000000000000222,-0.932622435687703089
0.439000000000000223,-0.802029921891384445
0.440000000000000224,-0.673779045220069484
0.441000000000000225,-0.547911532361104014
0.442000000000000226,-0.424466456167340911
0.443000000000000227,-0.303480250577023825
0.444000000000000228,-0.184986729044271159
0.445000000000000229,-0.069017106290718999
0.446000000000000230,0.044399976807647554
0.447000000000000230,0.155238425381008738
0.448000000000000231,0.263474659952161627
0.449000000000000232,0.369087583223651761
0.450000000000000233,0.472058544436245620
0.451000000000000234,0.572371301465091520
0.452000000000000235,0.670011980815699792
0.453000000000000236,0.764969035677391163
0.454000000000000237,0.857233202187300591
0.455000000000000238,0.946797454053659671
0.456000000000000238,1.033656955682189515
0.457000000000000239,1.117809013945192387
0.458000000000000240,1.199253028727777615
0.459000000000000241,1.277990442381582437
0.460000000000000242,1.354024688211137084
0.461000000000000243,1.427361138113852901
0.462000000000000244,1.498007049489657350
0.463000000000000245,1.565971511531974114
0.464000000000000246,1.631265391007086452
0.465000000000000246,1.693901277624389135
0.466000000000000247,1.753893429095790379
0.467000000000000248,1.811257715978031424
0.468000000000000249,1.866011566387335563
0.469000000000000250,1.918173910671779892
0.470000000000000251,1.967765126122402730
0.471000000000000252,2.014806981800211449
0.472000000000000253,2.059322583552093189
0.473000000000000254,2.101336319284840215
0.474000000000000254,2.140873804562729354
0.475000000000000255,2.177961828590219362
0.476000000000000256,2.212628300637995871
0.477000000000000257,2.244902196966739094
0.478000000000000258,2.274813508299852849
0.479000000000000259,2.302393187892950444
0.480000000000000260,2.327673100244601834
0.481000000000000261,2.350685970489919896
0.482000000000000262,2.371465334515243661
0.483000000000000262,2.390045489829632608
0.484000000000000263,2.406461447225618500
0.485000000000000264,2.420748883259380424
0.486000000000000265,2.432944093577460443
0.487000000000000266,2.443083947114891963
0.488000000000000267,2.451205841187125145
0.489000000000000268,2.457347657495560167
0.490000000000000269,2.461547719064648199
0.491000000000000270,2.463844748125931350
0.492000000000000270,2.464277824962665342
0.493000000000000271,2.462886347726442438
0.494000000000000272,2.459709993235553060
0.495000000000000273,2.454788678762747089
0.496000000000000274,2.448162524818612074
0.497000000000000275,2.439871818934981285
0.498000000000000276,2.429956980451151161
0.499000000000000277,2.418458526304470446
0.500000000000000222,2.405417037825070992
0.501000000000000334,2.390873128533582026
0.502000000000000224,2.374867412939016820
0.503000000000000336,2.357440476333143575
0.504000000000000226,2.338632845576321895
0.505000000000000338,2.318484960868778533
0.506000000000000227,2.297037148500345349
0.507000000000000339,2.274329594570692059
0.508000000000000229,2.250402319671249263
0.509000000000000341,2.225295154519069563
0.510000000000000231,2.199047716532403829
0.511000000000000343,2.171699387336657239
0.512000000000000233,2.143289291189165446
0.513000000000000345,2.113856274310184524
0.514000000000000234,2.083438885107363969
0.515000000000000346,2.052075355280048363
0.516000000000000236,2.019803581789695546
0.517000000000000348,1.986661109681813198
0.518000000000000238,1.952685115744985822
0.519000000000000350,1.917912392991575121
0.520000000000000240,1.882379335945031373
0.521000000000000352,1.846121926717915418
0.522000000000000242,1.809175721864952902
0.523000000000000353,1.771575839994782076
0.524000000000000243,1.733356950124412821
0.525000000000000355,1.694553260759747548
0.526000000000000245,1.655198509685847696
0.527000000000000357,1.615325954450133938
0.528000000000000247,1.574968363522080361
0.529000000000000359,1.534158008112510574
0.530000000000000249,1.492926654635929662
0.531000000000000361,1.451305557799063894
0.532000000000000250,1.409325454299081404
0.533000000000000362,1.367016557114670849
0.534000000000000252,1.324408550373728843
0.535000000000000364,1.281530584780747883
0.536000000000000254,1.238411273588078121
0.537000000000000366,1.195078689094256408
0.538000000000000256,1.151560359653779120
0.539000000000000368,1.107883267181932085
0.540000000000000258,1.064073845139227092
0.541000000000000369,1.020157976979399361
0.542000000000000259,0.976160995045951552
0.543000000000000371,0.932107679901522657
0.544000000000000261,0.888022260075299719
0.545000000000000373,0.843928412213449386
0.546000000000000263,0.799849261618035379
0.547000000000000375,0.755807383159698420
0.548000000000000265,0.711824802550354852
0.549000000000000377,0.667922997961359344
0.550000000000000266,0.624122901973959365
0.551000000000000378,0.580444903848031046
0.552000000000000268,0.536908852096237288
0.553000000000000380,0.493534057350324740
0.554000000000000270,0.450339295507025394
0.555000000000000382,0.407342811140825323
0.556000000000000272,0.364562321171633341
0.557000000000000384,0.322015018775114570
0.558000000000000274,0.279717577524149275
0.559000000000000385,0.237686155749820716
0.560000000000000275,0.195936401110864716
0.561000000000000387,0.154483455360477334
0.562000000000000277,0.113341959300007206
0.563000000000000389,0.072526057908875757
0.564000000000000279,0.032049405640806286
0.565000000000000391,-0.008074828123778518
0.566000000000000281,-0.047833953478572423
0.567000000000000393,-0.087215754255090136
0.568000000000000282,-0.126208482158112811
0.569000000000000394,-0.164800850782044817
0.570000000000000284,-0.202982029516477702
0.571000000000000396,-0.240741637349750792
0.572000000000000286,-0.278069736578254345
0.573000000000000398,-0.314956826429709236
0.574000000000000288,-0.351393836607805043
0.575000000000000400,-0.387372120765908878
0.576000000000000290,-0.422883449916723997
0.577000000000000401,-0.457920005785192596
0.578000000000000291,-0.492474374111102342
0.579000000000000403,-0.526539537908100153
0.580000000000000293,-0.560108870685273041
0.581000000000000405,-0.593176129637580929
0.582000000000000295,-0.625735448810689987
0.583000000000000407,-0.657781332246265782
0.584000000000000297,-0.689308647112791384
0.585000000000000409,-0.720312616827523788
0.586000000000000298,-0.750788814174322305
0.587000000000000410,-0.780733154422528997
0.588000000000000300,-0.810141888451276548
0.589000000000000412,-0.839011595884015415
0.590000000000000302,-0.867339178237287789
0.591000000000000414,-0.895121852088132441
0.592000000000000304,-0.922357142263880214
0.593000000000000416,-0.949042875058290436
0.594000000000000306,-0.975177171477512261
0.595000000000000417,-1.000758440519497139
0.596000000000000307,-1.025785372489966152
0.597000000000000419,-1.050256932358279993
0.598000000000000309,-1.074172353156099602
0.599000000000000421,-1.097531129421695173
0.600000000000000311,-1.120333010692654119
0.601000000000000423,-1.142577995049575135
0.602000000000000313,-1.164266322713056079
0.603000000000000425,-1.185398469696511414
0.604000000000000314,-1.205975141516712812
0.605000000000000426,-1.225997266964383048
0.606000000000000316,-1.245465991936539618
0.607000000000000428,-1.264382673332549611
0.608000000000000318,-1.282748873015527646
0.609000000000000430,-1.300566351840710677
0.610000000000000320,-1.317837063752185234
0.611000000000000432,-1.334563149949508531
0.612000000000000322,-1.350746933125310578
0.613000000000000433,-1.366390911775204220
0.614000000000000323,-1.381497754580998105
0.615000000000000435,-1.396070294868235306
0.616000000000000325,-1.410111525138912025
0.617000000000000437,-1.423624591680289875
0.618000000000000327,-1.436612789250389044
0.619000000000000439,-1.449079555840946831
0.620000000000000329,-1.461028467518336038
0.621000000000000441,-1.472463233342948152
0.622000000000000330,-1.483387690367505840
0.623000000000000442,-1.493805798714638033
0.624000000000000332,-1.503721636733957867
0.625000000000000444,-1.513139396238993628
0.626000000000000334,-1.522063377823986485
0.627000000000000446,-1.530497986260782595
0.628000000000000336,-1.538447725975791602
0.629000000000000448,-1.545917196607044186
0.630000000000000338,-1.552911088641236725
0.631000000000000449,-1.559434179130737785
0.632000000000000339,-1.565491327490315721
0.633000000000000451,-1.571087471373410427
0.634000000000000341,-1.576227622627701885
0.635000000000000453,-1.580916863329715039
0.636000000000000343,-1.585160341898032232
0.637000000000000455,-1.588963269284890290
0.638000000000000345,-1.592330915245576017
0.639000000000000457,-1.595268604685354585
0.640000000000000346,-1.597781714083308602
0.641000000000000458,-1.599875667992698647
0.642000000000000348,-1.601555935617196669
0.643000000000000460,-1.602828027462531946
0.644000000000000350,-1.603697492062879260
0.645000000000000462,-1.604169912781410634
0.646000000000000352,-1.604250904684341617
0.647000000000000464,-1.603946111487863480
0.648000000000000353,-1.603261202577191069
0.649000000000000465,-1.602201870097093916
0.650000000000000355,-1.600773826113163434
0.651000000000000467,-1.598982799843045921
0.652000000000000357,-1.596834534956958596
0.653000000000000469,-1.594334786946592475
0.654000000000000359,-1.591489320561782161
0.655000000000000471,-1.588303907313990404
0.656000000000000361,-1.584784323045878018
0.657000000000000473,-1.580936345566132495
0.658000000000000362,-1.576765752348697758
0.659000000000000474,-1.572278318295589727
0.660000000000000364,-1.567479813562437041
0.661000000000000476,-1.562376001445900942
0.662000000000000366,-1.556972636332110138
