# Ag111_CS-11244-AC
# h[nm],U(h)[kJ/mol]
0.149999999999999994,92.388239875873409801
0.150999999999999995,87.141459682894193861
0.151999999999999996,83.589152810239554015
0.152999999999999997,80.408595800734389059
0.153999999999999998,77.156070204115437150
0.154999999999999999,73.777918390056257181
0.156000000000000000,70.356874497590681017
0.157000000000000001,66.992872239674611023
0.158000000000000002,63.756889542383213154
0.159000000000000002,60.681476094204526817
0.160000000000000003,57.767303449866858500
0.161000000000000004,54.994665695989752408
0.162000000000000005,52.334537689912963287
0.163000000000000006,49.757019678159167597
0.164000000000000007,47.236710599384345244
0.165000000000000008,44.755368702615768939
0.166000000000000009,42.302523803002394231
0.167000000000000010,39.874739458211863052
0.168000000000000010,37.474128765756979931
0.169000000000000011,35.106586539670999514
0.170000000000000012,32.780057474391171013
0.171000000000000013,30.503035660841653964
0.172000000000000014,28.283393208839321176
0.173000000000000015,26.127565156003537794
0.174000000000000016,24.040071115551011616
0.175000000000000017,22.023326647194757300
0.176000000000000018,20.077684374403819589
0.177000000000000018,18.201642125979418552
0.178000000000000019,16.392159283734478947
0.179000000000000020,14.645030285726756247
0.180000000000000021,12.955273807822413445
0.181000000000000022,11.317506089536850666
0.182000000000000023,9.726276249467677104
0.183000000000000024,8.176349703426954107
0.184000000000000025,6.662932689979134793
0.185000000000000026,5.181836356549310629
0.186000000000000026,3.729582927375003187
0.187000000000000027,2.303459303028424721
0.188000000000000028,0.901525210579838920
0.189000000000000029,-0.477416072614468057
0.190000000000000030,-1.833876171048142822
0.191000000000000031,-3.167761264361227624
0.192000000000000032,-4.478465594302173614
0.193000000000000033,-5.764972329301431664
0.194000000000000034,-7.025956263012306025
0.195000000000000034,-8.259883836084259912
0.196000000000000035,-9.465106963698165288
0.197000000000000036,-10.639948082412857389
0.198000000000000037,-11.782774670661931182
0.199000000000000038,-12.892062231627093638
0.200000000000000039,-13.966445348266205428
0.201000000000000040,-15.004756928024690410
0.202000000000000041,-16.006056154263646363
0.203000000000000042,-16.969645961162239445
0.204000000000000042,-17.895081059365839593
0.205000000000000043,-18.782167672593388374
0.206000000000000044,-19.630956212728793986
0.207000000000000045,-20.441728134246382353
0.208000000000000046,-21.214978179128777924
0.209000000000000047,-21.951393160741922372
0.210000000000000048,-22.651828348350885989
0.211000000000000049,-23.317282410840896034
0.212000000000000050,-23.948871765334256878
0.213000000000000050,-24.547805059216358359
0.214000000000000051,-25.115358397016823488
0.215000000000000052,-25.652851810085074646
0.216000000000000053,-26.161627359660702297
0.217000000000000054,-26.643029164637301420
0.218000000000000055,-27.098385555290878557
0.219000000000000056,-27.528993474200984082
0.220000000000000057,-27.936105175818521928
0.221000000000000058,-28.320917216556090068
0.222000000000000058,-28.684561677574027527
0.223000000000000059,-29.028099522065975435
0.224000000000000060,-29.352515957146454895
0.225000000000000061,-29.658717646640315735
0.226000000000000062,-29.947531604352285228
0.227000000000000063,-30.219705586916269624
0.228000000000000064,-30.475909800256925308
0.229000000000000065,-30.716739733236558152
0.230000000000000066,-30.942719935441562740
0.231000000000000066,-31.154308562578421515
0.232000000000000067,-31.351902521940758106
0.233000000000000068,-31.535843061292705869
0.234000000000000069,-31.706421656759999905
0.235000000000000070,-31.863886068470399948
0.236000000000000071,-32.008446446338759017
0.237000000000000072,-32.140281382211455252
0.238000000000000073,-32.259543818282892857
0.239000000000000073,-32.366366735041758318
0.240000000000000074,-32.460868554810751618
0.241000000000000075,-32.543158209062951869
0.242000000000000076,-32.613339829024866390
0.243000000000000077,-32.671517029535543486
0.244000000000000078,-32.717796765674208359
0.245000000000000079,-32.752292750273326760
0.246000000000000080,-32.775128428097481503
0.247000000000000081,-32.786439509204271303
0.248000000000000081,-32.786376069838418346
0.249000000000000082,-32.775104234183693563
0.250000000000000111,-32.752807454455222569
0.251000000000000112,-32.719687410207839662
0.252000000000000113,-32.675964550424666299
0.253000000000000114,-32.621878303987053016
0.254000000000000115,-32.557686985578882854
0.255000000000000115,-32.483667424999111972
0.256000000000000116,-32.400114348308406420
0.257000000000000117,-32.307339539274707363
0.258000000000000118,-32.205670809262215926
0.259000000000000119,-32.095450803081590152
0.260000000000000120,-31.977035667433661104
0.261000000000000121,-31.850793607479197078
0.262000000000000122,-31.717103355796261610
0.263000000000000123,-31.576352576579939324
0.264000000000000123,-31.428936226433517476
0.265000000000000124,-31.275254891523740497
0.266000000000000125,-31.115713119255541841
0.267000000000000126,-30.950717760984822746
0.268000000000000127,-30.780676340655283241
0.269000000000000128,-30.605995462632904491
0.270000000000000129,-30.427079270435672953
0.271000000000000130,-30.244327966530029528
0.272000000000000131,-30.058136401898174483
0.273000000000000131,-29.868892742682266572
0.274000000000000132,-29.676977219887191950
0.275000000000000133,-29.482760966880096731
0.276000000000000134,-29.286604948263153858
0.277000000000000135,-29.088858982620440230
0.278000000000000136,-28.889860860648980179
0.279000000000000137,-28.689935559279767574
0.280000000000000138,-28.489394551574029890
0.281000000000000139,-28.288535211443161188
0.282000000000000139,-28.087640311583065511
0.283000000000000140,-27.886977612434606044
0.284000000000000141,-27.686799539475792642
0.285000000000000142,-27.487342945716466858
0.286000000000000143,-27.288828955897560746
0.287000000000000144,-27.091462888590662317
0.288000000000000145,-26.895434252146067422
0.289000000000000146,-26.700916810243825239
0.290000000000000147,-26.508068712658548804
0.291000000000000147,-26.317032686750955861
0.292000000000000148,-26.127936285143555040
0.293000000000000149,-25.940892185019158944
0.294000000000000150,-25.755998534497415164
0.295000000000000151,-25.573339341590816787
0.296000000000000152,-25.392984901314513024
0.297000000000000153,-25.214992256621894029
0.298000000000000154,-25.039405688954534668
0.299000000000000155,-24.866257234330284120
0.300000000000000155,-24.695567221043127404
0.301000000000000156,-24.527344825209731027
0.302000000000000157,-24.361588640570012387
0.303000000000000158,-24.198287259127788218
0.304000000000000159,-24.037419859403339473
0.305000000000000160,-23.878956799257881727
0.306000000000000161,-23.722860210441790940
0.307000000000000162,-23.569084592209971873
0.308000000000000163,-23.417577401538984816
0.309000000000000163,-23.268279637670246984
0.310000000000000164,-23.121126418890320053
0.311000000000000165,-22.976047549641897660
0.312000000000000166,-22.832968076238181254
0.313000000000000167,-22.691808829625937705
0.314000000000000168,-22.552486953810426229
0.315000000000000169,-22.414916418716551050
0.316000000000000170,-22.279008516415274244
0.317000000000000171,-22.144672339792059290
0.318000000000000171,-22.011815242874696708
0.319000000000000172,-21.880343282171590857
0.320000000000000173,-21.750161638497047534
0.321000000000000174,-21.621175018879238650
0.322000000000000175,-21.493288038257418293
0.323000000000000176,-21.366405580779037621
0.324000000000000177,-21.240433140604046969
0.325000000000000178,-21.115277142213095374
0.326000000000000179,-20.990845240299343288
0.327000000000000179,-20.867046599399024842
0.328000000000000180,-20.743792153485347995
0.329000000000000181,-20.620994845813836349
0.330000000000000182,-20.498569849362958450
0.331000000000000183,-20.376434768266214803
0.332000000000000184,-20.254509820676315002
0.333000000000000185,-20.132718003542724006
0.334000000000000186,-20.010985239818701587
0.335000000000000187,-19.889240508644178362
0.336000000000000187,-19.767415959076704013
0.337000000000000188,-19.645447007963781516
0.338000000000000189,-19.523272422567806927
0.339000000000000190,-19.400834388568217292
0.340000000000000191,-19.278078564075311618
0.341000000000000192,-19.154954120298320674
0.342000000000000193,-19.031413769512532497
0.343000000000000194,-18.907413780973072903
0.344000000000000195,-18.782913985420329084
0.345000000000000195,-18.657877768819126629
0.346000000000000196,-18.532272055967276003
0.347000000000000197,-18.406067284601746792
0.348000000000000198,-18.279237370621167713
0.349000000000000199,-18.151759665031793389
0.350000000000000200,-18.023614903212521909
0.351000000000000201,-17.894787147079895817
0.352000000000000202,-17.765263720719921992
0.353000000000000203,-17.635035140037604862
0.354000000000000203,-17.504095036958606357
0.355000000000000204,-17.372440078700442712
0.356000000000000205,-17.240069882612729657
0.357000000000000206,-17.106986927068277282
0.358000000000000207,-16.973196458867711556
0.359000000000000208,-16.838706397602418718
0.360000000000000209,-16.703527237401228689
0.361000000000000210,-16.567671946467445565
0.362000000000000210,-16.431155864794213528
0.363000000000000211,-16.293996600426932986
0.364000000000000212,-16.156213924623376244
0.365000000000000213,-16.017829666242949571
0.366000000000000214,-15.878867605678923525
0.367000000000000215,-15.739353368629114271
0.368000000000000216,-15.599314319983076160
0.369000000000000217,-15.458779458086407743
0.370000000000000218,-15.317779309626127215
0.371000000000000218,-15.176345825364398578
0.372000000000000219,-15.034512276931996766
0.373000000000000220,-14.892313154877331982
0.374000000000000221,-14.749784068151836181
0.375000000000000222,-14.606961645197747757
0.376000000000000223,-14.463883436790519355
0.377000000000000224,-14.320587820774289156
0.378000000000000225,-14.177113908815959675
0.379000000000000226,-14.033501455290732451
0.380000000000000226,-13.889790768400194665
0.381000000000000227,-13.746022623612162761
0.382000000000000228,-13.602238179500968585
0.383000000000000229,-13.458478896056096374
0.384000000000000230,-13.314786455517005237
0.385000000000000231,-13.171202685783104158
0.386000000000000232,-13.027769486438023350
0.387000000000000233,-12.884528757419582590
0.388000000000000234,-12.741522330358275639
0.389000000000000234,-12.598791902600048331
0.390000000000000235,-12.456378973921449216
0.391000000000000236,-12.314324785939112061
0.392000000000000237,-12.172670264208829138
0.393000000000000238,-12.031455963004031418
0.394000000000000239,-11.890722012757638737
0.395000000000000240,-11.750508070146571171
0.396000000000000241,-11.610853270793310088
0.397000000000000242,-11.471796184554536424
0.398000000000000242,-11.333374773363193100
0.399000000000000243,-11.195626351586319913
0.400000000000000244,-11.058587548857778060
0.401000000000000245,-10.922294275342281367
0.402000000000000246,-10.786781689383936111
0.403000000000000247,-10.652084167490293964
0.404000000000000248,-10.518235276600854888
0.405000000000000249,-10.385267748586768377
0.406000000000000250,-10.253213456926976832
0.407000000000000250,-10.122103395504534973
0.408000000000000251,-9.991967659465476714
0.409000000000000252,-9.862835428081911715
0.410000000000000253,-9.734734949559662454
0.411000000000000254,-9.607693527730653216
0.412000000000000255,-9.481737510569280047
0.413000000000000256,-9.356892280472093759
0.414000000000000257,-9.233182246239504565
0.415000000000000258,-9.110630836698678792
0.416000000000000258,-8.989260495906407300
0.417000000000000259,-8.869092679871334539
0.418000000000000260,-8.750147854735050856
0.419000000000000261,-8.632445496351973446
0.420000000000000262,-8.516004091208738913
0.421000000000000263,-8.400841138624127069
0.422000000000000264,-8.286973154171448641
0.423000000000000265,-8.174415674266025889
0.424000000000000266,-8.063183261861420092
0.425000000000000266,-7.953289513198706473
0.426000000000000267,-7.844747065554271259
0.427000000000000268,-7.737567605932598624
0.428000000000000269,-7.631761880651564134
0.429000000000000270,-7.527339705768835820
0.430000000000000271,-7.424309978299201696
0.431000000000000272,-7.322680688173745622
0.432000000000000273,-7.222458930893024487
0.433000000000000274,-7.123650920827704347
0.434000000000000274,-7.026262005121147070
0.435000000000000275,-6.930296678149943546
0.436000000000000276,-6.835758596499516671
0.437000000000000277,-6.742650594413120757
0.438000000000000278,-6.650974699674051749
0.439000000000000279,-6.560732149881995490
0.440000000000000280,-6.471923409085732715
0.441000000000000281,-6.384548184735744591
0.442000000000000282,-6.298605444921562935
0.443000000000000282,-6.214093435859799897
0.444000000000000283,-6.131009699600260099
0.445000000000000284,-6.049351091918625301
0.446000000000000285,-5.969113800365387412
0.447000000000000286,-5.890293362442193370
0.448000000000000287,-5.812884683877470593
0.449000000000000288,-5.736882056974932809
0.450000000000000289,-5.662279179009226837
0.451000000000000290,-5.589069170644460627
0.452000000000000290,-5.517244594352240128
0.453000000000000291,-5.446797472807106466
0.454000000000000292,-5.377719307238180591
0.455000000000000293,-5.310001095716964770
0.456000000000000294,-5.243633351362264605
0.457000000000000295,-5.178606120444093186
0.458000000000000296,-5.114909000369578962
0.459000000000000297,-5.052531157534629003
0.460000000000000298,-4.991461345026197094
0.461000000000000298,-4.931687920160785943
0.462000000000000299,-4.873198861845805752
0.463000000000000300,-4.815981787751075771
0.464000000000000301,-4.760023971278791066
0.465000000000000302,-4.705312358320932198
0.466000000000000303,-4.651833583793916205
0.467000000000000304,-4.599573987940942743
0.468000000000000305,-4.548519632393470680
0.469000000000000306,-4.498656315983594389
0.470000000000000306,-4.449969590300073996
0.471000000000000307,-4.402444774981218778
0.472000000000000308,-4.356066972738624976
0.473000000000000309,-4.310821084106150280
0.474000000000000310,-4.266691821909328830
0.475000000000000311,-4.223663725450778728
0.476000000000000312,-4.181721174407919683
0.477000000000000313,-4.140848402439490705
0.478000000000000314,-4.101029510498241493
0.479000000000000314,-4.062248479847379912
0.480000000000000315,-4.024489184778857975
0.481000000000000316,-3.987735405032096114
0.482000000000000317,-3.951970837912042178
0.483000000000000318,-3.917179110105968753
0.484000000000000319,-3.883343789198616669
0.485000000000000320,-3.850448394885924053
0.486000000000000321,-3.818476409887581635
0.487000000000000322,-3.787411290559246968
0.488000000000000322,-3.757236477205405656
0.489000000000000323,-3.727935404094222527
0.490000000000000324,-3.699491509175969917
0.491000000000000325,-3.671888243506885807
0.492000000000000326,-3.645109080380511735
0.493000000000000327,-3.619137524168896114
0.494000000000000328,-3.593957118876141443
0.495000000000000329,-3.569551456407034529
0.496000000000000330,-3.545904184553707150
0.497000000000000330,-3.522999014703348308
0.498000000000000331,-3.500819729270316483
0.499000000000000332,-3.479350188855960369
0.500000000000000333,-3.458574339139747877
0.501000000000000334,-3.438476217505358701
0.502000000000000335,-3.419039959405501428
0.503000000000000336,-3.400249804469414272
0.504000000000000337,-3.382090102356939632
0.505000000000000338,-3.364545318363353577
0.506000000000000338,-3.347600038779054987
0.507000000000000339,-3.331238976008337183
0.508000000000000340,-3.315446973451585677
0.509000000000000341,-3.300209010155177314
0.510000000000000342,-3.285510205233564740
0.511000000000000343,-3.271335822067872989
0.512000000000000344,-3.257671272285588060
0.513000000000000345,-3.244502119525745520
0.514000000000000346,-3.231814082994188375
0.515000000000000346,-3.219593040813394147
0.516000000000000347,-3.207825033171410212
0.517000000000000348,-3.196496265274494153
0.518000000000000349,-3.185593110107894255
0.519000000000000350,-3.175102111009402428
0.520000000000000351,-3.165009984060181303
0.521000000000000352,-3.155303620297310818
0.522000000000000353,-3.145970087752642197
0.523000000000000353,-3.136996633322328698
0.524000000000000354,-3.128370684471559748
0.525000000000000355,-3.120079850778828323
0.526000000000000356,-3.112111925324158701
0.527000000000000357,-3.104454885925616914
0.528000000000000358,-3.097096896228404894
0.529000000000000359,-3.090026306650766053
0.530000000000000360,-3.083231655190979748
0.531000000000000361,-3.076701668099547593
0.532000000000000361,-3.070425260420719837
0.533000000000000362,-3.064391536407417682
0.534000000000000363,-3.058589789813592752
0.535000000000000364,-3.053009504067923263
0.536000000000000365,-3.047640352332820601
0.537000000000000366,-3.042472197452558813
0.538000000000000367,-3.037495091794307545
0.539000000000000368,-3.032699276985821868
0.540000000000000369,-3.028075183553459837
0.541000000000000369,-3.023613430464094698
0.542000000000000370,-3.019304824574548185
0.543000000000000371,-3.015140359991931973
0.544000000000000372,-3.011111217348412694
0.545000000000000373,-3.007208762993689888
0.546000000000000374,-3.003424548108514891
0.547000000000000375,-2.999750307742466759
0.548000000000000376,-2.996177959779180000
0.549000000000000377,-2.992699603832083000
0.550000000000000377,-2.989307520073702484
0.551000000000000378,-2.985994168001530280
0.552000000000000379,-2.982752185143315860
0.553000000000000380,-2.979574385704675255
0.554000000000000381,-2.976453759161752366
0.555000000000000382,-2.973383468801702456
0.556000000000000383,-2.970356850213575317
0.557000000000000384,-2.967367409732270644
0.558000000000000385,-2.964408822838040525
0.559000000000000385,-2.961474932514023717
0.560000000000000386,-2.958559747564194709
0.561000000000000387,-2.955657440894103427
0.562000000000000388,-2.952762347756677119
0.563000000000000389,-2.949868963965272872
0.564000000000000390,-2.946971944076186123
0.565000000000000391,-2.944066099542716142
0.566000000000000392,-2.941146396842797550
0.567000000000000393,-2.938207955582236686
0.568000000000000393,-2.935246046575436196
0.569000000000000394,-2.932256089905528551
0.570000000000000395,-2.929233652965723689
0.571000000000000396,-2.926174448483608526
0.572000000000000397,-2.923074332530183561
0.573000000000000398,-2.919929302515211766
0.574000000000000399,-2.916735495170569514
0.575000000000000400,-2.913489184523101017
0.576000000000000401,-2.910186779858523032
0.577000000000000401,-2.906824823677802705
0.578000000000000402,-2.903399989647478474
0.579000000000000403,-2.899909080545218565
0.580000000000000404,-2.896349026201986199
0.581000000000000405,-2.892716881442075394
0.582000000000000406,-2.889009824022203965
0.583000000000000407,-2.885225152570930263
0.584000000000000408,-2.881360284529435045
0.585000000000000409,-2.877412754094847092
0.586000000000000409,-2.873380210167118420
0.587000000000000410,-2.869260414300506490
0.588000000000000411,-2.865051238660600852
0.589000000000000412,-2.860750663987860598
0.590000000000000413,-2.856356777568548999
0.591000000000000414,-2.851867771213939307
0.592000000000000415,-2.847281939248605287
0.593000000000000416,-2.842597676508600291
0.594000000000000417,-2.837813476350281139
0.595000000000000417,-2.832927928670493145
0.596000000000000418,-2.827939717938812159
0.597000000000000419,-2.822847621242501770
0.598000000000000420,-2.817650506344818950
0.599000000000000421,-2.812347329757251657
0.600000000000000422,-2.806937134826270608
0.601000000000000423,-2.801419049835122799
0.602000000000000424,-2.795792286121180581
0.603000000000000425,-2.790056136209341453
0.604000000000000425,-2.784209971961906671
0.605000000000000426,-2.778253242745398754
0.606000000000000427,-2.772185473614707352
0.607000000000000428,-2.766006263514943164
0.608000000000000429,-2.759715283501367189
