# Ag111_CS-61461-AC
# h[nm],U(h)[kJ/mol]
0.200000000000000011,23.531544870768463795
0.201000000000000012,19.154600562849907419
0.202000000000000013,16.442371946263243387
0.203000000000000014,14.524403954966311758
0.204000000000000015,12.904270439515022062
0.205000000000000016,11.324481256751235847
0.206000000000000016,9.674010371752512327
0.207000000000000017,7.926338887743523465
0.208000000000000018,6.099076407942760625
0.209000000000000019,4.228614526574976828
0.210000000000000020,2.355059986378678083
0.211000000000000021,0.514033397258519265
0.212000000000000022,-1.267088479554389968
0.213000000000000023,-2.970178922186791137
0.214000000000000024,-4.585775540065773370
0.215000000000000024,-6.111677931955472154
0.216000000000000025,-7.551229893861180820
0.217000000000000026,-8.911594844361058421
0.218000000000000027,-10.202200449261066950
0.219000000000000028,-11.433439204286099056
0.220000000000000029,-12.615653717306853920
0.221000000000000030,-13.758399502681289306
0.222000000000000031,-14.869957528568775729
0.223000000000000032,-15.957058618768456881
0.224000000000000032,-17.024778538981117038
0.225000000000000033,-18.076563646537465502
0.226000000000000034,-19.114350562306587022
0.227000000000000035,-20.138748201250528780
0.228000000000000036,-21.149255848821798764
0.229000000000000037,-22.144496263022162452
0.230000000000000038,-23.122447694571111043
0.231000000000000039,-24.080663074573912752
0.232000000000000040,-25.016468344380033528
0.233000000000000040,-25.927134985915312626
0.234000000000000041,-26.810024284064809308
0.235000000000000042,-27.662702771254100043
0.236000000000000043,-28.483029735931694404
0.237000000000000044,-29.269218692860164310
0.238000000000000045,-30.019875384292021181
0.239000000000000046,-30.734015272888218107
0.240000000000000047,-31.411063658795860931
0.241000000000000048,-32.050841556444559899
0.242000000000000048,-32.653540345651727250
0.243000000000000049,-33.219688003601277160
0.244000000000000050,-33.750109459516991706
0.245000000000000051,-34.245883316714454736
0.246000000000000052,-34.708296876198019731
0.247000000000000053,-35.138801086559318776
0.248000000000000054,-35.538966747271999225
0.249000000000000055,-35.910443014039593379
0.250000000000000056,-36.254919000527806361
0.251000000000000056,-36.574089043428656964
0.252000000000000057,-36.869621998580754507
0.253000000000000058,-37.143134764796286618
0.254000000000000059,-37.396170088207796312
0.255000000000000060,-37.630178581782885772
0.256000000000000061,-37.846504800179644690
0.257000000000000062,-38.046377137081861974
0.258000000000000063,-38.230901258195181924
0.259000000000000064,-38.401056745816639193
0.260000000000000064,-38.557696607978080294
0.261000000000000065,-38.701549294392897593
0.262000000000000066,-38.833222860734338155
0.263000000000000067,-38.953210930247841759
0.264000000000000068,-39.061900115639772935
0.265000000000000069,-39.159578583071450453
0.266000000000000070,-39.246445462587175257
0.267000000000000071,-39.322620834270011869
0.268000000000000071,-39.388156045867013688
0.269000000000000072,-39.443044144735381451
0.270000000000000073,-39.487230234055324729
0.271000000000000074,-39.520621589786017580
0.272000000000000075,-39.543097400378428574
0.273000000000000076,-39.554518015470705450
0.274000000000000077,-39.554733612439648027
0.275000000000000078,-39.543592210598731640
0.276000000000000079,-39.520946981919436780
0.277000000000000079,-39.486662824360649893
0.278000000000000080,-39.440622179217804444
0.279000000000000081,-39.382730087383137629
0.280000000000000082,-39.312918491100987239
0.281000000000000083,-39.231149797790941136
0.282000000000000084,-39.137419730895437908
0.283000000000000085,-39.031759499598265961
0.284000000000000086,-38.914237324771079329
0.285000000000000087,-38.784959362760091039
0.286000000000000087,-38.644070071743499284
0.287000000000000088,-38.491752067494516609
0.288000000000000089,-38.328225516588631194
0.289000000000000090,-38.153747115513482413
0.290000000000000091,-37.968608703876299160
0.291000000000000092,-37.773135559062907873
0.292000000000000093,-37.567684418371378285
0.293000000000000094,-37.352641272912123327
0.294000000000000095,-37.128418975510243172
0.295000000000000095,-36.895454702537023195
0.296000000000000096,-36.654207307099753166
0.297000000000000097,-36.405154598387355236
0.298000000000000098,-36.148790579256477429
0.299000000000000099,-35.885622671389199922
0.300000000000000100,-35.616168954600411212
0.301000000000000101,-35.340955444149393827
0.302000000000000102,-35.060513427246633000
0.303000000000000103,-34.775376877362965899
0.304000000000000103,-34.486079962465026938
0.305000000000000104,-34.193154660931021738
0.306000000000000105,-33.897128496657281005
0.307000000000000106,-33.598522402755023109
0.308000000000000107,-33.297848721265907557
0.309000000000000108,-32.995609344496003246
0.310000000000000109,-32.692294001882430621
0.311000000000000110,-32.388378694765130206
0.312000000000000111,-32.084324280034330457
0.313000000000000111,-31.780575202361813325
0.314000000000000112,-31.477558373593627294
0.315000000000000113,-31.175682196880423191
0.316000000000000114,-30.875335732243467390
0.317000000000000115,-30.576887999511434657
0.318000000000000116,-30.280687413910989392
0.319000000000000117,-29.987061349045102787
0.320000000000000118,-29.696315821539446489
0.321000000000000119,-29.408735291273501389
0.322000000000000119,-29.124582570831194062
0.323000000000000120,-28.844098837599688068
0.324000000000000121,-28.567503741806945072
0.325000000000000122,-28.294995603713807952
0.326000000000000123,-28.026751693156892742
0.327000000000000124,-27.762928584669133159
0.328000000000000125,-27.503662581480575966
0.329000000000000126,-27.249070201815907666
0.330000000000000127,-26.999248721053572098
0.331000000000000127,-26.754276763489052371
0.332000000000000128,-26.514214937647217596
0.333000000000000129,-26.279106509311986883
0.334000000000000130,-26.048978106681325073
0.335000000000000131,-25.823840452310086846
0.336000000000000132,-25.603689116766474854
0.337000000000000133,-25.388505289199819970
0.338000000000000134,-25.178256560293611699
0.339000000000000135,-24.972897713356559279
0.340000000000000135,-24.772371519583423094
0.341000000000000136,-24.576609533795270579
0.342000000000000137,-24.385532887243169142
0.343000000000000138,-24.199053074329228252
0.344000000000000139,-24.017072730362876598
0.345000000000000140,-23.839486397727732481
0.346000000000000141,-23.666181278083165296
0.347000000000000142,-23.497037968465750879
0.348000000000000143,-23.331931179387261466
0.349000000000000143,-23.170730433247484825
0.350000000000000144,-23.013300741592058074
0.351000000000000145,-22.859503259946926335
0.352000000000000146,-22.709195919151856202
0.353000000000000147,-22.562234032295965136
0.354000000000000148,-22.418470876527806013
0.355000000000000149,-22.277758249171888849
0.356000000000000150,-22.139946997732323553
0.357000000000000151,-22.004887523502695501
0.358000000000000151,-21.872430258630100042
0.359000000000000152,-21.742426116599482100
0.360000000000000153,-21.614726916214191732
0.361000000000000154,-21.489185779248270336
0.362000000000000155,-21.365657502037318949
0.363000000000000156,-21.243998901357194597
0.364000000000000157,-21.124069135014472920
0.365000000000000158,-21.005729997639033257
0.366000000000000159,-20.888846192228378129
0.367000000000000159,-20.773285578045438626
0.368000000000000160,-20.658919395517251871
0.369000000000000161,-20.545622468820667450
0.370000000000000162,-20.433273386875026034
0.371000000000000163,-20.321754663489137727
0.372000000000000164,-20.210952877432333707
0.373000000000000165,-20.100758793217380571
0.374000000000000166,-19.991067463395914672
0.375000000000000167,-19.881778313176077688
0.376000000000000167,-19.772795208177463167
0.377000000000000168,-19.664026506139741457
0.378000000000000169,-19.555385093399898722
0.379000000000000170,-19.446788406948584793
0.380000000000000171,-19.338158442868355280
0.381000000000000172,-19.229421751947533892
0.382000000000000173,-19.120509423250833692
0.383000000000000174,-19.011357056414745159
0.384000000000000175,-18.901904723419573173
0.385000000000000175,-18.792096920573406749
0.386000000000000176,-18.681882511424497295
0.387000000000000177,-18.571214661299315196
0.388000000000000178,-18.460050764142831525
0.389000000000000179,-18.348352362316440178
0.390000000000000180,-18.236085059986685053
0.391000000000000181,-18.123218430715784422
0.392000000000000182,-18.009725919841876873
0.393000000000000183,-17.895584742213632268
0.394000000000000183,-17.780775775820757190
0.395000000000000184,-17.665283451838451612
0.396000000000000185,-17.549095641580279903
0.397000000000000186,-17.432203540831075372
0.398000000000000187,-17.314601552007868435
0.399000000000000188,-17.196287164574425077
0.400000000000000189,-17.077260834112234278
0.401000000000000190,-16.957525860428575015
0.402000000000000191,-16.837088265060700110
0.403000000000000191,-16.715956668513690886
0.404000000000000192,-16.594142167548834976
0.405000000000000193,-16.471658212819043854
0.406000000000000194,-16.348520487127988332
0.407000000000000195,-16.224746784570815095
0.408000000000000196,-16.100356890795147535
0.409000000000000197,-15.975372464603665890
0.410000000000000198,-15.849816921101881562
0.411000000000000199,-15.723715316578132928
0.412000000000000199,-15.597094235286581565
0.413000000000000200,-15.469981678288794669
0.414000000000000201,-15.342406954494411053
0.415000000000000202,-15.214400574027223456
0.416000000000000203,-15.085994144029788444
0.417000000000000204,-14.957220267006107406
0.418000000000000205,-14.828112441790201714
0.419000000000000206,-14.698704967216382755
0.420000000000000207,-14.569032848555803383
0.421000000000000207,-14.439131706773661534
0.422000000000000208,-14.309037690651047470
0.423000000000000209,-14.178787391806404017
0.424000000000000210,-14.048417762642387174
0.425000000000000211,-13.917966037235752097
0.426000000000000212,-13.787469655179981132
0.427000000000000213,-13.656966188383069749
0.428000000000000214,-13.526493270816070336
0.429000000000000214,-13.396088531201524319
0.430000000000000215,-13.265789528625006710
0.431000000000000216,-13.135633691047678084
0.432000000000000217,-13.005658256692347763
0.433000000000000218,-12.875900218271095099
0.434000000000000219,-12.746396270018239605
0.435000000000000220,-12.617182757488256684
0.436000000000000221,-12.488295630074984999
0.437000000000000222,-12.359770396204986298
0.438000000000000222,-12.231642081155106538
0.439000000000000223,-12.103945187441727427
0.440000000000000224,-11.976713657726710593
0.441000000000000225,-11.849980840183105713
0.442000000000000226,-11.723779456262015231
0.443000000000000227,-11.598141570800148514
0.444000000000000228,-11.473098564406662092
0.445000000000000229,-11.348681108066532630
0.446000000000000230,-11.224919139896986309
0.447000000000000230,-11.101841843992769299
0.448000000000000231,-10.979477631295553763
0.449000000000000232,-10.857854122422434529
0.450000000000000233,-10.736998132388428928
0.451000000000000234,-10.616935657157650752
0.452000000000000235,-10.497691861958221793
0.453000000000000236,-10.379291071296023574
0.454000000000000237,-10.261756760602967375
0.455000000000000238,-10.145111549455712918
0.456000000000000238,-10.029377196301698660
0.457000000000000239,-9.914574594629545601
0.458000000000000240,-9.800723770522363765
0.459000000000000241,-9.687843881532494095
0.460000000000000242,-9.575953216817961078
0.461000000000000243,-9.465069198481318224
0.462000000000000244,-9.355208384052952297
0.463000000000000245,-9.246386470061739971
0.464000000000000246,-9.138618296637442739
0.465000000000000246,-9.031917853090066117
0.466000000000000247,-8.926298284412842676
0.467000000000000248,-8.821771898656622923
0.468000000000000249,-8.718350175124927048
0.469000000000000250,-8.616043773339931988
0.470000000000000251,-8.514862542731261641
0.471000000000000252,-8.414815533000467696
0.472000000000000253,-8.315911005115854238
0.473000000000000254,-8.218156442893134184
0.474000000000000254,-8.121558565119189055
0.475000000000000255,-8.026123338177262312
0.476000000000000256,-7.931855989133400620
0.477000000000000257,-7.838761019245316319
0.478000000000000258,-7.746842217855963497
0.479000000000000259,-7.656102676635756943
0.480000000000000260,-7.566544804138439773
0.481000000000000261,-7.478170340636880908
0.482000000000000262,-7.390980373206628151
0.483000000000000262,-7.304975351025957409
0.484000000000000263,-7.220155100862662323
0.485000000000000264,-7.136518842718892586
0.486000000000000265,-7.054065205606685929
0.487000000000000266,-6.972792243427923253
0.488000000000000267,-6.892697450933536807
0.489000000000000268,-6.813777779738225959
0.490000000000000269,-6.736029654367579944
0.491000000000000270,-6.659448988316121643
0.492000000000000270,-6.584031200095337155
0.493000000000000271,-6.509771229252264035
0.494000000000000272,-6.436663552339814132
0.495000000000000273,-6.364702198821251322
0.496000000000000274,-6.293880766892181455
0.497000000000000275,-6.224192439204142779
0.498000000000000276,-6.155629998475056652
0.499000000000000277,-6.088185842972525741
0.500000000000000222,-6.021852001856798253
0.501000000000000334,-5.956620150371129796
0.502000000000000224,-5.892481624868127987
0.503000000000000336,-5.829427437661086842
0.504000000000000226,-5.767448291690726592
0.505000000000000338,-5.706534594997606291
0.506000000000000227,-5.646676474992182726
0.507000000000000339,-5.587863792514076167
0.508000000000000229,-5.530086155673805237
0.509000000000000341,-5.473332933469959194
0.510000000000000231,-5.417593269176207649
0.511000000000000343,-5.362856093492273324
0.512000000000000233,-5.309110137454411849
0.513000000000000345,-5.256343945100685922
0.514000000000000234,-5.204545885887573498
0.515000000000000346,-5.153704166854137902
0.516000000000000236,-5.103806844531336040
0.517000000000000348,-5.054841836593626070
0.518000000000000238,-5.006796933251216331
0.519000000000000350,-4.959659808381067236
0.520000000000000240,-4.913418030395717118
0.521000000000000352,-4.868059072848839541
0.522000000000000242,-4.823570324777302076
0.523000000000000353,-4.779939100779346361
0.524000000000000243,-4.737152650829258960
0.525000000000000355,-4.695198169828834978
0.526000000000000245,-4.654062806896591020
0.527000000000000357,-4.613733674395482431
0.528000000000000247,-4.574197856700746634
0.529000000000000359,-4.535442418709047629
0.530000000000000249,-4.497454414090957364
0.531000000000000361,-4.460220893288495247
0.532000000000000250,-4.423728911260130126
0.533000000000000362,-4.387965534975293735
0.534000000000000252,-4.352917850661222943
0.535000000000000364,-4.318572970804555489
0.536000000000000254,-4.284918040910708825
0.537000000000000366,-4.251940246023798053
0.538000000000000256,-4.219626817010441400
0.539000000000000368,-4.187965036610378000
0.540000000000000258,-4.156942245257522650
0.541000000000000369,-4.126545846674557261
0.542000000000000259,-4.096763313244882632
0.543000000000000371,-4.067582191165233674
0.544000000000000261,-4.038990105382872287
0.545000000000000373,-4.010974764320861752
0.546000000000000263,-3.983523964395411898
0.547000000000000375,-3.956625594328913031
0.548000000000000265,-3.930267639262787327
0.549000000000000377,-3.904438184673806322
0.550000000000000266,-3.879125420098035626
0.551000000000000378,-3.854317642666218457
0.552000000000000268,-3.830003260454723168
0.553000000000000380,-3.806170795655881456
0.554000000000000270,-3.782808887571918355
0.555000000000000382,-3.759906295436293622
0.556000000000000272,-3.737451901066636051
0.557000000000000384,-3.715434711353083230
0.558000000000000274,-3.693843860586224714
0.559000000000000385,-3.672668612628411378
0.560000000000000275,-3.651898362932587183
0.561000000000000387,-3.631522640412403913
0.562000000000000277,-3.611531109167660070
0.563000000000000389,-3.591913570068855144
0.564000000000000279,-3.572659962204780548
0.565000000000000391,-3.553760364196921984
0.566000000000000281,-3.535204995384457760
0.567000000000000393,-3.516984216883599856
0.568000000000000282,-3.499088532525044037
0.569000000000000394,-3.481508589673028897
0.570000000000000284,-3.464235179929828323
0.571000000000000396,-3.447259239729059122
0.572000000000000286,-3.430571850821487967
0.573000000000000398,-3.414164240656657689
0.574000000000000288,-3.398027782663872731
0.575000000000000400,-3.382153996435872223
0.576000000000000290,-3.366534547818510248
0.577000000000000401,-3.351161248909690471
0.578000000000000291,-3.336026057970836067
0.579000000000000403,-3.321121079253933406
0.580000000000000293,-3.306438562747386900
0.581000000000000405,-3.291970903843620899
0.582000000000000295,-3.277710642931473295
0.583000000000000407,-3.263650464916299399
0.584000000000000297,-3.249783198670654460
0.585000000000000409,-3.236101816418364141
0.586000000000000298,-3.222599433054792684
0.587000000000000410,-3.209269305405912487
0.588000000000000300,-3.196104831428938642
0.589000000000000412,-3.183099549356999791
0.590000000000000302,-3.170247136790471654
0.591000000000000414,-3.157541409737378846
0.592000000000000304,-3.144976321605310154
0.593000000000000416,-3.132545962147196938
0.594000000000000306,-3.120244556363265254
0.595000000000000417,-3.108066463361402576
0.596000000000000307,-3.096006175178113828
0.597000000000000419,-3.084058315562226316
0.598000000000000309,-3.072217638723442334
0.599000000000000421,-3.060479028047679240
0.600000000000000311,-3.048837494781299728
0.601000000000000423,-3.037288176686029573
0.602000000000000313,-3.025826336666531002
0.603000000000000425,-3.014447361372352585
0.604000000000000314,-3.003146759776133656
0.605000000000000426,-2.991920161729647809
0.606000000000000316,-2.980763316499507987
0.607000000000000428,-2.969672091283939608
0.608000000000000318,-2.958642469712445155
0.609000000000000430,-2.947670550329656525
0.610000000000000320,-2.936752545064975184
0.611000000000000432,-2.925884777689389260
0.612000000000000322,-2.915063682260857103
0.613000000000000433,-2.904285801559585600
0.614000000000000323,-2.893547785514519965
0.615000000000000435,-2.882846389622267136
0.616000000000000325,-2.872178473359688233
0.617000000000000437,-2.861540998591318274
0.618000000000000327,-2.850931027972731790
0.619000000000000439,-2.840345723350959251
0.620000000000000329,-2.829782344163001007
0.621000000000000441,-2.819238245833411316
0.622000000000000330,-2.808710878172020475
0.623000000000000442,-2.798197783772597536
0.624000000000000332,-2.787696596413482553
0.625000000000000444,-2.777205039460974856
0.626000000000000334,-2.766720924276328653
0.627000000000000446,-2.756242148627175315
0.628000000000000336,-2.745766695104116639
0.629000000000000448,-2.735292629543210730
0.630000000000000338,-2.724818099455105003
0.631000000000000449,-2.714341332461400746
0.632000000000000339,-2.703860634739017499
0.633000000000000451,-2.693374389473016883
0.634000000000000341,-2.682881055318613761
0.635000000000000453,-2.672379164872840107
0.636000000000000343,-2.661867323156421605
0.637000000000000455,-2.651344206106396761
0.638000000000000345,-2.640808559079905748
0.639000000000000457,-2.630259195369637037
0.640000000000000346,-2.619694994731374127
0.641000000000000458,-2.609114901924017627
0.642000000000000348,-2.598517925262478379
0.643000000000000460,-2.587903135183802217
0.644000000000000350,-2.577269662826908281
0.645000000000000462,-2.566616698626170479
0.646000000000000352,-2.555943490919231120
0.647000000000000464,-2.545249344569274097
0.648000000000000353,-2.534533619602057808
0.649000000000000465,-2.523795729857874370
0.650000000000000355,-2.513035141658792160
0.651000000000000467,-2.502251372491222536
0.652000000000000357,-2.491443989704170470
0.653000000000000469,-2.480612609223170839
0.654000000000000359,-2.469756894280251913
0.655000000000000471,-2.458876554159897143
0.656000000000000361,-2.447971342961256624
0.657000000000000473,-2.437041058376655744
