# Ag111_ATRAZINE-AC
# h[nm],U(h)[kJ/mol]
0.149999999999999994,101.398428929527085529
0.150999999999999995,97.439646414264885266
0.151999999999999996,93.615810594183287208
0.152999999999999997,89.923898884504893658
0.153999999999999998,86.331069367969391237
0.154999999999999999,82.805552627836206625
0.156000000000000000,79.327171837489601103
0.157000000000000001,75.888121991238179476
0.158000000000000002,72.489880412362111883
0.159000000000000002,69.139270037601377794
0.160000000000000003,65.845049884084318137
0.161000000000000004,62.615503267383061825
0.162000000000000005,59.457037073569686925
0.163000000000000006,56.373606597682147878
0.164000000000000007,53.366723355217743574
0.165000000000000008,50.435817283722570892
0.166000000000000009,47.578768799674818979
0.167000000000000010,44.792477623588780489
0.168000000000000010,42.073382728005739750
0.169000000000000011,39.417886393668382539
0.170000000000000012,36.822664053166846543
0.171000000000000013,34.284861115707684576
0.172000000000000014,31.802189871817866162
0.173000000000000015,29.372945650663346839
0.174000000000000016,26.995963313037936615
0.175000000000000017,24.670534324002932891
0.176000000000000018,22.396302177782128950
0.177000000000000018,20.173150675310729696
0.178000000000000019,18.001096064713514977
0.179000000000000020,15.880190727618986202
0.180000000000000021,13.810443154336212501
0.181000000000000022,11.791756508700593997
0.182000000000000023,9.823886169195471751
0.183000000000000024,7.906415224912419326
0.184000000000000025,6.038745950007797347
0.185000000000000026,4.220104709767129592
0.186000000000000026,2.449557491408424603
0.187000000000000027,0.726033231640658250
0.188000000000000028,-0.951647734545907675
0.189000000000000029,-2.584742509911566621
0.190000000000000030,-4.174553822378865853
0.191000000000000031,-5.722399258327945049
0.192000000000000032,-7.229582860306289938
0.193000000000000033,-8.697370048619541549
0.194000000000000034,-10.126966498278916262
0.195000000000000034,-11.519501314573654227
0.196000000000000035,-12.876014606471438029
0.197000000000000036,-14.197449358167649081
0.198000000000000037,-15.484647344012177683
0.199000000000000038,-16.738348717657416387
0.200000000000000039,-17.959194828433478364
0.201000000000000040,-19.147733771924144719
0.202000000000000041,-20.304428162522974333
0.203000000000000042,-21.429664618495145589
0.204000000000000042,-22.523764470114958414
0.205000000000000043,-23.586995234536225041
0.206000000000000044,-24.619582443397838745
0.207000000000000045,-25.621721457480504114
0.208000000000000046,-26.593588954235769961
0.209000000000000047,-27.535353826418258905
0.210000000000000048,-28.447187281536265857
0.211000000000000049,-29.329271980982348111
0.212000000000000050,-30.181810103477317853
0.213000000000000050,-31.005030259131139303
0.214000000000000051,-31.799193217553742841
0.215000000000000052,-32.564596445811318404
0.216000000000000053,-33.301577479586178754
0.217000000000000054,-34.010516173767705084
0.218000000000000055,-34.691835897097917041
0.219000000000000056,-35.346003749713482023
0.220000000000000057,-35.973529892827698973
0.221000000000000058,-36.574966086755082983
0.222000000000000058,-37.150903537417043765
0.223000000000000059,-37.701970152766172362
0.224000000000000060,-38.228827309637168241
0.225000000000000061,-38.732166228743608372
0.226000000000000062,-39.212704051245623305
0.227000000000000063,-39.671179704840724867
0.228000000000000064,-40.108349640969187533
0.229000000000000065,-40.524983517743464745
0.230000000000000066,-40.921859895833662790
0.231000000000000066,-41.299762006972173367
0.232000000000000067,-41.659473647147720499
0.233000000000000068,-42.001775239084608415
0.234000000000000069,-42.327440101363620784
0.235000000000000070,-42.637230954628556390
0.236000000000000071,-42.931896688807654527
0.237000000000000072,-43.212169409216464544
0.238000000000000073,-43.478761773831102744
0.239000000000000073,-43.732364628950215035
0.240000000000000074,-43.973644945912376159
0.241000000000000075,-44.203244057497137476
0.242000000000000076,-44.421776189105443677
0.243000000000000077,-44.629827276773539779
0.244000000000000078,-44.827954061497393923
0.245000000000000079,-45.016683447210262159
0.246000000000000080,-45.196512108032401045
0.247000000000000081,-45.367906329070017080
0.248000000000000081,-45.531302064046066391
0.249000000000000082,-45.687105192367411632
0.250000000000000111,-45.835691957838477606
0.251000000000000112,-45.977409571087534346
0.252000000000000113,-46.112576957850862414
0.253000000000000114,-46.241485635527297404
0.254000000000000115,-46.364400700850055159
0.255000000000000115,-46.481561912091841293
0.256000000000000116,-46.593184849903764189
0.257000000000000117,-46.699462141663147463
0.258000000000000118,-46.800564735050770082
0.259000000000000119,-46.896643207476316206
0.260000000000000120,-46.987829098904846603
0.261000000000000121,-47.074236256591895255
0.262000000000000122,-47.155962181198511018
0.263000000000000123,-47.233089364717486092
0.264000000000000123,-47.305686611590154200
0.265000000000000124,-47.373810335319021192
0.266000000000000125,-47.437505823780782066
0.267000000000000126,-47.496808467308468948
0.268000000000000127,-47.551744944438908647
0.269000000000000128,-47.602334361006036545
0.270000000000000129,-47.648589339000764653
0.271000000000000130,-47.690517052313182944
0.272000000000000131,-47.728120207118720941
0.273000000000000131,-47.761397965268919563
0.274000000000000132,-47.790346809598553079
0.275000000000000133,-47.814961350564679776
0.276000000000000134,-47.835235074089972329
0.277000000000000135,-47.851161030895490001
0.278000000000000136,-47.862732467976265127
0.279000000000000137,-47.869943403200110765
0.280000000000000138,-47.872789144296874042
0.281000000000000139,-47.871266753754788681
0.282000000000000139,-47.865375461353366404
0.283000000000000140,-47.855117026243611633
0.284000000000000141,-47.840496050633383618
0.285000000000000142,-47.821520247257488734
0.286000000000000143,-47.798200662903724378
0.287000000000000144,-47.770551860335444871
0.288000000000000145,-47.738592060997348199
0.289000000000000146,-47.702343250916541706
0.290000000000000147,-47.661831252218902932
0.291000000000000147,-47.617085762671187865
0.292000000000000148,-47.568140365636267575
0.293000000000000149,-47.515032512791421482
0.294000000000000150,-47.457803481912648635
0.295000000000000151,-47.396498311969217809
0.296000000000000152,-47.331165717707484930
0.297000000000000153,-47.261857985829081485
0.298000000000000154,-47.188630854790162061
0.299000000000000155,-47.111543380164341954
0.300000000000000155,-47.030657787424800631
0.301000000000000156,-46.946039313910901569
0.302000000000000157,-46.857756041652514511
0.303000000000000158,-46.765878722632756137
0.304000000000000159,-46.670480597975718240
0.305000000000000160,-46.571637212453097732
0.306000000000000161,-46.469426225610909853
0.307000000000000162,-46.363927220726644407
0.308000000000000163,-46.255221512717255905
0.309000000000000163,-46.143391956031351242
0.310000000000000164,-46.028522753473993134
0.311000000000000165,-45.910699266829553267
0.312000000000000166,-45.790007830069050954
0.313000000000000167,-45.666535565851823719
0.314000000000000168,-45.540370205957366068
0.315000000000000169,-45.411599916214086647
0.316000000000000170,-45.280313126424076131
0.317000000000000171,-45.146598365720123525
0.318000000000000171,-45.010544103730907750
0.319000000000000172,-44.872238597874066102
0.320000000000000173,-44.731769747043450991
0.321000000000000174,-44.589224951906928140
0.322000000000000175,-44.444690981984805944
0.323000000000000176,-44.298253849635372603
0.324000000000000177,-44.149998691034035403
0.325000000000000178,-44.000009654194954578
0.326000000000000179,-43.848369794050668702
0.327000000000000179,-43.695160974572829105
0.328000000000000180,-43.540463777889257813
0.329000000000000181,-43.384357420326338683
0.330000000000000182,-43.226919675281948230
0.331000000000000183,-43.068226802813697418
0.332000000000000184,-42.908353485807445793
0.333000000000000185,-42.747372772575360500
0.334000000000000186,-42.585356025717473472
0.335000000000000187,-42.422372877068070807
0.336000000000000187,-42.258491188537654182
0.337000000000000188,-42.093777018651628907
0.338000000000000189,-41.928294594579021748
0.339000000000000190,-41.762106289439365980
0.340000000000000191,-41.595272604669453642
0.341000000000000192,-41.427852157229885677
0.342000000000000193,-41.259901671427449799
0.343000000000000194,-41.091475975129284848
0.344000000000000195,-40.922628000143355109
0.345000000000000195,-40.753408786541761799
0.346000000000000196,-40.583867490703120495
0.347000000000000197,-40.414051396854020481
0.348000000000000198,-40.244005931891663863
0.349000000000000199,-40.073774683272773700
0.350000000000000200,-39.903399419759118416
0.351000000000000201,-39.732920114813254031
0.352000000000000202,-39.562374972443350885
0.353000000000000203,-39.391800455301762440
0.354000000000000203,-39.221231314846441762
0.355000000000000204,-39.050700623381132459
0.356000000000000205,-38.880239807795611284
0.357000000000000206,-38.709878684833945783
0.358000000000000207,-38.539645497724436041
0.359000000000000208,-38.369566954012100268
0.360000000000000209,-38.199668264440319376
0.361000000000000210,-38.029973182735453463
0.362000000000000210,-37.860504046154169089
0.363000000000000211,-37.691281816660236359
0.364000000000000212,-37.522326122603757881
0.365000000000000213,-37.353655300782463655
0.366000000000000214,-37.185286438770631889
0.367000000000000215,-37.017235417408116405
0.368000000000000216,-36.849516953347503545
0.369000000000000217,-36.682144641563731113
0.370000000000000218,-36.515130997736591212
0.371000000000000218,-36.348487500421825303
0.372000000000000219,-36.182224632932552311
0.373000000000000220,-36.016351924858227562
0.374000000000000221,-35.850877993153147827
0.375000000000000222,-35.685810582732329976
0.376000000000000223,-35.521156606516981924
0.377000000000000224,-35.356922184876786730
0.378000000000000225,-35.193112684421109293
0.379000000000000226,-35.029732756094844603
0.380000000000000226,-34.866786372539991135
0.381000000000000227,-34.704276864686974591
0.382000000000000228,-34.542206957544685508
0.383000000000000229,-34.380578805160951106
0.384000000000000230,-34.219394024729432147
0.385000000000000231,-34.058653729822012224
0.386000000000000232,-33.898358562728844845
0.387000000000000233,-33.738508725891527718
0.388000000000000234,-33.579104012417353431
0.389000000000000234,-33.420143835666053178
0.390000000000000235,-33.261627257901793087
0.391000000000000236,-33.103553018007026765
0.392000000000000237,-32.945919558255717163
0.393000000000000238,-32.788725050146751983
0.394000000000000239,-32.631967419299265032
0.395000000000000240,-32.475644369414325752
0.396000000000000241,-32.319753405308716765
0.397000000000000242,-32.164291855027940414
0.398000000000000242,-32.009256891047797922
0.399000000000000243,-31.854645550574275603
0.400000000000000244,-31.700454754953511838
0.401000000000000245,-31.546681328204329020
0.402000000000000246,-31.393322014687164767
0.403000000000000247,-31.240373495923602576
0.404000000000000248,-31.087832406582329270
0.405000000000000249,-30.935695349647602370
0.406000000000000250,-30.783958910786992647
0.407000000000000250,-30.632619671935987782
0.408000000000000251,-30.481674224117348615
0.409000000000000252,-30.331119179513894579
0.410000000000000253,-30.180951182813135603
0.411000000000000254,-30.031166921843301054
0.412000000000000255,-29.881763137519804729
0.413000000000000256,-29.732736633122140546
0.414000000000000257,-29.584084282920400710
0.415000000000000258,-29.435803040171784062
0.416000000000000258,-29.287889944506652284
0.417000000000000259,-29.140342128724018522
0.418000000000000260,-28.993156825016541234
0.419000000000000261,-28.846331370644485048
0.420000000000000262,-28.699863213078458557
0.421000000000000263,-28.553749914630600415
0.422000000000000264,-28.407989156593117741
0.423000000000000265,-28.262578742903706086
0.424000000000000266,-28.117516603356666138
0.425000000000000266,-27.972800796378180621
0.426000000000000267,-27.828429511384378259
0.427000000000000268,-27.684401070740108253
0.428000000000000269,-27.540713931336330944
0.429000000000000270,-27.397366685803440589
0.430000000000000271,-27.254358063377782884
0.431000000000000272,-27.111686930438043674
0.432000000000000273,-26.969352290727908183
0.433000000000000274,-26.827353285281208883
0.434000000000000274,-26.685689192064831587
0.435000000000000275,-26.544359425355150250
0.436000000000000276,-26.403363534862535289
0.437000000000000277,-26.262701204618458917
0.438000000000000278,-26.122372251639443874
0.439000000000000279,-25.982376624381526398
0.440000000000000280,-25.842714400998353597
0.441000000000000281,-25.703385787415925279
0.442000000000000282,-25.564391115236738017
0.443000000000000282,-25.425730839484835144
0.444000000000000283,-25.287405536204126122
0.445000000000000284,-25.149415899920789741
0.446000000000000285,-25.011762740980913122
0.447000000000000286,-24.874446982773992687
0.448000000000000287,-24.737469658852063503
0.449000000000000288,-24.600831909954756327
0.450000000000000289,-24.464534980949231624
0.451000000000000290,-24.328580217694259602
0.452000000000000290,-24.192969063837136190
0.453000000000000291,-24.057703057551567127
0.454000000000000292,-23.922783828224734037
0.455000000000000293,-23.788213093100985418
0.456000000000000294,-23.653992653889527986
0.457000000000000295,-23.520124393343103009
0.458000000000000296,-23.386610271814227247
0.459000000000000297,-23.253452323795436030
0.460000000000000298,-23.120652654449393992
0.461000000000000298,-22.988213436134842027
0.462000000000000299,-22.856136904933613607
0.463000000000000300,-22.724425357183914542
0.464000000000000301,-22.593081146024893258
0.465000000000000302,-22.462106677956921175
0.466000000000000303,-22.331504409422130664
0.467000000000000304,-22.201276843409097239
0.468000000000000305,-22.071426526085787145
0.469000000000000306,-21.941956043464106330
0.470000000000000306,-21.812868018099798917
0.471000000000000307,-21.684165105830409459
0.472000000000000308,-21.555849992554808381
0.473000000000000309,-21.427925391056522386
0.474000000000000310,-21.300394037873793707
0.475000000000000311,-21.173258690218453637
0.476000000000000312,-21.046522122946146993
0.477000000000000313,-20.920187125579417398
0.478000000000000314,-20.794256499385873838
0.479000000000000314,-20.668733054513001690
0.480000000000000315,-20.543619607180890085
0.481000000000000316,-20.418918976934691045
0.482000000000000317,-20.294633983957428569
0.483000000000000318,-20.170767446444770599
0.484000000000000319,-20.047322178042257690
0.485000000000000320,-19.924300985346111048
0.486000000000000321,-19.801706665468056912
0.487000000000000322,-19.679542003664945327
0.488000000000000322,-19.557809771033294766
0.489000000000000323,-19.436512722269540632
0.490000000000000324,-19.315653593495845541
0.491000000000000325,-19.195235100151815999
0.492000000000000326,-19.075259934952082830
0.493000000000000327,-18.955730765909841296
0.494000000000000328,-18.836650234426027595
0.495000000000000329,-18.718020953444234777
0.496000000000000330,-18.599845505670753454
0.497000000000000330,-18.482126441859733745
0.498000000000000331,-18.364866279162747276
0.499000000000000332,-18.248067499542678149
0.500000000000000333,-18.131732548251012105
0.501000000000000334,-18.015863832368243180
0.502000000000000335,-17.900463719406594976
0.503000000000000336,-17.785534535974619530
0.504000000000000337,-17.671078566502636420
0.505000000000000338,-17.557098052028528912
0.506000000000000338,-17.443595189043001881
0.507000000000000339,-17.330572128393473719
0.508000000000000340,-17.218030974245682074
0.509000000000000341,-17.105973783102367491
0.510000000000000342,-16.994402562877738205
0.511000000000000343,-16.883319272027137004
0.512000000000000344,-16.772725818730698677
0.513000000000000345,-16.662624060130138304
0.514000000000000346,-16.553015801617750213
0.515000000000000346,-16.443902796176327996
0.516000000000000347,-16.335286743769309226
0.517000000000000348,-16.227169290779976052
0.518000000000000349,-16.119552029498464663
0.519000000000000350,-16.012436497655961887
0.520000000000000351,-15.905824178004584368
0.521000000000000352,-15.799716497942224436
0.522000000000000353,-15.694114829181085469
0.523000000000000353,-15.589020487458796538
0.524000000000000354,-15.484434732291390446
0.525000000000000355,-15.380358766766553558
0.526000000000000356,-15.276793737376518578
0.527000000000000357,-15.173740733889342636
0.528000000000000358,-15.071200789257465757
0.529000000000000359,-14.969174879562654468
0.530000000000000360,-14.867663923996142117
0.531000000000000361,-14.766668784872996056
0.532000000000000361,-14.666190267679638737
0.533000000000000362,-14.566229121153526194
0.534000000000000363,-14.466786037393992714
0.535000000000000364,-14.367861652003146133
0.536000000000000365,-14.269456544255954000
0.537000000000000366,-14.171571237298483226
0.538000000000000367,-14.074206198373218513
0.539000000000000368,-13.977361839070757910
0.540000000000000369,-13.881038515606595851
0.541000000000000369,-13.785236529122368410
0.542000000000000370,-13.689956126010471849
0.543000000000000371,-13.595197498261139657
0.544000000000000372,-13.500960783831207124
0.545000000000000373,-13.407246067033563364
0.546000000000000374,-13.314053378946486106
0.547000000000000375,-13.221382697841960407
0.548000000000000376,-13.129233949632256540
0.549000000000000377,-13.037607008333861103
0.550000000000000377,-12.946501696547894511
0.551000000000000378,-12.855917785956393118
0.552000000000000379,-12.765854997833594453
0.553000000000000380,-12.676313003571438642
0.554000000000000381,-12.587291425218555929
0.555000000000000382,-12.498789836032193179
0.556000000000000383,-12.410807761041967368
0.557000000000000384,-12.323344677625254207
0.558000000000000385,-12.236400016093124776
0.559000000000000385,-12.149973160286403839
0.560000000000000386,-12.064063448181093108
0.561000000000000387,-11.978670172502598135
0.562000000000000388,-11.893792581348094473
0.563000000000000389,-11.809429878816452231
0.564000000000000390,-11.725581225645131056
0.565000000000000391,-11.642245739853507303
0.566000000000000392,-11.559422497392009888
0.567000000000000393,-11.477110532796626075
0.568000000000000393,-11.395308839848173221
0.569000000000000394,-11.314016372235759178
0.570000000000000395,-11.233232044224278567
0.571000000000000396,-11.152954731324895121
0.572000000000000397,-11.073183270968627312
0.573000000000000398,-10.993916463182172194
0.574000000000000399,-10.915153071265773832
0.575000000000000400,-10.836891822472512814
0.576000000000000401,-10.759131408688798359
0.577000000000000401,-10.681870487115588730
0.578000000000000402,-10.605107680949830140
0.579000000000000403,-10.528841580065961381
0.580000000000000404,-10.453070741696993906
0.581000000000000405,-10.377793691114817420
0.582000000000000406,-10.303008922309444984
0.583000000000000407,-10.228714898666831701
0.584000000000000408,-10.154910053644996992
0.585000000000000409,-10.081592791448132473
0.586000000000000409,-10.008761487698341952
0.587000000000000410,-9.936414490104912289
0.588000000000000411,-9.864550119130605310
0.589000000000000412,-9.793166668654937013
0.590000000000000413,-9.722262406634040843
0.591000000000000414,-9.651835575756987140
0.592000000000000415,-9.581884394098272750
0.593000000000000416,-9.512407055766264108
0.594000000000000417,-9.443401731547385936
0.595000000000000417,-9.374866569546011164
0.596000000000000418,-9.306799695819456986
0.597000000000000419,-9.239199215008529364
0.598000000000000420,-9.172063210962770441
0.599000000000000421,-9.105389747360799646
0.600000000000000422,-9.039176868325256464
0.601000000000000423,-8.973422599032348401
0.602000000000000424,-8.908124946315822967
0.603000000000000425,-8.843281899265244661
0.604000000000000425,-8.778891429818440173
