# Ag111_BSAI20
# h[nm],U(h)[kJ/mol]
0.149999999999999994,95.557944395544879512
0.150999999999999995,90.672209665263920897
0.151999999999999996,87.033809929170416808
0.152999999999999997,83.656420879613591524
0.153999999999999998,80.208089110774452024
0.154999999999999999,76.650437336264516830
0.156000000000000000,73.049774062244452466
0.157000000000000001,69.487134504408558655
0.158000000000000002,66.022542640009746151
0.159000000000000002,62.686870231537433540
0.160000000000000003,59.486036070213650362
0.161000000000000004,56.409273432633213474
0.162000000000000005,53.437360492774203635
0.163000000000000006,50.549095195441054784
0.164000000000000007,47.725583623531619537
0.165000000000000008,44.952539454090590709
0.166000000000000009,42.221041582860230790
0.167000000000000010,39.527241476586688407
0.168000000000000010,36.871456466016304887
0.169000000000000011,34.256991070116370679
0.170000000000000012,31.688928905646612577
0.171000000000000013,29.173049243126229157
0.172000000000000014,26.714951338508502232
0.173000000000000015,24.319417292153421073
0.174000000000000016,21.990008558303610897
0.175000000000000017,19.728869376381435785
0.176000000000000018,17.536699104442860175
0.177000000000000018,15.412851731458928839
0.178000000000000019,13.355522214160952643
0.179000000000000020,11.361983731680300735
0.180000000000000021,9.428845979824320267
0.181000000000000022,7.552311172152565533
0.182000000000000023,5.728410767045479801
0.183000000000000024,3.953211664725319707
0.184000000000000025,2.222985487253801296
0.185000000000000026,0.534338485430087218
0.186000000000000026,-1.115697375146931236
0.187000000000000027,-2.729609434138535740
0.188000000000000028,-4.309381321172788049
0.189000000000000029,-5.856496948542200265
0.190000000000000030,-7.371966227001530925
0.191000000000000031,-8.856367261831104898
0.192000000000000032,-10.309900094926849334
0.193000000000000033,-11.732447545284252044
0.194000000000000034,-13.123639292064996908
0.195000000000000034,-14.482915983788917202
0.196000000000000035,-15.809590800121839038
0.197000000000000036,-17.102906507296573579
0.198000000000000037,-18.362086612617083858
0.199000000000000038,-19.586379724270521763
0.200000000000000039,-20.775096652912580453
0.201000000000000040,-21.927640149359554300
0.202000000000000041,-23.043527460094065162
0.203000000000000042,-24.122406103654352449
0.204000000000000042,-25.164063432503429141
0.205000000000000043,-26.168430653790597518
0.206000000000000044,-27.135582046053876581
0.207000000000000045,-28.065730134860775280
0.208000000000000046,-28.959217585818976204
0.209000000000000047,-29.816506544941795198
0.210000000000000048,-30.638166110001776588
0.211000000000000049,-31.424858557498861700
0.212000000000000050,-32.177324882720675703
0.213000000000000050,-32.896370138855139942
0.214000000000000051,-33.582848988332315798
0.215000000000000052,-34.237651807978508600
0.216000000000000053,-34.861691621057957491
0.217000000000000054,-35.455892065250111500
0.218000000000000055,-36.021176547028574078
0.219000000000000056,-36.558458680369469107
0.220000000000000057,-37.068634061530843837
0.221000000000000058,-37.552573391856597596
0.222000000000000058,-38.011116927051062930
0.223000000000000059,-38.445070203850058022
0.224000000000000060,-38.855200973107947959
0.225000000000000061,-39.242237251565789791
0.226000000000000062,-39.606866392462158899
0.227000000000000063,-39.949735067174046321
0.228000000000000064,-40.271450045702799514
0.229000000000000065,-40.572579662536000455
0.230000000000000066,-40.853655855725392598
0.231000000000000066,-41.115176670464265385
0.232000000000000067,-41.357609123593967126
0.233000000000000068,-41.581392331933720641
0.234000000000000069,-41.786940814760441754
0.235000000000000070,-41.974647888860211253
0.236000000000000071,-42.144889083061300994
0.237000000000000072,-42.298025507814557500
0.238000000000000073,-42.434407124014327906
0.239000000000000073,-42.554375863694424709
0.240000000000000074,-42.658268563361630754
0.241000000000000075,-42.746419678440773282
0.242000000000000076,-42.819163754525462195
0.243000000000000077,-42.876837637804911196
0.244000000000000078,-42.919782413131144949
0.245000000000000079,-42.948345063686886647
0.246000000000000080,-42.962879851104631257
0.247000000000000081,-42.963749419181127109
0.248000000000000081,-42.951325628040329718
0.249000000000000082,-42.925990128749617725
0.250000000000000111,-42.888134691014258237
0.251000000000000112,-42.838161298697151835
0.252000000000000113,-42.776482029573728028
0.253000000000000114,-42.703518736968867131
0.254000000000000115,-42.619702551777592703
0.255000000000000115,-42.525473223878613283
0.256000000000000116,-42.421278322152161877
0.257000000000000117,-42.307572312244431600
0.258000000000000118,-42.184815530918754689
0.259000000000000119,-42.053473075332234998
0.260000000000000120,-41.914013624906587552
0.261000000000000121,-41.766908212653824251
0.262000000000000122,-41.612628961900284708
0.263000000000000123,-41.451647803348052435
0.264000000000000123,-41.284435186347288038
0.265000000000000124,-41.111458797144607047
0.266000000000000125,-40.933182295740650147
0.267000000000000126,-40.750064081849693309
0.268000000000000127,-40.562556099320445924
0.269000000000000128,-40.371102687261121389
0.270000000000000129,-40.176139485024322084
0.271000000000000130,-39.978092397156537174
0.272000000000000131,-39.777376623410205525
0.273000000000000131,-39.574395757958654940
0.274000000000000132,-39.369540961050212502
0.275000000000000133,-39.163190205491218876
0.276000000000000134,-38.955707599559083576
0.277000000000000135,-38.747442787218844273
0.278000000000000136,-38.538730425849408334
0.279000000000000137,-38.329889741078133625
0.280000000000000138,-38.121224157775642993
0.281000000000000139,-37.913021005772172600
0.282000000000000139,-37.705551298424381912
0.283000000000000140,-37.499069581781974136
0.284000000000000141,-37.293813851776363322
0.285000000000000142,-37.090005536575340273
0.286000000000000143,-36.887849541016414889
0.287000000000000144,-36.687534349842238157
0.288000000000000145,-36.489232186315504691
0.289000000000000146,-36.293099222679316540
0.290000000000000147,-36.099275838854353537
0.291000000000000147,-35.907886925720831073
0.292000000000000148,-35.719042229318276327
0.293000000000000149,-35.532836732307927718
0.294000000000000150,-35.349351069077172838
0.295000000000000151,-35.168651970921729344
0.296000000000000152,-34.990792737815084479
0.297000000000000153,-34.815813733365189364
0.298000000000000154,-34.643742899662186119
0.299000000000000155,-34.474596288837318525
0.300000000000000155,-34.308378608278317756
0.301000000000000156,-34.145083776580683832
0.302000000000000157,-33.984695487454168017
0.303000000000000158,-33.827187778948669461
0.304000000000000159,-33.672525605512376501
0.305000000000000160,-33.520665410544935980
0.306000000000000161,-33.371555697260312456
0.307000000000000162,-33.225137595825330550
0.308000000000000163,-33.081345424889988749
0.309000000000000163,-32.940107245774498779
0.310000000000000164,-32.801345407723793812
0.311000000000000165,-32.664977082783160256
0.312000000000000166,-32.530914788987480790
0.313000000000000167,-32.399066900691678939
0.314000000000000168,-32.269338144999736073
0.315000000000000169,-32.141630083375346771
0.316000000000000170,-32.015841577637111470
0.317000000000000171,-31.891869239655544987
0.318000000000000171,-31.769607864178926349
0.319000000000000172,-31.648950844317777609
0.320000000000000173,-31.529790569316151760
0.321000000000000174,-31.412018804329068900
0.322000000000000175,-31.295527052012943159
0.323000000000000176,-31.180206895815423707
0.324000000000000177,-31.065950324926781434
0.325000000000000178,-30.952650040924574171
0.326000000000000179,-30.840199746207446196
0.327000000000000179,-30.728494414373148658
0.328000000000000180,-30.617430542749836775
0.329000000000000181,-30.506906387339256526
0.330000000000000182,-30.396822180474135422
0.331000000000000183,-30.287080331533122290
0.332000000000000184,-30.177585611091320317
0.333000000000000185,-30.068245318916815734
0.334000000000000186,-29.958969436250622920
0.335000000000000187,-29.849670762831863158
0.336000000000000187,-29.740265039150209248
0.337000000000000188,-29.630671054424691846
0.338000000000000189,-29.520810740822106766
0.339000000000000190,-29.410609254439446403
0.340000000000000191,-29.299995043582519827
0.341000000000000192,-29.188899904879956893
0.342000000000000193,-29.077259027773685318
0.343000000000000194,-28.965011027929893572
0.344000000000000195,-28.852097970112261294
0.345000000000000195,-28.738465381058027504
0.346000000000000196,-28.624062252892137792
0.347000000000000197,-28.508841037609595759
0.348000000000000198,-28.392757633148725915
0.349000000000000199,-28.275771361569621121
0.350000000000000200,-28.157844939842753718
0.351000000000000201,-28.038944443741740997
0.352000000000000202,-27.919039265323352339
0.353000000000000203,-27.798102064465318506
0.354000000000000203,-27.676108714920001574
0.355000000000000204,-27.553038245328043132
0.356000000000000205,-27.428872775622956226
0.357000000000000206,-27.303597449243046213
0.358000000000000207,-27.177200361552081631
0.359000000000000208,-27.049672484856312593
0.360000000000000209,-26.921007590389695707
0.361000000000000210,-26.791202167624494024
0.362000000000000210,-26.660255341249317951
0.363000000000000211,-26.528168786141741009
0.364000000000000212,-26.394946640647408032
0.365000000000000213,-26.260595418463005046
0.366000000000000214,-26.125123919405403683
0.367000000000000215,-25.988543139335167353
0.368000000000000216,-25.850866179488047436
0.369000000000000217,-25.712108155454046710
0.370000000000000218,-25.572286106030126973
0.371000000000000218,-25.431418902158902995
0.372000000000000219,-25.289527156152569631
0.373000000000000220,-25.146633131388803406
0.374000000000000221,-25.002760652652423090
0.375000000000000222,-24.857935017285004875
0.376000000000000223,-24.712182907292593370
0.377000000000000224,-24.565532302550582955
0.378000000000000225,-24.418012395233645861
0.379000000000000226,-24.269653505588244968
0.380000000000000226,-24.120486999155087204
0.381000000000000227,-23.970545205538954292
0.382000000000000228,-23.819861338814206420
0.383000000000000229,-23.668469419645226992
0.384000000000000230,-23.516404199192226798
0.385000000000000231,-23.363701084865173385
0.386000000000000232,-23.210396067980312296
0.387000000000000233,-23.056525653366481521
0.388000000000000234,-22.902126790961347069
0.389000000000000234,-22.747236809431274907
0.390000000000000235,-22.591893351841434878
0.391000000000000236,-22.436134313397730011
0.392000000000000237,-22.279997781275554303
0.393000000000000238,-22.123521976545880818
0.394000000000000239,-21.966745198203305733
0.395000000000000240,-21.809705769296794386
0.396000000000000241,-21.652441985158947801
0.397000000000000242,-21.494992063725458564
0.398000000000000242,-21.337394097933245263
0.399000000000000243,-21.179686010181189459
0.400000000000000244,-21.021905508834947796
0.401000000000000245,-20.864090046753943852
0.402000000000000246,-20.706276781815798671
0.403000000000000247,-20.548502539410787193
0.404000000000000248,-20.390803776876985864
0.405000000000000249,-20.233216549844179610
0.406000000000000250,-20.075776480452852013
0.407000000000000250,-19.918518727412877212
0.408000000000000251,-19.761477957864816091
0.409000000000000252,-19.604688321005689033
0.410000000000000253,-19.448183423439267870
0.411000000000000254,-19.291996306210631218
0.412000000000000255,-19.136159423483142916
0.413000000000000256,-18.980704622815796512
0.414000000000000257,-18.825663126997689290
0.415000000000000258,-18.671065517396481681
0.416000000000000258,-18.516941718776887882
0.417000000000000259,-18.363320985545009023
0.418000000000000260,-18.210231889374480119
0.419000000000000261,-18.057702308169865546
0.420000000000000262,-17.905759416323178357
0.421000000000000263,-17.754429676219256606
0.422000000000000264,-17.603738830945992788
0.423000000000000265,-17.453711898165664707
0.424000000000000266,-17.304373165104088628
0.425000000000000266,-17.155746184614415029
0.426000000000000267,-17.007853772273115567
0.427000000000000268,-16.860718004466175302
0.428000000000000269,-16.714360217423855914
0.429000000000000270,-16.568801007163351358
0.430000000000000271,-16.424060230298845653
0.431000000000000272,-16.280157005679726012
0.432000000000000273,-16.137109716817814586
0.433000000000000274,-15.994936015065778889
0.434000000000000274,-15.853652823509140291
0.435000000000000275,-15.713276341535546976
0.436000000000000276,-15.573822050045498244
0.437000000000000277,-15.435304717269540120
0.438000000000000278,-15.297738405157977226
0.439000000000000279,-15.161136476309915011
0.440000000000000280,-15.025511601409059281
0.441000000000000281,-14.890875767135067775
0.442000000000000282,-14.757240284519653528
0.443000000000000282,-14.624615797717726906
0.444000000000000283,-14.493012293164813542
0.445000000000000284,-14.362439109092610678
0.446000000000000285,-14.232904945375612016
0.447000000000000286,-14.104417873682695728
0.448000000000000287,-13.976985347907973534
0.449000000000000288,-13.850614214856722839
0.450000000000000289,-13.725310725162449543
0.451000000000000290,-13.601080544412340601
0.452000000000000290,-13.477928764459099042
0.453000000000000291,-13.355859914897942886
0.454000000000000292,-13.234877974688350477
0.455000000000000293,-13.114986383900992806
0.456000000000000294,-12.996188055571014530
0.457000000000000295,-12.878485387639623028
0.458000000000000296,-12.761880274966671323
0.459000000000000297,-12.646374121397737866
0.460000000000000298,-12.531967851869749708
0.461000000000000298,-12.418661924540181474
0.462000000000000299,-12.306456342925292446
0.463000000000000300,-12.195350668033649200
0.464000000000000301,-12.085344030481911304
0.465000000000000302,-11.976435142580402982
0.466000000000000303,-11.868622310376617079
0.467000000000000304,-11.761903445645467414
0.468000000000000305,-11.656276077815732606
0.469000000000000306,-11.551737365822571491
0.470000000000000306,-11.448284109876770032
0.471000000000000307,-11.345912763141580371
0.472000000000000308,-11.244619443309101570
0.473000000000000309,-11.144399944067952646
0.474000000000000310,-11.045249746455153783
0.475000000000000311,-10.947164030085110298
0.476000000000000312,-10.850137684249556713
0.477000000000000313,-10.754165318882055402
0.478000000000000314,-10.659241275381933889
0.479000000000000314,-10.565359637292322859
0.480000000000000315,-10.472514240827530685
0.481000000000000316,-10.380698685245661750
0.482000000000000317,-10.289906343062272143
0.483000000000000318,-10.200130370101652133
0.484000000000000319,-10.111363715382381656
0.485000000000000320,-10.023599130834423221
0.486000000000000321,-9.936829180844942044
0.487000000000000322,-9.851046251630805273
0.488000000000000322,-9.766242560435552278
0.489000000000000323,-9.682410164549420273
0.490000000000000324,-9.599540970150743036
0.491000000000000325,-9.517626740967703114
0.492000000000000326,-9.436659106759472948
0.493000000000000327,-9.356629571616078778
0.494000000000000328,-9.277529522076491730
0.495000000000000329,-9.199350235064798653
0.496000000000000330,-9.122082885644269723
0.497000000000000330,-9.045718554589605276
0.498000000000000331,-8.970248235777612322
0.499000000000000332,-8.895662843396911157
0.500000000000000333,-8.821953218977228062
0.501000000000000334,-8.749110138239222678
0.502000000000000335,-8.677124317765727568
0.503000000000000336,-8.605986421495652294
0.504000000000000337,-8.535687067041603626
0.505000000000000338,-8.466216831832820588
0.506000000000000338,-8.397566259084705109
0.507000000000000339,-8.329725863596681990
0.508000000000000340,-8.262686137379985141
0.509000000000000341,-8.196437555117285001
0.510000000000000342,-8.130970579455858882
0.511000000000000343,-8.066275666136425215
0.512000000000000344,-8.002343268959537070
0.513000000000000345,-7.939163844591742070
0.514000000000000346,-7.876727857213611017
0.515000000000000346,-7.815025783011871674
0.516000000000000347,-7.754048114517871682
0.517000000000000348,-7.693785364794848647
0.518000000000000349,-7.634228071476099942
0.519000000000000350,-7.575366800656742505
0.520000000000000351,-7.517192150641304416
0.521000000000000352,-7.459694755549659995
0.522000000000000353,-7.402865288783857523
0.523000000000000353,-7.346694466358224318
0.524000000000000354,-7.291173050095446584
0.525000000000000355,-7.236291850690976801
0.526000000000000356,-7.182041730648494493
0.527000000000000357,-7.128413607088883275
0.528000000000000358,-7.075398454435284812
0.529000000000000359,-7.022987306976867572
0.530000000000000360,-6.971171261313811485
0.531000000000000361,-6.919941478686129521
0.532000000000000361,-6.869289187188809542
0.533000000000000362,-6.819205683875909862
0.534000000000000363,-6.769682336756110530
0.535000000000000364,-6.720710586682214327
0.536000000000000365,-6.672281949137188306
0.537000000000000366,-6.624388015919184802
0.538000000000000367,-6.577020456728027042
0.539000000000000368,-6.530171020655662240
0.540000000000000369,-6.483831537582962490
0.541000000000000369,-6.437993919485326622
0.542000000000000370,-6.392650161649514828
0.543000000000000371,-6.347792343803954296
0.544000000000000372,-6.303412631165043578
0.545000000000000373,-6.259503275401613109
0.546000000000000374,-6.216056615519910622
0.547000000000000375,-6.173065078671337247
0.548000000000000376,-6.130521180885230237
0.549000000000000377,-6.088417527728799072
0.550000000000000377,-6.046746814896414079
0.551000000000000378,-6.005501828730447578
0.552000000000000379,-5.964675446675680170
0.553000000000000380,-5.924260637669411800
0.554000000000000381,-5.884250462469270637
0.555000000000000382,-5.844638073920782162
0.556000000000000383,-5.805416717166575147
0.557000000000000384,-5.766579729799307330
0.558000000000000385,-5.728120541960034728
0.559000000000000385,-5.690032676384090493
0.560000000000000386,-5.652309748396102229
0.561000000000000387,-5.614945465856155060
0.562000000000000388,-5.577933629058706266
0.563000000000000389,-5.541268130586038509
0.564000000000000390,-5.504942955117987147
0.565000000000000391,-5.468952179199547459
0.566000000000000392,-5.433289970968008475
0.567000000000000393,-5.397950589841224556
0.568000000000000393,-5.362928386168553274
0.569000000000000394,-5.328217800845986396
0.570000000000000395,-5.293813364897042462
0.571000000000000396,-5.259709699020719498
0.572000000000000397,-5.225901513108124341
0.573000000000000398,-5.192383605728982054
0.574000000000000399,-5.159150863589568203
0.575000000000000400,-5.126198260963213293
0.576000000000000401,-5.093520859094811115
0.577000000000000401,-5.061113805580520264
0.578000000000000402,-5.028972333723909394
0.579000000000000403,-4.997091761869727478
0.580000000000000404,-4.965467492716518549
0.581000000000000405,-4.934095012609173381
0.582000000000000406,-4.902969890812491016
0.583000000000000407,-4.872087778766955424
0.584000000000000408,-4.841444409327630538
0.585000000000000409,-4.811035595987272373
0.586000000000000409,-4.780857232084675168
0.587000000000000410,-4.750905289999115766
0.588000000000000411,-4.721175820331955819
0.589000000000000412,-4.691664951076195855
0.590000000000000413,-4.662368886774955534
0.591000000000000414,-4.633283907669688340
0.592000000000000415,-4.604406368838965591
0.593000000000000416,-4.575732699328645126
0.594000000000000417,-4.547259401274202695
0.595000000000000417,-4.518983049016009446
0.596000000000000418,-4.490900288208178992
0.597000000000000419,-4.463007834921901562
0.598000000000000420,-4.435302474743691548
0.599000000000000421,-4.407781061869445516
0.600000000000000422,-4.380440518194786748
0.601000000000000423,-4.353277832402413949
0.602000000000000424,-4.326290059047005698
0.603000000000000425,-4.299474317638265930
0.604000000000000425,-4.272827791722678015
0.605000000000000426,-4.246347727964488783
0.606000000000000427,-4.220031435226482941
