# Ag111_ASN-AC
# h[nm],U(h)[kJ/mol]
0.149999999999999994,122.537027134945020634
0.150999999999999995,115.341525221160779324
0.151999999999999996,111.179051376146077246
0.152999999999999997,107.650028151948077948
0.153999999999999998,103.922740231951621581
0.154999999999999999,99.877079769105677087
0.156000000000000000,95.653325062090814868
0.157000000000000001,91.435085627624090421
0.158000000000000002,87.361349371629586358
0.159000000000000002,83.504800426886177434
0.160000000000000003,79.880210009345944400
0.161000000000000004,76.463132347884084083
0.162000000000000005,73.208985766884666191
0.163000000000000006,70.068274736161725968
0.164000000000000007,66.996796848897290033
0.165000000000000008,63.961207507482242818
0.166000000000000009,60.940940738328968962
0.167000000000000010,57.927616945110990798
0.168000000000000010,54.922956619207369044
0.169000000000000011,51.936008694948341713
0.170000000000000012,48.980273804544893324
0.171000000000000013,46.071096553962838982
0.172000000000000014,43.223533786112817268
0.173000000000000015,40.450780969208103954
0.174000000000000016,37.763152819907993774
0.175000000000000017,35.167560529522631896
0.176000000000000018,32.667399237937509326
0.177000000000000018,30.262748858418593301
0.178000000000000019,27.950793146487036722
0.179000000000000020,25.726371338649908438
0.180000000000000021,23.582590204347027907
0.181000000000000022,21.511439397943156848
0.182000000000000023,19.504367834002064086
0.183000000000000024,17.552792355380926637
0.184000000000000025,15.648521625738492702
0.185000000000000026,13.784087713126819352
0.186000000000000026,11.952985236390855306
0.187000000000000027,10.149823370647144571
0.188000000000000028,8.370399688767502511
0.189000000000000029,6.611707029027317439
0.190000000000000030,4.871885608578196525
0.191000000000000031,3.150132717840283814
0.192000000000000032,1.446581775250833646
0.193000000000000033,-0.237838495123961741
0.194000000000000034,-1.901555304190391649
0.195000000000000034,-3.542505447740503577
0.196000000000000035,-5.158284844743118214
0.197000000000000036,-6.746288888599157652
0.198000000000000037,-8.303839882633251790
0.199000000000000038,-9.828299042444927025
0.200000000000000039,-11.317161603241322254
0.201000000000000040,-12.768134461844905303
0.202000000000000041,-14.179196511969418992
0.203000000000000042,-15.548642405540011424
0.204000000000000042,-16.875110904769506703
0.205000000000000043,-18.157599294603869566
0.206000000000000044,-19.395465519610446847
0.207000000000000045,-20.588419810298425716
0.208000000000000046,-21.736507587689132492
0.209000000000000047,-22.840085397149085367
0.210000000000000048,-23.899791537181677370
0.211000000000000049,-24.916512928613990141
0.212000000000000050,-25.891349625368668796
0.213000000000000050,-26.825578209083793979
0.214000000000000051,-27.720615144001737207
0.215000000000000052,-28.577981002071954464
0.216000000000000053,-29.399266306068035703
0.217000000000000054,-30.186099584478728985
0.218000000000000055,-30.940118088737001756
0.219000000000000056,-31.662941492849263625
0.220000000000000057,-32.356148778795770227
0.221000000000000058,-33.021258408675045359
0.222000000000000058,-33.659711796479982127
0.223000000000000059,-34.272860018223283873
0.224000000000000060,-34.861953638213158513
0.225000000000000061,-35.428135480728435880
0.226000000000000062,-35.972436139129648325
0.227000000000000063,-36.495771987462241270
0.228000000000000064,-36.998945441707988380
0.229000000000000065,-37.482647207877207052
0.230000000000000066,-37.947460250981052354
0.231000000000000066,-38.393865221516989550
0.232000000000000067,-38.822247083432962711
0.233000000000000068,-39.232902698682366349
0.234000000000000069,-39.626049137601810912
0.235000000000000070,-40.001832500677203086
0.236000000000000071,-40.360337055144348994
0.237000000000000072,-40.701594508715835730
0.238000000000000073,-41.025593262030334074
0.239000000000000073,-41.332287500761800914
0.240000000000000074,-41.621606007351765300
0.241000000000000075,-41.893460590747977790
0.242000000000000076,-42.147754050119793590
0.243000000000000077,-42.384387605102403995
0.244000000000000078,-42.603267740567105193
0.245000000000000079,-42.804312428138615587
0.246000000000000080,-42.987456699630151036
0.247000000000000081,-43.152657559224444128
0.248000000000000081,-43.299898231593331843
0.249000000000000082,-43.429191752248833325
0.250000000000000111,-43.540583914295368118
0.251000000000000112,-43.634155592458704120
0.252000000000000113,-43.710024470871658764
0.253000000000000114,-43.768346205664578008
0.254000000000000115,-43.809315057026125828
0.255000000000000115,-43.833164028137147739
0.256000000000000116,-43.840164550325752657
0.257000000000000117,-43.830625755020427903
0.258000000000000118,-43.804893373671234258
0.259000000000000119,-43.763348306841706403
0.260000000000000120,-43.706404903220374081
0.261000000000000121,-43.634508988427135989
0.262000000000000122,-43.548135682264081936
0.263000000000000123,-43.447787041539207564
0.264000000000000123,-43.333989563834734327
0.265000000000000124,-43.207291585644711063
0.266000000000000125,-43.068260606220988507
0.267000000000000126,-42.917480566278968013
0.268000000000000127,-42.755549108465537245
0.269000000000000128,-42.583074844210884180
0.270000000000000129,-42.400674649304278319
0.271000000000000130,-42.208971008274843939
0.272000000000000131,-42.008589425443730647
0.273000000000000131,-41.800155918360644591
0.274000000000000132,-41.584294607261867327
0.275000000000000133,-41.361625412198691265
0.276000000000000134,-41.132761867596556726
0.277000000000000135,-40.898309062219382781
0.278000000000000136,-40.658861710841037507
0.279000000000000137,-40.415002362364361943
0.280000000000000138,-40.167299747683749445
0.281000000000000139,-39.916307269257451651
0.282000000000000139,-39.662561633141379502
0.283000000000000140,-39.406581623133867254
0.284000000000000141,-39.148867015689596371
0.285000000000000142,-38.889897633374893360
0.286000000000000143,-38.630132533854336430
0.287000000000000144,-38.370009330713244822
0.288000000000000145,-38.109943641828714078
0.289000000000000146,-37.850328660498078648
0.290000000000000147,-37.591534844111365032
0.291000000000000147,-37.333909714810538105
0.292000000000000148,-37.077777766304663487
0.293000000000000149,-36.823440470804129632
0.294000000000000150,-36.571176379890339092
0.295000000000000151,-36.321241313047686106
0.296000000000000152,-36.073868627544023013
0.297000000000000153,-35.829269563352283967
0.298000000000000154,-35.587633656851529906
0.299000000000000155,-35.349129217129174663
0.300000000000000155,-35.113903858820478376
0.301000000000000156,-34.882085085564369820
0.302000000000000157,-34.653780918321174909
0.303000000000000158,-34.429080562985888037
0.304000000000000159,-34.208055111934577042
0.305000000000000160,-33.990758274360842961
0.306000000000000161,-33.777227130489208662
0.307000000000000162,-33.567482904991365444
0.308000000000000163,-33.361531755175953151
0.309000000000000163,-33.159365569772198512
0.310000000000000164,-32.960962774379211737
0.311000000000000165,-32.766289139903982175
0.312000000000000166,-32.575298590562688617
0.313000000000000167,-32.387934008266853425
0.314000000000000168,-32.204128030461006915
0.315000000000000169,-32.023803838717029180
0.316000000000000170,-31.846875935624247234
0.317000000000000171,-31.673250907740644777
0.318000000000000171,-31.502828172590106703
0.319000000000000172,-31.335500707902276929
0.320000000000000173,-31.171155761494048875
0.321000000000000174,-31.009675540387114268
0.322000000000000175,-30.850937877940516785
0.323000000000000176,-30.694816877954099965
0.324000000000000177,-30.541183534865488980
0.325000000000000178,-30.389906329321128453
0.326000000000000179,-30.240851798550501428
0.327000000000000179,-30.093885081111540813
0.328000000000000180,-29.948870435706034243
0.329000000000000181,-29.805671733884668839
0.330000000000000182,-29.664152926573819968
0.331000000000000183,-29.524178484460577465
0.332000000000000184,-29.385613812367779474
0.333000000000000185,-29.248325637838718194
0.334000000000000186,-29.112182374231156956
0.335000000000000187,-28.977054458692428796
0.336000000000000187,-28.842814665453602174
0.337000000000000188,-28.709338394938061612
0.338000000000000189,-28.576503939232964058
0.339000000000000190,-28.444192724517563420
0.340000000000000191,-28.312289531081852090
0.341000000000000192,-28.180682691604754808
0.342000000000000193,-28.049264268388878207
0.343000000000000194,-27.917930210274608527
0.344000000000000195,-27.786580489975001740
0.345000000000000195,-27.655119222589384265
0.346000000000000196,-27.523454766064400445
0.347000000000000197,-27.391499804379417782
0.348000000000000198,-27.259171414237716391
0.349000000000000199,-27.126391116045443397
0.350000000000000200,-26.993084909959748074
0.351000000000000201,-26.859183297782077915
0.352000000000000202,-26.724621291466444717
0.353000000000000203,-26.589338409003566710
0.354000000000000203,-26.453278658430480874
0.355000000000000204,-26.316390510702802885
0.356000000000000205,-26.178626862152345467
0.357000000000000206,-26.039944987237447549
0.358000000000000207,-25.900306482275645692
0.359000000000000208,-25.759677200831401223
0.360000000000000209,-25.618027181411726190
0.361000000000000210,-25.475330568103480289
0.362000000000000210,-25.331565524765412789
0.363000000000000211,-25.186714143367446184
0.364000000000000212,-25.040762347048353575
0.365000000000000213,-24.893699788441441711
0.366000000000000214,-24.745519743796112522
0.367000000000000215,-24.596219003401461833
0.368000000000000216,-24.445797758796153687
0.369000000000000217,-24.294259487227076733
0.370000000000000218,-24.141610833797525260
0.371000000000000218,-23.987861491724380869
0.372000000000000219,-23.833024081102369252
0.373000000000000220,-23.677114026552722237
0.374000000000000221,-23.520149434112887832
0.375000000000000222,-23.362150967703776416
0.376000000000000223,-23.203141725491331471
0.377000000000000224,-23.043147116439918420
0.378000000000000225,-22.882194737336085666
0.379000000000000226,-22.720314250542983814
0.380000000000000226,-22.557537262728256877
0.381000000000000227,-22.393897204790153665
0.382000000000000228,-22.229429213190968539
0.383000000000000229,-22.064170012889967154
0.384000000000000230,-21.898157802052541143
0.385000000000000231,-21.731432138697904577
0.386000000000000232,-21.564033829432208478
0.387000000000000233,-21.396004820401152813
0.388000000000000234,-21.227388090582085312
0.389000000000000234,-21.058227547523515000
0.390000000000000235,-20.888567925627235411
0.391000000000000236,-20.718454687057271002
0.392000000000000237,-20.547933925348260686
0.393000000000000238,-20.377052271776019410
0.394000000000000239,-20.205856804542438709
0.395000000000000240,-20.034394960817984099
0.396000000000000241,-19.862714451675849148
0.397000000000000242,-19.690863179943459471
0.398000000000000242,-19.518889160989200349
0.399000000000000243,-19.346840446454574902
0.400000000000000244,-19.174765050935132393
0.401000000000000245,-19.002710881607079330
0.402000000000000246,-18.830725670790105397
0.403000000000000247,-18.658856911431158210
0.404000000000000248,-18.487151795489218387
0.405000000000000249,-18.315657155195349759
0.406000000000000250,-18.144419407158501656
0.407000000000000250,-17.973484499282733395
0.408000000000000251,-17.802897860458120505
0.409000000000000252,-17.632704352983999740
0.410000000000000253,-17.462948227679671476
0.411000000000000254,-17.293673081635329680
0.412000000000000255,-17.124921818552870434
0.413000000000000256,-16.956736611624229738
0.414000000000000257,-16.789158868892563703
0.415000000000000258,-16.622229201039967705
0.416000000000000258,-16.455987391543761333
0.417000000000000259,-16.290472369141863140
0.418000000000000260,-16.125722182546830652
0.419000000000000261,-15.961773977347007758
0.420000000000000262,-15.798663975032534168
0.421000000000000263,-15.636427454083413835
0.422000000000000264,-15.475098733056213973
0.423000000000000265,-15.314711155605872150
0.424000000000000266,-15.155297077379078274
0.425000000000000266,-14.996887854715259536
0.426000000000000267,-14.839513835091841187
0.427000000000000268,-14.683204349250365439
0.428000000000000269,-14.527987704940608538
0.429000000000000270,-14.373891182220239315
0.430000000000000271,-14.220941030248051007
0.431000000000000272,-14.069162465509624127
0.432000000000000273,-13.918579671414821775
0.433000000000000274,-13.769215799207534801
0.434000000000000274,-13.621092970128648503
0.435000000000000275,-13.474232278774536553
0.436000000000000276,-13.328653797594114394
0.437000000000000277,-13.184376582468365413
0.438000000000000278,-13.041418679317889229
0.439000000000000279,-12.899797131684584528
0.440000000000000280,-12.759527989234852541
0.441000000000000281,-12.620626317133224248
0.442000000000000282,-12.483106206236074698
0.443000000000000282,-12.346980784056535541
0.444000000000000283,-12.212262226453024283
0.445000000000000284,-12.078961769994922548
0.446000000000000285,-11.947089724960125778
0.447000000000000286,-11.816655488920925876
0.448000000000000287,-11.687667560875214079
0.449000000000000288,-11.560133555882080358
0.450000000000000289,-11.434060220161523347
0.451000000000000290,-11.309453446619574635
0.452000000000000290,-11.186318290761434469
0.453000000000000291,-11.064658986956292352
0.454000000000000292,-10.944478965018934247
0.455000000000000293,-10.825780867074314529
0.456000000000000294,-10.708566564672747035
0.457000000000000295,-10.592837176124215048
0.458000000000000296,-10.478593084021920134
0.459000000000000297,-10.365833952926028161
0.460000000000000298,-10.254558747179853384
0.461000000000000298,-10.144765748832011099
0.462000000000000299,-10.036452575638911355
0.463000000000000300,-9.929616199123236342
0.464000000000000301,-9.824252962665200428
0.465000000000000302,-9.720358599604271177
0.466000000000000303,-9.617928251330145173
0.467000000000000304,-9.516956485342763727
0.468000000000000305,-9.417437313262313481
0.469000000000000306,-9.319364208770711144
0.470000000000000306,-9.222730125467615281
0.471000000000000307,-9.127527514624203420
0.472000000000000308,-9.033748342819599486
0.473000000000000309,-8.941384109445031925
0.474000000000000310,-8.850425864062172465
0.475000000000000311,-8.760864223602489176
0.476000000000000312,-8.672689389395772608
0.477000000000000313,-8.585891164016018706
0.478000000000000314,-8.500458967934420684
0.479000000000000314,-8.416381855969365944
0.480000000000000315,-8.333648533524197433
0.481000000000000316,-8.252247372604335496
0.482000000000000317,-8.172166427605750627
0.483000000000000318,-8.093393450867605310
0.484000000000000319,-8.015915907982330779
0.485000000000000320,-7.939720992857290938
0.486000000000000321,-7.864795642522236285
0.487000000000000322,-7.791126551677867162
0.488000000000000322,-7.718700186980866462
0.489000000000000323,-7.647502801061679456
0.490000000000000324,-7.577520446271418741
0.491000000000000325,-7.508738988155013949
0.492000000000000326,-7.441144118647995853
0.493000000000000327,-7.374721368994881843
0.494000000000000328,-7.309456122387348209
0.495000000000000329,-7.245333626320965337
0.496000000000000330,-7.182339004669427318
0.497000000000000330,-7.120457269475787498
0.498000000000000331,-7.059673332460320694
0.499000000000000332,-6.999972016245150641
0.500000000000000333,-6.941338065295911797
0.501000000000000334,-6.883756156581182672
0.502000000000000335,-6.827210909950451878
0.503000000000000336,-6.771686898232010421
0.504000000000000337,-6.717168657051939995
0.505000000000000338,-6.663640694376003815
0.506000000000000338,-6.611087499776277632
0.507000000000000339,-6.559493553424512235
0.508000000000000340,-6.508843334814574000
0.509000000000000341,-6.459121331216349127
0.510000000000000342,-6.410312045863771679
0.511000000000000343,-6.362400005879642606
0.512000000000000344,-6.315369769940259559
0.513000000000000345,-6.269205935682831132
0.514000000000000346,-6.223893146858896053
0.515000000000000346,-6.179416100237000720
0.516000000000000347,-6.135759552258011063
0.517000000000000348,-6.092908325446705575
0.518000000000000349,-6.050847314582946446
0.519000000000000350,-6.009561492636391833
0.520000000000000351,-5.969035916468333980
0.521000000000000352,-5.929255732304457460
0.522000000000000353,-5.890206180982472617
0.523000000000000353,-5.851872602978421156
0.524000000000000354,-5.814240443215750176
0.525000000000000355,-5.777295255661025308
0.526000000000000356,-5.741022707710380146
0.527000000000000357,-5.705408584370790237
0.528000000000000358,-5.670438792240152459
0.529000000000000359,-5.636099363290332676
0.530000000000000360,-5.602376458457313468
0.531000000000000361,-5.569256371042461851
0.532000000000000361,-5.536725529929109157
0.533000000000000362,-5.504770502618510086
0.534000000000000363,-5.473377998089314467
0.535000000000000364,-5.442534869484598303
0.536000000000000365,-5.412228116630571684
0.537000000000000366,-5.382444888391008320
0.538000000000000367,-5.353172484861423719
0.539000000000000368,-5.324398359407043202
0.540000000000000369,-5.296110120548483735
0.541000000000000369,-5.268295533699192568
0.542000000000000370,-5.240942522758505362
0.543000000000000371,-5.214039171564188280
0.544000000000000372,-5.187573725208425302
0.545000000000000373,-5.161534591220918067
0.546000000000000374,-5.135910340622984016
0.547000000000000375,-5.110689708856287261
0.548000000000000376,-5.085861596590006251
0.549000000000000377,-5.061415070409950090
0.550000000000000377,-5.037339363393246394
0.551000000000000378,-5.013623875572216448
0.552000000000000379,-4.990258174290821636
0.553000000000000380,-4.967231994457191213
0.554000000000000381,-4.944535238695585200
0.555000000000000382,-4.922157977401166562
0.556000000000000383,-4.900090448700776591
0.557000000000000384,-4.878323058323066341
0.558000000000000385,-4.856846379381039469
0.559000000000000385,-4.835651152070219894
0.560000000000000386,-4.814728283285399257
0.561000000000000387,-4.794068846159085240
0.562000000000000388,-4.773664079524529313
0.563000000000000389,-4.753505387306227625
0.564000000000000390,-4.733584337840755829
0.565000000000000391,-4.713892663130721417
0.566000000000000392,-4.694422258034535389
0.567000000000000393,-4.675165179394680237
0.568000000000000393,-4.656113645107082810
0.569000000000000394,-4.637260033134156245
0.570000000000000395,-4.618596880464015619
0.571000000000000396,-4.600116882018260966
0.572000000000000397,-4.581812889510807452
0.573000000000000398,-4.563677910259984927
0.574000000000000399,-4.545705105956298731
0.575000000000000400,-4.527887791387969152
0.576000000000000401,-4.510219433126499311
0.577000000000000401,-4.492693648174362231
0.578000000000000402,-4.475304202576852575
0.579000000000000403,-4.458045010000132535
0.580000000000000404,-4.440910130277447188
0.581000000000000405,-4.423893767925397569
0.582000000000000406,-4.406990270632112683
0.583000000000000407,-4.390194127719191819
0.584000000000000408,-4.373499968579096731
0.585000000000000409,-4.356902561089776249
0.586000000000000409,-4.340396810008130934
0.587000000000000410,-4.323977755343972440
0.588000000000000411,-4.307640570716035455
0.589000000000000412,-4.291380561691539697
0.590000000000000413,-4.275193164110818955
0.591000000000000414,-4.259073942398440060
0.592000000000000415,-4.243018587862176005
0.593000000000000416,-4.227022916981209910
0.594000000000000417,-4.211082869684860341
0.595000000000000417,-4.195194507623117630
0.596000000000000418,-4.179354012430132492
0.597000000000000419,-4.163557683981977675
0.598000000000000420,-4.147801938649669395
0.599000000000000421,-4.132083307548677809
0.600000000000000422,-4.116398434785926597
0.601000000000000423,-4.100744075705322622
0.602000000000000424,-4.085117095132824616
0.603000000000000425,-4.069514465621995036
0.604000000000000425,-4.053933265700962352
0.605000000000000426,-4.038370678121667723
0.606000000000000427,-4.022823988112309124
0.607000000000000428,-4.007290581633671245
