# Ag111_METHYLFORMATE-AC
# h[nm],U(h)[kJ/mol]
0.149999999999999994,86.351204239605266366
0.150999999999999995,83.622650253506719764
0.151999999999999996,80.724936541669563894
0.152999999999999997,77.771380398170805393
0.153999999999999998,74.863447486967501732
0.154999999999999999,72.063579583739809209
0.156000000000000000,69.395543307115957532
0.157000000000000001,66.855100579490368773
0.158000000000000002,64.422354975445770719
0.159000000000000002,62.071999621637019118
0.160000000000000003,59.780313974510292496
0.161000000000000004,57.529043833593995316
0.162000000000000005,55.306825992997197261
0.163000000000000006,53.108938773681188650
0.164000000000000007,50.936082548169807183
0.165000000000000008,48.792740472349564129
0.166000000000000009,46.685503550048778720
0.167000000000000010,44.621597055099897489
0.168000000000000010,42.607729149773810207
0.169000000000000011,40.649298750955274784
0.170000000000000012,38.749944683647200350
0.171000000000000013,36.911386311527834891
0.172000000000000014,35.133491257673220787
0.173000000000000015,33.414503221299717950
0.174000000000000016,31.751367891935124987
0.175000000000000017,30.140104199081161340
0.176000000000000018,28.576179176372079382
0.177000000000000018,27.054855908080259752
0.178000000000000019,25.571494325081069121
0.179000000000000020,24.121793455435057041
0.180000000000000021,22.701970873210040480
0.181000000000000022,21.308880514763295366
0.182000000000000023,19.940073872161175217
0.183000000000000024,18.593812034833298696
0.184000000000000025,17.269037372829387778
0.185000000000000026,15.965314081641832189
0.186000000000000026,14.682746567437373386
0.187000000000000027,13.421883944283759860
0.188000000000000028,12.183617911740149964
0.189000000000000029,10.969080119790158179
0.190000000000000030,9.779543915482953764
0.191000000000000031,8.616334181013638016
0.192000000000000032,7.480747871593703913
0.193000000000000033,6.373986878745411033
0.194000000000000034,5.297104000090459230
0.195000000000000034,4.250962097463835576
0.196000000000000035,3.236205969327621723
0.197000000000000036,2.253246042609750255
0.198000000000000037,1.302252690680236302
0.199000000000000038,0.383159793207833110
0.200000000000000039,-0.504323945930786222
0.201000000000000040,-1.360697430757735304
0.202000000000000041,-2.186644827657833634
0.203000000000000042,-2.983009833010290546
0.204000000000000042,-3.750767830139021264
0.205000000000000043,-4.490997074967549629
0.206000000000000044,-5.204849900248845529
0.207000000000000045,-5.893524773683878948
0.208000000000000046,-6.558239891830474733
0.209000000000000047,-7.200208844219088355
0.210000000000000048,-7.820618744081208717
0.211000000000000049,-8.420611096026313191
0.212000000000000050,-9.001265558436800873
0.213000000000000050,-9.563586660083029045
0.214000000000000051,-10.108493446689752915
0.215000000000000052,-10.636811963617953225
0.216000000000000053,-11.149270424811209779
0.217000000000000054,-11.646496874777653829
0.218000000000000055,-12.129019118542203159
0.219000000000000056,-12.597266673007073479
0.220000000000000057,-13.051574480755030905
0.221000000000000058,-13.492188122759539937
0.222000000000000058,-13.919270268518079803
0.223000000000000059,-14.332908109630334792
0.224000000000000060,-14.733121534727521507
0.225000000000000061,-15.119871818929572882
0.226000000000000062,-15.493070618773449709
0.227000000000000063,-15.852589083030640182
0.228000000000000064,-16.198266910325020973
0.229000000000000065,-16.529921205388752981
0.230000000000000066,-16.847355006653568665
0.231000000000000066,-17.150365378264275762
0.232000000000000067,-17.438750979189126866
0.233000000000000068,-17.712319040634973533
0.234000000000000069,-17.970891700261852009
0.235000000000000070,-18.214311657598354799
0.236000000000000071,-18.442447129501747582
0.237000000000000072,-18.655196097443194958
0.238000000000000073,-18.852489849821086665
0.239000000000000073,-19.034295832437191365
0.240000000000000074,-19.200619828758753727
0.241000000000000075,-19.351507498696708609
0.242000000000000076,-19.487045310437036250
0.243000000000000077,-19.607360904457486583
0.244000000000000078,-19.712622932340767790
0.245000000000000079,-19.803040415458024626
0.246000000000000080,-19.878861670144310381
0.247000000000000081,-19.940372846721707845
0.248000000000000081,-19.987896129742992457
0.249000000000000082,-20.021787646226371749
0.250000000000000111,-20.042435127517968851
0.251000000000000112,-20.050255368839781767
0.252000000000000113,-20.045691528636915280
0.253000000000000114,-20.029210307598830809
0.254000000000000115,-20.001299044766955859
0.255000000000000115,-19.962462765510814222
0.256000000000000116,-19.913221213414566080
0.257000000000000117,-19.854105895312304852
0.258000000000000118,-19.785657165884803277
0.259000000000000119,-19.708421375422009447
0.260000000000000120,-19.622948101592999848
0.261000000000000121,-19.529787483376381374
0.262000000000000122,-19.429487672711172053
0.263000000000000123,-19.322592416947966143
0.264000000000000123,-19.209638782827806125
0.265000000000000124,-19.091155030501202106
0.266000000000000125,-18.967658644030770176
0.267000000000000126,-18.839654522901874145
0.268000000000000127,-18.707633337299753862
0.269000000000000128,-18.572070048298943590
0.270000000000000129,-18.433422592650195782
0.271000000000000130,-18.292130730538389116
0.272000000000000131,-18.148615053518792450
0.273000000000000131,-18.003276148812336288
0.274000000000000132,-17.856493915248094595
0.275000000000000133,-17.708627025376433295
0.276000000000000134,-17.560012527630927792
0.277000000000000135,-17.410965581886056697
0.278000000000000136,-17.261779321330571690
0.279000000000000137,-17.112724833247476397
0.280000000000000138,-16.964051251052769231
0.281000000000000139,-16.815985949787400244
0.282000000000000139,-16.668734837175009034
0.283000000000000140,-16.522482732342592016
0.284000000000000141,-16.377393824346629714
0.285000000000000142,-16.233612202745884900
0.286000000000000143,-16.091262452608035005
0.287000000000000144,-15.950450306523777044
0.288000000000000145,-15.811263346424720311
0.289000000000000146,-15.673771748252690372
0.290000000000000147,-15.538029062805307490
0.291000000000000147,-15.404073026379446532
0.292000000000000148,-15.271926395147286115
0.293000000000000149,-15.141597797524459779
0.294000000000000150,-15.013082599123190874
0.295000000000000151,-14.886363775222008599
0.296000000000000152,-14.761412786024099120
0.297000000000000153,-14.638190450317338787
0.298000000000000154,-14.516647813486319052
0.299000000000000155,-14.396727006160196183
0.300000000000000155,-14.278362090106719862
0.301000000000000156,-14.161479888301347074
0.302000000000000157,-14.046000796409723321
0.303000000000000158,-13.931839573220642592
0.304000000000000159,-13.818906107854228793
0.305000000000000160,-13.707106161845297621
0.306000000000000161,-13.596342084464847488
0.307000000000000162,-13.486513499892513579
0.308000000000000163,-13.377517965088717489
0.309000000000000163,-13.269251597438787016
0.310000000000000164,-13.161609671450145598
0.311000000000000165,-13.054487183979523124
0.312000000000000166,-12.947779387649791971
0.313000000000000167,-12.841382292284757582
0.314000000000000168,-12.735193134346715738
0.315000000000000169,-12.629110814504818094
0.316000000000000170,-12.523036303593869434
0.317000000000000171,-12.416873017342183516
0.318000000000000171,-12.310527160355162479
0.319000000000000172,-12.203908039938180963
0.320000000000000173,-12.096928350428566290
0.321000000000000174,-11.989504428782886691
0.322000000000000175,-11.881556482232531025
0.323000000000000176,-11.773008788878318143
0.324000000000000177,-11.663789872144054272
0.325000000000000178,-11.553832650050201991
0.326000000000000179,-11.443074560302688880
0.327000000000000179,-11.331457662218266336
0.328000000000000180,-11.218928716528157707
0.329000000000000181,-11.105439244116073638
0.330000000000000182,-10.990945564754463604
0.331000000000000183,-10.875408816907029319
0.332000000000000184,-10.758794959663479318
0.333000000000000185,-10.641074757867128753
0.334000000000000186,-10.522223751486196264
0.335000000000000187,-10.402222210266385716
0.336000000000000187,-10.281055074686225481
0.337000000000000188,-10.158711884217080268
0.338000000000000189,-10.035186693868373808
0.339000000000000190,-9.910477979974441354
0.340000000000000191,-9.784588536153497884
0.341000000000000192,-9.657525360342166465
0.342000000000000193,-9.529299533779392206
0.343000000000000194,-9.399926092784419041
0.344000000000000195,-9.269423894141594289
0.345000000000000195,-9.137815474873958621
0.346000000000000196,-9.005126907154679117
0.347000000000000197,-8.871387649073051662
0.348000000000000198,-8.736630391939103291
0.349000000000000199,-8.600890904777637402
0.350000000000000200,-8.464207876630194249
0.351000000000000201,-8.326622757250401463
0.352000000000000202,-8.188179596746241629
0.353000000000000203,-8.048924884690809023
0.354000000000000203,-7.908907389191659476
0.355000000000000204,-7.768177996378225814
0.356000000000000205,-7.626789550736586598
0.357000000000000206,-7.484796696691472739
0.358000000000000207,-7.342255721806580482
0.359000000000000208,-7.199224401946723972
0.360000000000000209,-7.055761848717994056
0.361000000000000210,-6.911928359476195105
0.362000000000000210,-6.767785270168441336
0.363000000000000211,-6.623394811248563663
0.364000000000000212,-6.478819966883579973
0.365000000000000213,-6.334124337645920200
0.366000000000000214,-6.189372006864767961
0.367000000000000215,-6.044627410789141564
0.368000000000000216,-5.899955212695888740
0.369000000000000217,-5.755420181056954299
0.370000000000000218,-5.611087071862653985
0.371000000000000218,-5.467020515180714746
0.372000000000000219,-5.323284906015059548
0.373000000000000220,-5.179944299513149275
0.374000000000000221,-5.037062310556661870
0.375000000000000222,-4.894702017756776158
0.376000000000000223,-4.752925871862986540
0.377000000000000224,-4.611795608582617945
0.378000000000000225,-4.471372165797314224
0.379000000000000226,-4.331715605152570703
0.380000000000000226,-4.192885037987105434
0.381000000000000227,-4.054938555559901125
0.382000000000000228,-3.917933163525012752
0.383000000000000229,-3.781924720596693934
0.384000000000000230,-3.646967881340551720
0.385000000000000231,-3.513116043020666268
0.386000000000000232,-3.380421296426640687
0.387000000000000233,-3.248934380599803884
0.388000000000000234,-3.118704641373210684
0.389000000000000234,-2.989779993636236366
0.390000000000000235,-2.862206887230783980
0.391000000000000236,-2.736030276383560889
0.392000000000000237,-2.611293592575682165
0.393000000000000238,-2.488038720749252253
0.394000000000000239,-2.366305978748278527
0.395000000000000240,-2.246134099890135793
0.396000000000000241,-2.127560218562547512
0.397000000000000242,-2.010619858740247512
0.398000000000000242,-1.895346925315131825
0.399000000000000243,-1.781773698133370276
0.400000000000000244,-1.669930828632890663
0.401000000000000245,-1.559847338975417275
0.402000000000000246,-1.451550623567171128
0.403000000000000247,-1.345066452863390882
0.404000000000000248,-1.240418979352847062
0.405000000000000249,-1.137630745619352179
0.406000000000000250,-1.036722694378759080
0.407000000000000250,-0.937714180391235330
0.408000000000000251,-0.840622984150171781
0.409000000000000252,-0.745465327250856569
0.410000000000000253,-0.652255889343597461
0.411000000000000254,-0.561007826578165725
0.412000000000000255,-0.471732791448097266
0.413000000000000256,-0.384440953945681951
0.414000000000000257,-0.299141023940357853
0.415000000000000258,-0.215840274695626999
0.416000000000000258,-0.134544567441617524
0.417000000000000259,-0.055258376922812748
0.418000000000000260,0.022015182157282411
0.419000000000000261,0.097274327870541799
0.420000000000000262,0.170518583051138289
0.421000000000000263,0.241748746606345433
0.422000000000000264,0.310966864220040828
0.423000000000000265,0.378176198515547290
0.424000000000000266,0.443381198741844174
0.425000000000000266,0.506587470045182009
0.426000000000000267,0.567801742385539709
0.427000000000000268,0.627031839155177018
0.428000000000000269,0.684286645554242012
0.429000000000000270,0.739576076776122693
0.430000000000000271,0.792911046053003110
0.431000000000000272,0.844303432609918580
0.432000000000000273,0.893766049573389787
0.433000000000000274,0.941312611878626804
0.434000000000000274,0.986957704217213960
0.435000000000000275,1.030716749065101911
0.436000000000000276,1.072605974828745978
0.437000000000000277,1.112642384145311247
0.438000000000000278,1.150843722370855193
0.439000000000000279,1.187228446288604911
0.440000000000000280,1.221815693067590747
0.441000000000000281,1.254625249500152417
0.442000000000000282,1.285677521544994484
0.443000000000000282,1.314993504200988594
0.444000000000000283,1.342594751735039615
0.445000000000000284,1.368503348285937227
0.446000000000000285,1.392741878864558913
0.447000000000000286,1.415333400769128058
0.448000000000000287,1.436301415433061557
0.449000000000000288,1.455669840721307118
0.450000000000000289,1.473462983689880490
0.451000000000000290,1.489705513821946603
0.452000000000000290,1.504422436752595349
0.453000000000000291,1.517639068493163323
0.454000000000000292,1.529381010164909460
0.455000000000000293,1.539674123250678095
0.456000000000000294,1.548544505372103641
0.457000000000000295,1.556018466598980909
0.458000000000000296,1.562122506296255597
0.459000000000000297,1.566883290513437332
0.460000000000000298,1.570327629920000190
0.461000000000000298,1.572482458289834684
0.462000000000000299,1.573374811536654372
0.463000000000000300,1.573031807301783047
0.464000000000000301,1.571480625094790362
0.465000000000000302,1.568748486986875523
0.466000000000000303,1.564862638856118870
0.467000000000000304,1.559850332183271959
0.468000000000000305,1.553738806395861038
0.469000000000000306,1.546555271758148775
0.470000000000000306,1.538326892803729695
0.471000000000000307,1.529080772307105818
0.472000000000000308,1.518843935790137767
0.473000000000000309,1.507643316558809454
0.474000000000000310,1.495505741265325206
0.475000000000000311,1.482457915990116559
0.476000000000000312,1.468526412838121686
0.477000000000000313,1.453737657043189246
0.478000000000000314,1.438117914574272627
0.479000000000000314,1.421693280236720147
0.480000000000000315,1.404489666261759861
0.481000000000000316,1.386532791376974050
0.482000000000000317,1.367848170350388859
0.483000000000000318,1.348461104000561406
0.484000000000000319,1.328396669664920982
0.485000000000000320,1.307679712118354765
0.486000000000000321,1.286334834934014903
0.487000000000000322,1.264386392278098015
0.488000000000000322,1.241858481130234670
0.489000000000000323,1.218774933921145998
0.490000000000000324,1.195159311578960493
0.491000000000000325,1.171034896975671202
0.492000000000000326,1.146424688765085076
0.493000000000000327,1.121351395603612078
0.494000000000000328,1.095837430745140395
0.495000000000000329,1.069904907001356431
0.496000000000000330,1.043575632058697078
0.497000000000000330,1.016871104143312721
0.498000000000000331,0.989812508025207372
0.499000000000000332,0.962420711353050296
0.500000000000000333,0.934716261310828189
0.501000000000000334,0.906719381587835271
0.502000000000000335,0.878449969653430585
0.503000000000000336,0.849927594328038660
0.504000000000000337,0.821171493641963401
0.505000000000000338,0.792200572973648431
0.506000000000000338,0.763033403459085102
0.507000000000000339,0.733688220664156843
0.508000000000000340,0.704182923511779801
0.509000000000000341,0.674535073455864831
0.510000000000000342,0.644761893894063798
0.511000000000000343,0.614880269811555746
0.512000000000000344,0.584906747648073266
0.513000000000000345,0.554857535380597455
0.514000000000000346,0.524748502814145756
0.515000000000000346,0.494595182073304773
0.516000000000000347,0.464412768287197575
0.517000000000000348,0.434216120460709842
0.518000000000000349,0.404019762524934989
0.519000000000000350,0.373837884559959976
0.520000000000000351,0.343684344183068091
0.521000000000000352,0.313572668095847829
0.522000000000000353,0.283516053783531452
0.523000000000000353,0.253527371360177667
0.524000000000000354,0.223619165553462590
0.525000000000000355,0.193803657822803344
0.526000000000000356,0.164092748604895033
0.527000000000000357,0.134498019680690667
0.528000000000000358,0.105030736658006843
0.529000000000000359,0.075701851564264497
0.530000000000000360,0.046522005543638847
0.531000000000000361,0.017501531653404890
0.532000000000000361,-0.011349542245898941
0.533000000000000362,-0.040021490511545299
0.534000000000000363,-0.068504886655994954
0.535000000000000364,-0.096790600205417104
0.536000000000000365,-0.124869793484131367
0.537000000000000366,-0.152733918329584301
0.538000000000000367,-0.180374712742400800
0.539000000000000368,-0.207784197475846449
0.540000000000000369,-0.234954672569032741
0.541000000000000369,-0.261878713827933041
0.542000000000000370,-0.288549169258324745
0.543000000000000371,-0.314959155454487938
0.544000000000000372,-0.341102053947530126
0.545000000000000373,-0.366971507516949125
0.546000000000000374,-0.392561416469084656
0.547000000000000375,-0.417865934885848223
0.548000000000000376,-0.442879466847140080
0.549000000000000377,-0.467596662630152704
0.550000000000000377,-0.492012414888746918
0.551000000000000378,-0.516121854815910441
0.552000000000000379,-0.539920348292229346
0.553000000000000380,-0.563403492023240804
0.554000000000000381,-0.586567109668375108
0.555000000000000382,-0.609407247964134702
0.556000000000000383,-0.631920172844077754
0.557000000000000384,-0.654102365558022703
0.558000000000000385,-0.675950518792883703
0.559000000000000385,-0.697461532797380879
0.560000000000000386,-0.718632511512805161
0.561000000000000387,-0.739460758711976363
0.562000000000000388,-0.759943774148385320
0.563000000000000389,-0.780079249717469780
0.564000000000000390,-0.799865065631855776
0.565000000000000391,-0.819299286612395705
0.566000000000000392,-0.838380158096656003
0.567000000000000393,-0.857106102466500985
0.568000000000000393,-0.875475715296329171
0.569000000000000394,-0.893487761623469545
0.570000000000000395,-0.911141172242096120
0.571000000000000396,-0.928435040022067781
0.572000000000000397,-0.945368616253948191
0.573000000000000398,-0.961941307021428438
0.574000000000000399,-0.978152669602294744
0.575000000000000400,-0.994002408899076428
0.576000000000000401,-1.009490373900356008
0.577000000000000401,-1.024616554173756855
0.578000000000000402,-1.039381076391537650
0.579000000000000403,-1.053784200889618550
0.580000000000000404,-1.067826318260897134
0.581000000000000405,-1.081507945983605223
0.582000000000000406,-1.094829725085403771
0.583000000000000407,-1.107792416843912386
0.584000000000000408,-1.120396899524269241
0.585000000000000409,-1.132644165154290006
0.586000000000000409,-1.144535316337791375
0.587000000000000410,-1.156071563106523259
0.588000000000000411,-1.167254219811175053
0.589000000000000412,-1.178084702051871435
0.590000000000000413,-1.188564523648500071
0.591000000000000414,-1.198695293651217852
0.592000000000000415,-1.208478713391425874
0.593000000000000416,-1.217916573573462946
0.594000000000000417,-1.227010751407266564
0.595000000000000417,-1.235763207782140993
0.596000000000000418,-1.244175984481864061
0.597000000000000419,-1.252251201441199280
0.598000000000000420,-1.259991054043951841
0.599000000000000421,-1.267397810462622676
0.600000000000000422,-1.274473809039723626
0.601000000000000423,-1.281221455710739532
0.602000000000000424,-1.287643221468773636
0.603000000000000425,-1.293741639870833016
0.604000000000000425,-1.299519304585664781
0.605000000000000426,-1.304978866983125707
0.606000000000000427,-1.310123033764954092
0.607000000000000428,-1.314954564636823697
0.608000000000000429,-1.319476270021575193
0.609000000000000430,-1.323691008813421499
0.610000000000000431,-1.327601686173013773
0.611000000000000432,-1.331211251363117132
0.612000000000000433,-1.334522695624732247
0.613000000000000433,-1.337539050093438320
