# Ag111_ISOQUINOLINE-AC
# h[nm],U(h)[kJ/mol]
0.149999999999999994,81.409505297894583009
0.150999999999999995,74.987182047300265708
0.151999999999999996,70.827163383690390219
0.152999999999999997,67.208710448360790224
0.153999999999999998,63.504067712759322717
0.154999999999999999,59.597977433658726909
0.156000000000000000,55.574589955651752859
0.157000000000000001,51.561723179119994143
0.158000000000000002,47.663849366561429122
0.159000000000000002,43.942080463729432438
0.160000000000000003,40.416606270212362517
0.161000000000000004,37.077803469055510277
0.162000000000000005,33.898806618871461183
0.163000000000000006,30.846211774941831862
0.164000000000000007,27.887764860331877514
0.165000000000000008,24.997024188634025421
0.166000000000000009,22.155502957983721046
0.167000000000000010,19.352962112534036976
0.168000000000000010,16.586503659694582069
0.169000000000000011,13.859009702265577602
0.170000000000000012,11.177340744648043724
0.171000000000000013,8.550579112144170324
0.172000000000000014,5.988494102673345587
0.173000000000000015,3.500319743979515952
0.174000000000000016,1.093873488589788057
0.175000000000000017,-1.224998001592946251
0.176000000000000018,-3.452685482109545401
0.177000000000000018,-5.587848713715565019
0.178000000000000019,-7.631269553996057553
0.179000000000000020,-9.585581010127441459
0.180000000000000021,-11.454920903103042562
0.181000000000000022,-13.244551042149868891
0.182000000000000023,-14.960474385323246693
0.183000000000000024,-16.609074429329908185
0.184000000000000025,-18.196793566312095436
0.185000000000000026,-19.729860662578179387
0.186000000000000026,-21.214072774154040246
0.187000000000000027,-22.654631716791083562
0.188000000000000028,-24.056033077079266747
0.189000000000000029,-25.422003065443519176
0.190000000000000030,-26.755477228918174148
0.191000000000000031,-28.058614314916468402
0.192000000000000032,-29.332838366112383710
0.193000000000000033,-30.578902303129364526
0.194000000000000034,-31.796966704284461258
0.195000000000000034,-32.986688125987200237
0.196000000000000035,-34.147312046660665885
0.197000000000000036,-35.277766300559214585
0.198000000000000037,-36.376751649424384993
0.199000000000000038,-37.442826885944910487
0.200000000000000039,-38.474486550439799259
0.201000000000000040,-39.470229956688733353
0.202000000000000041,-40.428620756892058807
0.203000000000000042,-41.348336727155341919
0.204000000000000042,-42.228209825410729650
0.205000000000000043,-43.067256867846865021
0.206000000000000044,-43.864701394129710366
0.207000000000000045,-44.619987453455436821
0.208000000000000046,-45.332786150811671178
0.209000000000000047,-46.002995853820451089
0.210000000000000048,-46.630736983031468412
0.211000000000000049,-47.216342299876465916
0.212000000000000050,-47.760343573407723738
0.213000000000000050,-48.263455455426921503
0.214000000000000051,-48.726557328926070056
0.215000000000000052,-49.150673821419914589
0.216000000000000053,-49.536954596534982898
0.217000000000000054,-49.886653957259227354
0.218000000000000055,-50.201110715044769961
0.219000000000000056,-50.481728702447625778
0.220000000000000057,-50.729958234652954729
0.221000000000000058,-50.947278758109533214
0.222000000000000058,-51.135182863288491717
0.223000000000000059,-51.295161783668412170
0.224000000000000060,-51.428692454596060202
0.225000000000000061,-51.537226163627622100
0.226000000000000062,-51.622178788132615068
0.227000000000000063,-51.684922586028150704
0.228000000000000064,-51.726779481120935600
0.229000000000000065,-51.749015765220974572
0.230000000000000066,-51.752838124478934390
0.231000000000000066,-51.739390886799256464
0.232000000000000067,-51.709754380203399649
0.233000000000000068,-51.664944288183576759
0.234000000000000069,-51.605911886943417244
0.235000000000000070,-51.533545050535749965
0.236000000000000071,-51.448669912881868527
0.237000000000000072,-51.352053080130119156
0.238000000000000073,-51.244404292450006722
0.239000000000000073,-51.126379440873257920
0.240000000000000074,-50.998583851924273347
0.241000000000000075,-50.861575760304660321
0.242000000000000076,-50.715869897616101980
0.243000000000000077,-50.561941132861683457
0.244000000000000078,-50.400228108118717785
0.245000000000000079,-50.231136820216860883
0.246000000000000080,-50.055044106394873893
0.247000000000000081,-49.872300998678717576
0.248000000000000081,-49.683235918073066273
0.249000000000000082,-49.488157685549687415
0.250000000000000111,-49.287358332232365399
0.251000000000000112,-49.081115696101349499
0.252000000000000113,-48.869695796978845692
0.253000000000000114,-48.653354985506723551
0.254000000000000115,-48.432341865312807272
0.255000000000000115,-48.206898990592073062
0.256000000000000116,-47.977264343932247925
0.257000000000000117,-47.743672601411624612
0.258000000000000118,-47.506356193818874090
0.259000000000000119,-47.265546174318892270
0.260000000000000120,-47.021472904044181007
0.261000000000000121,-46.774366567956391805
0.262000000000000122,-46.524457533928050168
0.263000000000000123,-46.271976568366312677
0.264000000000000123,-46.017154921867287953
0.265000000000000124,-45.760224298375902663
0.266000000000000125,-45.501416721157681877
0.267000000000000126,-45.240964308587038545
0.268000000000000127,-44.979098972343706464
0.269000000000000128,-44.716052050104117654
0.270000000000000129,-44.452053884235446901
0.271000000000000130,-44.187333357363783648
0.272000000000000131,-43.922117395007603591
0.273000000000000131,-43.656630444758931731
0.274000000000000132,-43.391093940765792070
0.275000000000000133,-43.125725761534752678
0.276000000000000134,-42.860739688336394693
0.277000000000000135,-42.596344870770884938
0.278000000000000136,-42.332745305339543052
0.279000000000000137,-42.070139332177411973
0.280000000000000138,-41.808719154437206100
0.281000000000000139,-41.548670384177981418
0.282000000000000139,-41.290171618007626364
0.283000000000000140,-41.033394045157265850
0.284000000000000141,-40.778501090130291118
0.285000000000000142,-40.525648091569919984
0.286000000000000143,-40.274982018526927163
0.287000000000000144,-40.026641224883526604
0.288000000000000145,-39.780755242301481189
0.289000000000000146,-39.537444611709005926
0.290000000000000147,-39.296820753023354200
0.291000000000000147,-39.058985872521979843
0.292000000000000148,-38.824032907024225381
0.293000000000000149,-38.592045503824252251
0.294000000000000150,-38.363098035126213858
0.295000000000000151,-38.137255645568941986
0.296000000000000152,-37.914574331291461817
0.297000000000000153,-37.695101048878349559
0.298000000000000154,-37.478873852434631431
0.299000000000000155,-37.265922056971731990
0.300000000000000155,-37.056266426237428391
0.301000000000000156,-36.849919383091545910
0.302000000000000157,-36.646885240514087911
0.303000000000000158,-36.447160451332543118
0.304000000000000159,-36.250733874767647080
0.305000000000000160,-36.057587057921359985
0.306000000000000161,-35.867694530365291428
0.307000000000000162,-35.681024110032367958
0.308000000000000163,-35.497537218664888314
0.309000000000000163,-35.317189205131633400
0.310000000000000164,-35.139929674989524244
0.311000000000000165,-34.965702824734663068
0.312000000000000166,-34.794447779259243703
0.313000000000000167,-34.626098931106426448
0.314000000000000168,-34.460586280192238462
0.315000000000000169,-34.297835772742537586
0.316000000000000170,-34.137769638272438044
0.317000000000000171,-33.980306723515624867
0.318000000000000171,-33.825362822289989140
0.319000000000000172,-33.672851000365390917
0.320000000000000173,-33.522681914476535781
0.321000000000000174,-33.374764124700107004
0.322000000000000175,-33.229004399489809884
0.323000000000000176,-33.085308012735168859
0.324000000000000177,-32.943579032279657781
0.325000000000000178,-32.803720599401486879
0.326000000000000179,-32.665635198825341945
0.327000000000000179,-32.529224918894826146
0.328000000000000180,-32.394391701595409927
0.329000000000000181,-32.261037582173557325
0.330000000000000182,-32.129064918151151176
0.331000000000000183,-31.998376607584948061
0.332000000000000184,-31.868876296467867348
0.333000000000000185,-31.740468575213867553
0.334000000000000186,-31.613059164209289520
0.335000000000000187,-31.486555088452462314
0.336000000000000187,-31.360864841339139986
0.337000000000000188,-31.235898537684192888
0.338000000000000189,-31.111568056100747270
0.339000000000000190,-30.987787170885503940
0.340000000000000191,-30.864471673583750544
0.341000000000000192,-30.741539484431587681
0.342000000000000193,-30.618910753891867671
0.343000000000000194,-30.496507954519831429
0.344000000000000195,-30.374255963409531489
0.345000000000000195,-30.252082135487150083
0.346000000000000196,-30.129916367928551324
0.347000000000000197,-30.007691155989270726
0.348000000000000198,-29.885341640543686026
0.349000000000000199,-29.762805647636639605
0.350000000000000200,-29.640023720356861503
0.351000000000000201,-29.516939143345080510
0.352000000000000202,-29.393497960252386036
0.353000000000000203,-29.269648984466208219
0.354000000000000203,-29.145343803421248197
0.355000000000000204,-29.020536776811873381
0.356000000000000205,-28.895185029021167367
0.357000000000000206,-28.769248436078800779
0.358000000000000207,-28.642689607456297551
0.359000000000000208,-28.515473863004949351
0.360000000000000209,-28.387569205335523748
0.361000000000000210,-28.258946287934509911
0.362000000000000210,-28.129578379305144153
0.363000000000000211,-27.999441323414949068
0.364000000000000212,-27.868513496725107359
0.365000000000000213,-27.736775762069044049
0.366000000000000214,-27.604211419640712677
0.367000000000000215,-27.470806155344881461
0.368000000000000216,-27.336547986753732431
0.369000000000000217,-27.201427206906078737
0.370000000000000218,-27.065436326176943282
0.371000000000000218,-26.928570012436956915
0.372000000000000219,-26.790825029712472372
0.373000000000000220,-26.652200175548919958
0.374000000000000221,-26.512696217271184196
0.375000000000000222,-26.372315827326428206
0.376000000000000223,-26.231063517886440195
0.377000000000000224,-26.088945574877964617
0.378000000000000225,-25.945969991601465665
0.379000000000000226,-25.802146402090311739
0.380000000000000226,-25.657486014354912385
0.381000000000000227,-25.512001543647368607
0.382000000000000228,-25.365707145875891371
0.383000000000000229,-25.218618351289443069
0.384000000000000230,-25.070751998546164430
0.385000000000000231,-24.922126169272228680
0.386000000000000232,-24.772760123210108674
0.387000000000000233,-24.622674234048997022
0.388000000000000234,-24.471889926023063566
0.389000000000000234,-24.320429611357376132
0.390000000000000235,-24.168316628634364918
0.391000000000000236,-24.015575182148655387
0.392000000000000237,-23.862230282311298168
0.393000000000000238,-23.708307687160033339
0.394000000000000239,-23.553833845025668126
0.395000000000000240,-23.398835838400657394
0.396000000000000241,-23.243341329050281274
0.397000000000000242,-23.087378504402405355
0.398000000000000242,-22.930976025247581163
0.399000000000000243,-22.774162974776352542
0.400000000000000244,-22.616968808977141236
0.401000000000000245,-22.459423308413956732
0.402000000000000246,-22.301556531399533867
0.403000000000000247,-22.143398768575782043
0.404000000000000248,-21.984980498910690727
0.405000000000000249,-21.826332347117105570
0.406000000000000250,-21.667485042496188896
0.407000000000000250,-21.508469379205507721
0.408000000000000251,-21.349316177949098972
0.409000000000000252,-21.190056249084470608
0.410000000000000253,-21.030720357139024657
0.411000000000000254,-20.871339186726615367
0.412000000000000255,-20.711943309852525630
0.413000000000000256,-20.552563154593698869
0.414000000000000257,-20.393228975139017223
0.415000000000000258,-20.233970823173230258
0.416000000000000258,-20.074818520586255488
0.417000000000000259,-19.915801633488541711
0.418000000000000260,-19.756949447512027973
0.419000000000000261,-19.598290944374646472
0.420000000000000262,-19.439854779686093877
0.421000000000000263,-19.281669261971039475
0.422000000000000264,-19.123762332885362980
0.423000000000000265,-18.966161548600457110
0.424000000000000266,-18.808894062329908792
0.425000000000000266,-18.651986607972240506
0.426000000000000267,-18.495465484843073511
0.427000000000000268,-18.339356543469655492
0.428000000000000269,-18.183685172420439358
0.429000000000000270,-18.028476286142129936
0.430000000000000271,-17.873754313776277769
0.431000000000000272,-17.719543188927737276
0.432000000000000273,-17.565866340356929953
0.433000000000000274,-17.412746683568066430
0.434000000000000274,-17.260206613265214770
0.435000000000000275,-17.108267996648677922
0.436000000000000276,-16.956952167523908770
0.437000000000000277,-16.806279921195216076
0.438000000000000278,-16.656271510117360179
0.439000000000000279,-16.506946640277774918
0.440000000000000280,-16.358324468282553710
0.441000000000000281,-16.210423599119948790
0.442000000000000282,-16.063262084575118394
0.443000000000000282,-15.916857422270322076
0.444000000000000283,-15.771226555305258188
0.445000000000000284,-15.626385872472505767
0.446000000000000285,-15.482351209023377692
0.447000000000000286,-15.339137847960333971
0.448000000000000287,-15.196760521831853552
0.449000000000000288,-15.055233415006933129
0.450000000000000289,-14.914570166406168283
0.451000000000000290,-14.774783872667265783
0.452000000000000290,-14.635887091723200015
0.453000000000000291,-14.497891846771670643
0.454000000000000292,-14.360809630615216648
0.455000000000000293,-14.224651410351460967
0.456000000000000294,-14.089427632394063039
0.457000000000000295,-13.955148227804809125
0.458000000000000296,-13.821822617918360976
0.459000000000000297,-13.689459720241291762
0.460000000000000298,-13.558067954607784245
0.461000000000000298,-13.427655249574758756
0.462000000000000299,-13.298229049039843375
0.463000000000000300,-13.169796319065889989
0.464000000000000301,-13.042363554896443389
0.465000000000000302,-12.915936788147089231
0.466000000000000303,-12.790521594157853613
0.467000000000000304,-12.666123099492478943
0.468000000000000305,-12.542745989571113086
0.469000000000000306,-12.420394516422884834
0.470000000000000306,-12.299072506545916994
0.471000000000000307,-12.178783368862140080
0.472000000000000308,-12.059530102755571690
0.473000000000000309,-11.941315306182127998
0.474000000000000310,-11.824141183840543690
0.475000000000000311,-11.708009555393442014
0.476000000000000312,-11.592921863729003462
0.477000000000000313,-11.478879183252947982
0.478000000000000314,-11.365882228202142556
0.479000000000000314,-11.253931360970646836
0.480000000000000315,-11.143026600439821294
0.481000000000000316,-11.033167630304477669
0.482000000000000317,-10.924353807387230830
0.483000000000000318,-10.816584169933850745
0.484000000000000319,-10.709857445882430937
0.485000000000000320,-10.604172061099996327
0.486000000000000321,-10.499526147579922863
0.487000000000000322,-10.395917551594431316
0.488000000000000322,-10.293343841796268379
0.489000000000000323,-10.191802317264471611
0.490000000000000324,-10.091290015488890930
0.491000000000000325,-9.991803720288878310
0.492000000000000326,-9.893339969661514743
0.493000000000000327,-9.795895063555327908
0.494000000000000328,-9.699465071565329666
0.495000000000000329,-9.604045840545918367
0.496000000000000330,-9.509633002137965363
0.497000000000000330,-9.416221980207058806
0.498000000000000331,-9.323807998189796109
0.499000000000000332,-9.232386086345494292
0.500000000000000333,-9.141951088910644785
0.501000000000000334,-9.052497671153917125
0.502000000000000335,-8.964020326329436017
0.503000000000000336,-8.876513382526598051
0.504000000000000337,-8.789971009414433212
0.505000000000000338,-8.704387224879157614
0.506000000000000338,-8.619755901553391553
0.507000000000000339,-8.536070773235829634
0.508000000000000340,-8.453325441200338020
0.509000000000000341,-8.371513380393505344
0.510000000000000342,-8.290627945519890574
0.511000000000000343,-8.210662377014319446
0.512000000000000344,-8.131609806900735649
0.513000000000000345,-8.053463264537219501
0.514000000000000346,-7.976215682246946770
0.515000000000000346,-7.899859900834911741
0.516000000000000347,-7.824388674990375492
0.517000000000000348,-7.749794678575250728
0.518000000000000349,-7.676070509798333497
0.519000000000000350,-7.603208696275960854
0.520000000000000351,-7.531201699979256148
0.521000000000000352,-7.460041922068486819
0.522000000000000353,-7.389721707615045432
0.523000000000000353,-7.320233350211658774
0.524000000000000354,-7.251569096471594200
0.525000000000000355,-7.183721150417428092
0.526000000000000356,-7.116681677760392510
0.527000000000000357,-7.050442810071091415
0.528000000000000358,-6.984996648842437317
0.529000000000000359,-6.920335269445956783
0.530000000000000360,-6.856450724982397382
0.531000000000000361,-6.793335050027748068
0.532000000000000361,-6.730980264275773450
0.533000000000000362,-6.669378376078279658
0.534000000000000363,-6.608521385884311705
0.535000000000000364,-6.548401289579440565
0.536000000000000365,-6.489010081726521939
0.537000000000000366,-6.430339758709176401
0.538000000000000367,-6.372382321779274328
0.539000000000000368,-6.315129780009899108
0.540000000000000369,-6.258574153154990327
0.541000000000000369,-6.202707474417225697
0.542000000000000370,-6.147521793125439338
0.543000000000000371,-6.093009177323030379
0.544000000000000372,-6.039161716268841573
0.545000000000000373,-5.985971522851877502
0.546000000000000374,-5.933430735921386479
0.547000000000000375,-5.881531522533693490
0.548000000000000376,-5.830266080117401550
0.549000000000000377,-5.779626638558261753
0.550000000000000377,-5.729605462205258348
0.551000000000000378,-5.680194851799459599
0.552000000000000379,-5.631387146326995108
0.553000000000000380,-5.583174724797712152
0.554000000000000381,-5.535550007950949869
0.555000000000000382,-5.488505459889942983
0.556000000000000383,-5.442033589646252167
0.557000000000000384,-5.396126952675746935
0.558000000000000385,-5.350778152287563927
0.559000000000000385,-5.305979841007489206
0.560000000000000386,-5.261724721877174105
0.561000000000000387,-5.218005549690674982
0.562000000000000388,-5.174815132169680254
0.563000000000000389,-5.132146331078805801
0.564000000000000390,-5.089992063282438473
0.565000000000000391,-5.048345301744423530
0.566000000000000392,-5.007199076471988697
0.567000000000000393,-4.966546475405311689
0.568000000000000393,-4.926380645253948032
0.569000000000000394,-4.886694792281563338
0.570000000000000395,-4.847482183040248138
0.571000000000000396,-4.808736145055624078
0.572000000000000397,-4.770450067464160782
0.573000000000000398,-4.732617401603828711
0.574000000000000399,-4.695231661559446934
0.575000000000000400,-4.658286424663856451
0.576000000000000401,-4.621775331956182953
0.577000000000000401,-4.585692088598383620
0.578000000000000402,-4.550030464251237028
0.579000000000000403,-4.514784293410905924
0.580000000000000404,-4.479947475707287907
0.581000000000000405,-4.445513976165212711
0.582000000000000406,-4.411477825429580335
0.583000000000000407,-4.377833119955598207
0.584000000000000408,-4.344574022165101468
0.585000000000000409,-4.311694760570061291
0.586000000000000409,-4.279189629864272426
0.587000000000000410,-4.247052990984273357
0.588000000000000411,-4.215279271140457418
0.589000000000000412,-4.183862963819353631
0.590000000000000413,-4.152798628758058719
0.591000000000000414,-4.122080891891734211
0.592000000000000415,-4.091704445275099467
0.593000000000000416,-4.061664046978814113
0.594000000000000417,-4.031954520961652300
0.595000000000000417,-4.002570756919324069
0.596000000000000418,-3.973507710110771196
0.597000000000000419,-3.944760401162826557
0.598000000000000420,-3.916323915853967552
0.599000000000000421,-3.888193404878054427
0.600000000000000422,-3.860364083588735618
0.601000000000000423,-3.832831231725378984
0.602000000000000424,-3.805590193121170639
0.603000000000000425,-3.778636375394208269
0.604000000000000425,-3.751965249622231990
0.605000000000000426,-3.725572350001706390
