# AuFCC100-Ablate5_NULLCHEM
# h[nm],U(h)[kJ/mol]
0.149999999999999994,68.342957311474677340
0.150999999999999995,68.115309335923257095
0.151999999999999996,66.642537518096517601
0.152999999999999997,64.902861294504333500
0.153999999999999998,63.281546103567336559
0.154999999999999999,61.869749245178525143
0.156000000000000000,60.632896579485034749
0.157000000000000001,59.499481591228743582
0.158000000000000002,58.403008071344785890
0.159000000000000002,57.297679912737031316
0.160000000000000003,56.160466718753831117
0.161000000000000004,54.987010059447484878
0.162000000000000005,53.785558732368848212
0.163000000000000006,52.571096420518756531
0.164000000000000007,51.360617452182609100
0.165000000000000008,50.169822261501437310
0.166000000000000009,49.011147268764155172
0.167000000000000010,47.892884803391545745
0.168000000000000010,46.819103535021575624
0.169000000000000011,45.790095560332517266
0.170000000000000012,44.803120187735153479
0.171000000000000013,43.853267358041485124
0.172000000000000014,42.934314944814403248
0.173000000000000015,42.039498693925686723
0.174000000000000016,41.162149341167008743
0.175000000000000017,40.296178400848411627
0.176000000000000018,39.436413127834349268
0.177000000000000018,38.578793521280331902
0.178000000000000019,37.720451356730521297
0.179000000000000020,36.859694416606465950
0.180000000000000021,35.995919478629865296
0.181000000000000022,35.129476156161118183
0.182000000000000023,34.261501101601112396
0.183000000000000024,33.393738939430761548
0.184000000000000025,32.528362988884211404
0.185000000000000026,31.667805640044576876
0.186000000000000026,30.814605333461191350
0.187000000000000027,29.971274558271282729
0.188000000000000028,29.140191167693565433
0.189000000000000029,28.323513615161949986
0.190000000000000030,27.523119415097529128
0.191000000000000031,26.740565189617093722
0.192000000000000032,25.977066028547017851
0.193000000000000033,25.233491514493458396
0.194000000000000034,24.510375598013862231
0.195000000000000034,23.807937504161628794
0.196000000000000035,23.126110969697403874
0.197000000000000036,22.464579314428299028
0.198000000000000037,21.822814110463692572
0.199000000000000038,21.200115505139855543
0.200000000000000039,20.595652557499306567
0.201000000000000040,20.008502249569328768
0.202000000000000041,19.437686121250798976
0.203000000000000042,18.882203743718111610
0.204000000000000042,18.341062485906693524
0.205000000000000043,17.813303239216203622
0.206000000000000044,17.298021946012831052
0.207000000000000045,16.794386928235031320
0.208000000000000046,16.301652134723745746
0.209000000000000047,15.819166521821420801
0.210000000000000048,15.346379853754834599
0.211000000000000049,14.882845260018701339
0.212000000000000050,14.428218919177425050
0.213000000000000050,13.982257254945130498
0.214000000000000051,13.544812033716894462
0.215000000000000052,13.115823745365275954
0.216000000000000053,12.695313633335354453
0.217000000000000054,12.283374717884800731
0.218000000000000055,11.880162129502600976
0.219000000000000056,11.485883039639611880
0.220000000000000057,11.100786444205079206
0.221000000000000058,10.725153022921116275
0.222000000000000058,10.359285265470800752
0.223000000000000059,10.003498024141276090
0.224000000000000060,9.658109622898512825
0.225000000000000061,9.323433624945725029
0.226000000000000062,8.999771335098682101
0.227000000000000063,8.687405089940256175
0.228000000000000064,8.386592367789157620
0.229000000000000065,8.097560732054898125
0.230000000000000066,7.820503605519556700
0.231000000000000066,7.555576859404363965
0.232000000000000067,7.302896189631080226
0.233000000000000068,7.062535243332876966
0.234000000000000069,6.834524451249525789
0.235000000000000070,6.618850515987619865
0.236000000000000071,6.415456502064929900
0.237000000000000072,6.224242471013987199
0.238000000000000073,6.045066603422951879
0.239000000000000073,5.877746749476581378
0.240000000000000074,5.722062350168684475
0.241000000000000075,5.577756672744282440
0.242000000000000076,5.444539305956483943
0.243000000000000077,5.322088863265625136
0.244000000000000078,5.210055845052390389
0.245000000000000079,5.108065614160915757
0.246000000000000080,5.015721442541031472
0.247000000000000081,4.932607590341548942
0.248000000000000081,4.858292382449805658
0.249000000000000082,4.792331251116726420
0.250000000000000111,4.734269716901555292
0.251000000000000112,4.683646283674276489
0.252000000000000113,4.639995226792168026
0.253000000000000114,4.602849256793462018
0.254000000000000115,4.571742044003491046
0.255000000000000115,4.546210592313110865
0.256000000000000116,4.525797453053391095
0.257000000000000117,4.510052772349475880
0.258000000000000118,4.498536167586749457
0.259000000000000119,4.490818430664512917
0.260000000000000120,4.486483057549152775
0.261000000000000121,4.485127605276034934
0.262000000000000122,4.486364878992835870
0.263000000000000123,4.489823952896470516
0.264000000000000123,4.495151029999052028
0.265000000000000124,4.502010146577024585
0.266000000000000125,4.510083727921033514
0.267000000000000126,4.519073002624518054
0.268000000000000127,4.528698283136511904
0.269000000000000128,4.538699120670495191
0.270000000000000129,4.548834342816900467
0.271000000000000130,4.558881982363173435
0.272000000000000131,4.568639105891662666
0.273000000000000131,4.577921550713130117
0.274000000000000132,4.586563578610569181
0.275000000000000133,4.594417454724081473
0.276000000000000134,4.601352959710832025
0.277000000000000135,4.607256843072405239
0.278000000000000136,4.612032225262607810
0.279000000000000137,4.615597955878572023
0.280000000000000138,4.617887934902982217
0.281000000000000139,4.618850403611210353
0.282000000000000139,4.618447211388928331
0.283000000000000140,4.616653064328187561
0.284000000000000141,4.613454761086970279
0.285000000000000142,4.608850421112551388
0.286000000000000143,4.602848709945886796
0.287000000000000144,4.595468065945468084
0.288000000000000145,4.586735932396949877
0.289000000000000146,4.576687998611840946
0.290000000000000147,4.565367453265854358
0.291000000000000147,4.552824252887219814
0.292000000000000148,4.539114408077931095
0.293000000000000149,4.524299289738057617
0.294000000000000150,4.508444957265309583
0.295000000000000151,4.491621510419371077
0.296000000000000152,4.473902466274035206
0.297000000000000153,4.455364162429261476
0.298000000000000154,4.436085187420777842
0.299000000000000155,4.416145839046055066
0.300000000000000155,4.395627611122483458
0.301000000000000156,4.374612709006208355
0.302000000000000157,4.353183594027548509
0.303000000000000158,4.331422556841358684
0.304000000000000159,4.309411319546977204
0.305000000000000160,4.287230666302768611
0.306000000000000161,4.264960102043285239
0.307000000000000162,4.242677538802833936
0.308000000000000163,4.220459009056949817
0.309000000000000163,4.198378405411956393
0.310000000000000164,4.176507245902424614
0.311000000000000165,4.154914464095765148
0.312000000000000166,4.133666223152092201
0.313000000000000167,4.112825752945059143
0.314000000000000168,4.092453209315240592
0.315000000000000169,4.072605554500841940
0.316000000000000170,4.053336457770894796
0.317000000000000171,4.034696215272756348
0.318000000000000171,4.016731688098417408
0.319000000000000172,3.999486257571916781
0.320000000000000173,3.982999796763153633
0.321000000000000174,3.967308657240501191
0.322000000000000175,3.952445670085794838
0.323000000000000176,3.938440160209959906
0.324000000000000177,3.925317973025365781
0.325000000000000178,3.913101512551483641
0.326000000000000179,3.901809790053373028
0.327000000000000179,3.891458482337501579
0.328000000000000180,3.882059998856195016
0.329000000000000181,3.873623556799984158
0.330000000000000182,3.866155263386836793
0.331000000000000183,3.859658204587207653
0.332000000000000184,3.854132539555187087
0.333000000000000185,3.849575600067361769
0.334000000000000186,3.845981994303018237
0.335000000000000187,3.843343714331239003
0.336000000000000187,3.841650246702476235
0.337000000000000188,3.840888685574096684
0.338000000000000189,3.841043847830858393
0.339000000000000190,3.842098389692555571
0.340000000000000191,3.844032924331761247
0.341000000000000192,3.846826140054588450
0.342000000000000193,3.850454918627050027
0.343000000000000194,3.854894453358058026
0.344000000000000195,3.860118366578356497
0.345000000000000195,3.866098826181503689
0.346000000000000196,3.872806660919418498
0.347000000000000197,3.880211474170401686
0.348000000000000198,3.888281755921732863
0.349000000000000199,3.896984992732685615
0.350000000000000200,3.906287775466066758
0.351000000000000201,3.916155904598105586
0.352000000000000202,3.926554492936989327
0.353000000000000203,3.937448065599955527
0.354000000000000203,3.948800657117572221
0.355000000000000204,3.960575905551423581
0.356000000000000205,3.972737143528230597
0.357000000000000206,3.985247486109273041
0.358000000000000207,3.998069915428858145
0.359000000000000208,4.011167362049677720
0.360000000000000209,4.024502782995966754
0.361000000000000210,4.038039236437861668
0.362000000000000210,4.051739953011680662
0.363000000000000211,4.065568403771735007
0.364000000000000212,4.079488364779116694
0.365000000000000213,4.093463978342185783
0.366000000000000214,4.107459810931969102
0.367000000000000215,4.121440907803494369
0.368000000000000216,4.135372844361232758
0.369000000000000217,4.149221774313414990
0.370000000000000218,4.162954474665832905
0.371000000000000218,4.176538387611229197
0.372000000000000219,4.189941659375016947
0.373000000000000220,4.203133176082590516
0.374000000000000221,4.216082596717061648
0.375000000000000222,4.228760383239819731
0.376000000000000223,4.241137827949050809
0.377000000000000224,4.253187078153926493
0.378000000000000225,4.264881158244233639
0.379000000000000226,4.276193989236979576
0.380000000000000226,4.287100405882810605
0.381000000000000227,4.297576171416276125
0.382000000000000228,4.307597990034596869
0.383000000000000229,4.317143517190129565
0.384000000000000230,4.326191367781984098
0.385000000000000231,4.334721122332130250
0.386000000000000232,4.342713331231152551
0.387000000000000233,4.350149517138328648
0.388000000000000234,4.357012175620083028
0.389000000000000234,4.363284774109998487
0.390000000000000235,4.368951749272683927
0.391000000000000236,4.373998502852534997
0.392000000000000237,4.378411396087345864
0.393000000000000238,4.382177742765202666
0.394000000000000239,4.385285801001714390
0.395000000000000240,4.387724763813025675
0.396000000000000241,4.389484748558428073
0.397000000000000242,4.390556785324656097
0.398000000000000242,4.390932804322150496
0.399000000000000243,4.390605622361771765
0.400000000000000244,4.389568928478579046
0.401000000000000245,4.387817268767259193
0.402000000000000246,4.385346030492027758
0.403000000000000247,4.382151425531701783
0.404000000000000248,4.378230473218731156
0.405000000000000249,4.373580982628981317
0.406000000000000250,4.368201534377067041
0.407000000000000250,4.362091461970025286
0.408000000000000251,4.355250832770150460
0.409000000000000252,4.347680428615847248
0.410000000000000253,4.339381726147374607
0.411000000000000254,4.330356876882428097
0.412000000000000255,4.320608687084630972
0.413000000000000256,4.310140597466007861
0.414000000000000257,4.298956662762799752
0.415000000000000258,4.287061531222002841
0.416000000000000258,4.274460424034336015
0.417000000000000259,4.261159114747480992
0.418000000000000260,4.247163908691790724
0.419000000000000261,4.232481622448911018
0.420000000000000262,4.217119563392157211
0.421000000000000263,4.201085509325842793
0.422000000000000264,4.184387688249234571
0.423000000000000265,4.167034758269223538
0.424000000000000266,4.149035787684363541
0.425000000000000266,4.130400235261497244
0.426000000000000267,4.111137930724729550
0.427000000000000268,4.091259055475258144
0.428000000000000269,4.070774123559148805
0.429000000000000270,4.049693962898984978
0.430000000000000271,4.028029696804003024
0.431000000000000272,4.005792725772232998
0.432000000000000273,3.982994709596977767
0.433000000000000274,3.959647549788877452
0.434000000000000274,3.935763372323744846
0.435000000000000275,3.911354510725416844
0.436000000000000276,3.886433489491810001
0.437000000000000277,3.861013007871457514
0.438000000000000278,3.835105923997000676
0.439000000000000279,3.808725239381133498
0.440000000000000280,3.781884083779774475
0.441000000000000281,3.754595700426455185
0.442000000000000282,3.726873431641108958
0.443000000000000282,3.698730704815867742
0.444000000000000283,3.670181018779660409
0.445000000000000284,3.641237930542891466
0.446000000000000285,3.611915042422806810
0.447000000000000286,3.582225989549631784
0.448000000000000287,3.552184427752962392
0.449000000000000288,3.521804021827484199
0.450000000000000289,3.491098434176500120
0.451000000000000290,3.460081313831383731
0.452000000000000290,3.428766285844622619
0.453000000000000291,3.397166941053708200
0.454000000000000292,3.365296826212778036
0.455000000000000293,3.333169434488542748
0.456000000000000294,3.300798196316760968
0.457000000000000295,3.268196470615166938
0.458000000000000296,3.235377536348493344
0.459000000000000297,3.202354584441038376
0.460000000000000298,3.169140710031848052
0.461000000000000298,3.135748905067584857
0.462000000000000299,3.102192051227702585
0.463000000000000300,3.068482913176600047
0.464000000000000301,3.034634132137091544
0.465000000000000302,3.000658219779531066
0.466000000000000303,2.966567552420643405
0.467000000000000304,2.932374365526156712
0.468000000000000305,2.898090748511119585
0.469000000000000306,2.863728639831743639
0.470000000000000306,2.829299822362563610
0.471000000000000307,2.794815919052570319
0.472000000000000308,2.760288388854029051
0.473000000000000309,2.725728522917539198
0.474000000000000310,2.691147441047012201
0.475000000000000311,2.656556088408011718
0.476000000000000312,2.621965232483211672
0.477000000000000313,2.587385460268329052
0.478000000000000314,2.552827175702298224
0.479000000000000314,2.518300597325162204
0.480000000000000315,2.483815756157368160
0.481000000000000316,2.449382493794106885
0.482000000000000317,2.415010460708388873
0.483000000000000318,2.380709114756607736
0.484000000000000319,2.346487719880378187
0.485000000000000320,2.312355344998520579
0.486000000000000321,2.278320863083063141
0.487000000000000322,2.244392950413290677
0.488000000000000322,2.210580086001831646
0.489000000000000323,2.176890551186989597
0.490000000000000324,2.143332429385421900
0.491000000000000325,2.109913605999528041
0.492000000000000326,2.076641768473868055
0.493000000000000327,2.043524406495102141
0.494000000000000328,2.010568812329951438
0.495000000000000329,1.977782081295859085
0.496000000000000330,1.945171112359056043
0.497000000000000330,1.912742608854847148
0.498000000000000331,1.880503079325061888
0.499000000000000332,1.848458838467691434
0.500000000000000333,1.816616008193790321
0.501000000000000334,1.784980518786903003
0.502000000000000335,1.753558110160304384
0.503000000000000336,1.722354333207511745
0.504000000000000337,1.691374551241531465
0.505000000000000338,1.660623941518518221
0.506000000000000338,1.630107496841547432
0.507000000000000339,1.599830027240313202
0.508000000000000340,1.569796161722707639
0.509000000000000341,1.540010350094303870
0.510000000000000342,1.510476864841854505
0.511000000000000343,1.481199803077055011
0.512000000000000344,1.452183088536890487
0.513000000000000345,1.423430473637020688
0.514000000000000346,1.394945541574674763
0.515000000000000346,1.366731708477748830
0.516000000000000347,1.338792225596781460
0.517000000000000348,1.311130181536634964
0.518000000000000349,1.283748504524791834
0.519000000000000350,1.256649964713290712
0.520000000000000351,1.229837176511354269
0.521000000000000352,1.203312600945936506
0.522000000000000353,1.177078548047462592
0.523000000000000353,1.151137179258069576
0.524000000000000354,1.125490509859896404
0.525000000000000355,1.100140411420856168
0.526000000000000356,1.075088614255591768
0.527000000000000357,1.050336709899276411
0.528000000000000358,1.025886153592022509
0.529000000000000359,1.001738266771839747
0.530000000000000360,0.977894239573992130
0.531000000000000361,0.954355133334834571
0.532000000000000361,0.931121883098182890
0.533000000000000362,0.908195300122420002
0.534000000000000363,0.885576074386543177
0.535000000000000364,0.863264777093471602
0.536000000000000365,0.841261863169005863
0.537000000000000366,0.819567673754860615
0.538000000000000367,0.798182438694300833
0.539000000000000368,0.777106279008943468
0.540000000000000369,0.756339209365361254
0.541000000000000369,0.735881140530200595
0.542000000000000370,0.715731881812565196
0.543000000000000371,0.695891143492467168
0.544000000000000372,0.676358539234245715
0.545000000000000373,0.657133588483870046
0.546000000000000374,0.638215718849089009
0.547000000000000375,0.619604268461506513
0.548000000000000376,0.601298488319621849
0.549000000000000377,0.583297544612016217
0.550000000000000377,0.565600521019811175
0.551000000000000378,0.548206420997699562
0.552000000000000379,0.531114170032762400
0.553000000000000380,0.514322617880432986
0.554000000000000381,0.497830540776951491
0.555000000000000382,0.481636643627713301
0.556000000000000383,0.465739562170978005
0.557000000000000384,0.450137865116383651
0.558000000000000385,0.434830056257836273
0.559000000000000385,0.419814576560284369
0.560000000000000386,0.405089806220009119
0.561000000000000387,0.390654066698036151
0.562000000000000388,0.376505622726342304
0.563000000000000389,0.362642684286532568
0.564000000000000390,0.349063408560741695
0.565000000000000391,0.335765901854471305
0.566000000000000392,0.322748221491188203
0.567000000000000393,0.310008377678455238
0.568000000000000393,0.297544335345468203
0.569000000000000394,0.285354015951817364
0.570000000000000395,0.273435299267401344
0.571000000000000396,0.261786025123387778
0.572000000000000397,0.250403995134136470
0.573000000000000398,0.239286974390072432
0.574000000000000399,0.228432693121464053
0.575000000000000400,0.217838848333106488
0.576000000000000401,0.207503105409935384
0.577000000000000401,0.197423099693591397
0.578000000000000402,0.187596438029996065
0.579000000000000403,0.178020700288015199
0.580000000000000404,0.168693440849276788
0.581000000000000405,0.159612190069269744
0.582000000000000406,0.150774455709807798
0.583000000000000407,0.142177724343029277
0.584000000000000408,0.133819462727031102
0.585000000000000409,0.125697119153335202
0.586000000000000409,0.117808124766331179
0.587000000000000410,0.110149894854870395
0.588000000000000411,0.102719830116238905
0.589000000000000412,0.095515317892657367
0.590000000000000413,0.088533733380571467
0.591000000000000414,0.081772440812917596
0.592000000000000415,0.075228794614605229
0.593000000000000416,0.068900140531463538
0.594000000000000417,0.062783816732876169
0.595000000000000417,0.056877154888375449
0.596000000000000418,0.051177481218450227
0.597000000000000419,0.045682117519820278
0.598000000000000420,0.040388382165477320
0.599000000000000421,0.035293591079732400
0.600000000000000422,0.030395058688582860
0.601000000000000423,0.025690098845678223
0.602000000000000424,0.021176025734161559
0.603000000000000425,0.016850154744684452
0.604000000000000425,0.012709803329927560
0.605000000000000426,0.008752291835875513
0.606000000000000427,0.004974944310182594
0.607000000000000428,0.001375089287945863
0.608000000000000429,-0.002049939444850135
0.609000000000000430,-0.005302802109841997
0.610000000000000431,-0.008386152216502152
0.611000000000000432,-0.011302635863692767
0.612000000000000433,-0.014054891062270392
0.613000000000000433,-0.016645547078430255
0.614000000000000434,-0.019077223797445874
0.615000000000000435,-0.021352531107509610
0.616000000000000436,-0.023474068303351046
0.617000000000000437,-0.025444423509319081
0.618000000000000438,-0.027266173121595551
0.619000000000000439,-0.028941881269237836
0.620000000000000440,-0.030474099293733459
0.621000000000000441,-0.031865365246741127
