# AuFCC100-Ablate5_CYSSCA-AC
# h[nm],U(h)[kJ/mol]
0.149999999999999994,135.992991028277913301
0.150999999999999995,135.331747680900321029
0.151999999999999996,131.866727145721966963
0.152999999999999997,127.774989541879563149
0.153999999999999998,123.929338420300808821
0.154999999999999999,120.548490993021616191
0.156000000000000000,117.566432104016740823
0.157000000000000001,114.829315606702976993
0.158000000000000002,112.190009193434960366
0.159000000000000002,109.544714549367839140
0.160000000000000003,106.839104009610082358
0.161000000000000004,104.060341920100356106
0.162000000000000005,101.224282663286686557
0.163000000000000006,98.362727864046846094
0.164000000000000007,95.512969173261168976
0.165000000000000008,92.710318667762663836
0.166000000000000009,89.983518050954756973
0.167000000000000010,87.352542825098907997
0.168000000000000010,84.828197169929396182
0.169000000000000011,82.412913573277151613
0.170000000000000012,80.102256367805281911
0.171000000000000013,77.886737271848900832
0.172000000000000014,75.753659641748626541
0.173000000000000015,73.688804133479123948
0.174000000000000016,71.677846826597402696
0.175000000000000017,69.707460799072109126
0.176000000000000018,67.766095149031173150
0.177000000000000018,65.844454082190054578
0.178000000000000019,63.935715779671035364
0.179000000000000020,62.035539085076990773
0.180000000000000021,60.141908040892431586
0.181000000000000022,58.254861998856384275
0.182000000000000023,56.376154049529802137
0.183000000000000024,54.508874102065021816
0.184000000000000025,52.657066002171212915
0.185000000000000026,50.825361234166173574
0.186000000000000026,49.018645421161849640
0.187000000000000027,47.241768255612498706
0.188000000000000028,45.499302774554827522
0.189000000000000029,43.795356064140669616
0.190000000000000030,42.133430500098796756
0.191000000000000031,40.516332430044826651
0.192000000000000032,38.946123684424023281
0.193000000000000033,37.424110360886736260
0.194000000000000034,35.950862857523844696
0.195000000000000034,34.526261034717443010
0.196000000000000035,33.149558573651759730
0.197000000000000036,31.819460993059937692
0.198000000000000037,30.534212317540738724
0.199000000000000038,29.291686005307717267
0.200000000000000039,28.089476395936742392
0.201000000000000040,26.924987594812318292
0.202000000000000041,25.795517344459671705
0.203000000000000042,24.698334025138116488
0.204000000000000042,23.630745465523169457
0.205000000000000043,22.590158721660504426
0.206000000000000044,21.574130395305378016
0.207000000000000045,20.580407411071412582
0.208000000000000046,19.606958457632178039
0.209000000000000047,18.651996525350796219
0.210000000000000048,17.713993146068119700
0.211000000000000049,16.791685065941020838
0.212000000000000050,15.884074165075034557
0.213000000000000050,14.990421484173392486
0.214000000000000051,14.110236234280828072
0.215000000000000052,13.243260656385412943
0.216000000000000053,12.389451568185753771
0.217000000000000054,11.548959390290157501
0.218000000000000055,10.722105387544171862
0.219000000000000056,9.909357796623893933
0.220000000000000057,9.111307441522315642
0.221000000000000058,8.328643366665993142
0.222000000000000058,7.562128945237269306
0.223000000000000059,6.812578849566544470
0.224000000000000060,6.080837202536690356
0.225000000000000061,5.367757164833664163
0.226000000000000062,4.674182153321377875
0.227000000000000063,4.000928831309304101
0.228000000000000064,3.348771962310562511
0.229000000000000065,2.718431175170608505
0.230000000000000066,2.110559650166443202
0.231000000000000066,1.525734702695393130
0.232000000000000067,0.964450213275966917
0.233000000000000068,0.427110829483166199
0.234000000000000069,-0.085972153191063286
0.235000000000000070,-0.574583339087570755
0.236000000000000071,-1.038604327072320865
0.237000000000000072,-1.478013477957554667
0.238000000000000073,-1.892884484928134992
0.239000000000000073,-2.283383879147233397
0.240000000000000074,-2.649767602379731635
0.241000000000000075,-2.992376776234200619
0.242000000000000076,-3.311632793803661379
0.243000000000000077,-3.608031854369327274
0.244000000000000078,-3.882139055686431472
0.245000000000000079,-4.134582151435647113
0.246000000000000080,-4.366045073912870222
0.247000000000000081,-4.577261314133997061
0.248000000000000081,-4.769007243415066988
0.249000000000000082,-4.942095452296544345
0.250000000000000111,-5.097368174536463847
0.251000000000000112,-5.235690855903168739
0.252000000000000113,-5.357945919741804452
0.253000000000000114,-5.465026773836087592
0.254000000000000115,-5.557832095996964483
0.255000000000000115,-5.637260429119522520
0.256000000000000116,-5.704205110193320216
0.257000000000000117,-5.759549551945831958
0.258000000000000118,-5.804162890456285417
0.259000000000000119,-5.838896007201413774
0.260000000000000120,-5.864577929582027060
0.261000000000000121,-5.882012610020832533
0.262000000000000122,-5.891976080206259070
0.263000000000000123,-5.895213973965644172
0.264000000000000123,-5.892439409566648578
0.265000000000000124,-5.884331219944733071
0.266000000000000125,-5.871532517416117258
0.267000000000000126,-5.854649577833324514
0.268000000000000127,-5.834251027851950155
0.269000000000000128,-5.810867317976104118
0.270000000000000129,-5.784990463312448483
0.271000000000000130,-5.757074033464073537
0.272000000000000131,-5.727533372712576565
0.273000000000000131,-5.696746031546077838
0.274000000000000132,-5.665052390671677429
0.275000000000000133,-5.632756458881645223
0.276000000000000134,-5.600126826503831978
0.277000000000000135,-5.567397756640807494
0.278000000000000136,-5.534770396970911222
0.279000000000000137,-5.502414095532506266
0.280000000000000138,-5.470467804625858577
0.281000000000000139,-5.439041557730765142
0.282000000000000139,-5.408218005141518958
0.283000000000000140,-5.378053994851782704
0.284000000000000141,-5.348582186071100253
0.285000000000000142,-5.319812683613212911
0.286000000000000143,-5.291734682256035605
0.287000000000000144,-5.264318111026739189
0.288000000000000145,-5.237515268208349895
0.289000000000000146,-5.211262438688795129
0.290000000000000147,-5.185481486078038493
0.291000000000000147,-5.160081412797134170
0.292000000000000148,-5.134959882094139338
0.293000000000000149,-5.110004696661376578
0.294000000000000150,-5.085095229215674806
0.295000000000000151,-5.060103801056523132
0.296000000000000152,-5.034897005234335587
0.297000000000000153,-5.009336971543469019
0.298000000000000154,-4.983282571099840297
0.299000000000000155,-4.956590558773007693
0.300000000000000155,-4.929116652215985717
0.301000000000000156,-4.900716546674536822
0.302000000000000157,-4.871246865161309003
0.303000000000000158,-4.840566043950013331
0.304000000000000159,-4.808535153682223395
0.305000000000000160,-4.775018656684422602
0.306000000000000161,-4.739885101368547460
0.307000000000000162,-4.703007754835068610
0.308000000000000163,-4.664265175015886555
0.309000000000000163,-4.623541723886607890
0.310000000000000164,-4.580728023444703645
0.311000000000000165,-4.535721356293609396
0.312000000000000166,-4.488426012794746178
0.313000000000000167,-4.438753586850164190
0.314000000000000168,-4.386623222460423577
0.315000000000000169,-4.331961813266277161
0.316000000000000170,-4.274704157330219800
0.317000000000000171,-4.214793069446136187
0.318000000000000171,-4.152179453283613597
0.319000000000000172,-4.086822335679159757
0.320000000000000173,-4.018688865380464215
0.321000000000000174,-3.947754278533387229
0.322000000000000175,-3.874001833175567011
0.323000000000000176,-3.797422714966246282
0.324000000000000177,-3.718015916340110749
0.325000000000000178,-3.635788091224659180
0.326000000000000179,-3.550753387406823780
0.327000000000000179,-3.462933258575228823
0.328000000000000180,-3.372356258001532048
0.329000000000000181,-3.279057815757946859
0.330000000000000182,-3.183080001297692530
0.331000000000000183,-3.084471273154270055
0.332000000000000184,-2.983286217441135868
0.333000000000000185,-2.879585276758954038
0.334000000000000186,-2.773434471041874350
0.335000000000000187,-2.664905111798273829
0.336000000000000187,-2.554073511125579010
0.337000000000000188,-2.441020686802942485
0.338000000000000189,-2.325832064690853684
0.339000000000000190,-2.208597179592533433
0.340000000000000191,-2.089409375659017520
0.341000000000000192,-1.968365507348819765
0.342000000000000193,-1.845565641882377150
0.343000000000000194,-1.721112764064214984
0.344000000000000195,-1.595112484278607301
0.345000000000000195,-1.467672750400937032
0.346000000000000196,-1.338903564304247507
0.347000000000000197,-1.208916703580624530
0.348000000000000198,-1.077825449039357952
0.349000000000000199,-0.945744318487960145
0.350000000000000200,-0.812788807249357648
0.351000000000000201,-0.679075135817166275
0.352000000000000202,-0.544720005002828467
0.353000000000000203,-0.409840358881972122
0.354000000000000203,-0.274553155803338167
0.355000000000000204,-0.138975147682238342
0.356000000000000205,-0.003222667761010989
0.357000000000000206,0.132588573018175560
0.358000000000000207,0.268343680917742522
0.359000000000000208,0.403928765508666410
0.360000000000000209,0.539231116927053611
0.361000000000000210,0.674139374265099289
0.362000000000000210,0.808543685104854637
0.363000000000000211,0.942335856228032065
0.364000000000000212,1.075409495558004469
0.365000000000000213,1.207660145411410202
0.366000000000000214,1.338985407156065399
0.367000000000000215,1.469285057389847271
0.368000000000000216,1.598461155771290221
0.369000000000000217,1.726418144647460906
0.370000000000000218,1.853062940637829170
0.371000000000000218,1.978305018344875377
0.372000000000000219,2.102056486372568145
0.373000000000000220,2.224232155843401948
0.374000000000000221,2.344749601612528433
0.375000000000000222,2.463529216384919174
0.376000000000000223,2.580494257947141268
0.377000000000000224,2.695570889730537267
0.378000000000000225,2.808688214926509996
0.379000000000000226,2.919778304377863343
0.380000000000000226,3.028776218472482018
0.381000000000000227,3.135620023267199574
0.382000000000000228,3.240250801070613029
0.383000000000000229,3.342612655713666836
0.384000000000000230,3.442652712736717913
0.385000000000000231,3.540321114720378581
0.386000000000000232,3.635571011986293399
0.387000000000000233,3.728358548891841817
0.388000000000000234,3.818642845940320107
0.389000000000000234,3.906385977925300956
0.390000000000000235,3.991552948324821326
0.391000000000000236,4.074111660157159420
0.392000000000000237,4.154032883506596718
0.393000000000000238,4.231290219922986040
0.394000000000000239,4.305860063894924039
0.395000000000000240,4.377721561591660482
0.396000000000000241,4.446856567064128463
0.397000000000000242,4.513249596090650684
0.398000000000000242,4.576887777847800542
0.399000000000000243,4.637760804581779972
0.400000000000000244,4.695860879450668435
0.401000000000000245,4.751182662702074566
0.402000000000000246,4.803723216346085678
0.403000000000000247,4.853481947477543024
0.404000000000000248,4.900460550396422477
0.405000000000000249,4.944662947669813846
0.406000000000000250,4.986095230273482670
0.407000000000000250,5.024765596945707458
0.408000000000000251,5.060684292880795354
0.409000000000000252,5.093863547884289744
0.410000000000000253,5.124317514106859761
0.411000000000000254,5.152062203468463331
0.412000000000000255,5.177115424879551675
0.413000000000000256,5.199496721360821638
0.414000000000000257,5.219227307158363693
0.415000000000000258,5.236330004945960681
0.416000000000000258,5.250829183201840777
0.417000000000000259,5.262750693842272121
0.418000000000000260,5.272121810190091296
0.419000000000000261,5.278971165351746819
0.420000000000000262,5.283328691072084027
0.421000000000000263,5.285225557131976615
0.422000000000000264,5.284694111349826251
0.423000000000000265,5.281767820243990386
0.424000000000000266,5.276481210409215805
0.425000000000000266,5.268869810656684471
0.426000000000000267,5.258970094963466124
0.427000000000000268,5.246819426273705567
0.428000000000000269,5.232456001190596950
0.429000000000000270,5.215918795594886248
0.430000000000000271,5.197247511222421679
0.431000000000000272,5.176482523230429678
0.432000000000000273,5.153664828779141338
0.433000000000000274,5.128835996652658658
0.434000000000000274,5.102038117940228545
0.435000000000000275,5.073313757796634960
0.436000000000000276,5.042705908297818951
0.437000000000000277,5.010257942405530684
0.438000000000000278,4.976013569052637919
0.439000000000000279,4.940016789358502081
0.440000000000000280,4.902311853981698775
0.441000000000000281,4.862943221615720901
0.442000000000000282,4.821955518630983484
0.443000000000000282,4.779393499865194350
0.444000000000000283,4.735302010562049801
0.445000000000000284,4.689725949456968301
0.446000000000000285,4.642710233006871690
0.447000000000000286,4.594299760759728457
0.448000000000000287,4.544539381858195171
0.449000000000000288,4.493473862670477104
0.450000000000000289,4.441147855540319433
0.451000000000000290,4.387605868646995866
0.452000000000000290,4.332892236965100174
0.453000000000000291,4.277051094312997570
0.454000000000000292,4.220126346477913515
0.455000000000000293,4.162161645404781396
0.456000000000000294,4.103200364435259040
0.457000000000000295,4.043285574582618835
0.458000000000000296,3.982460021827443519
0.459000000000000297,3.920766105418734604
0.460000000000000298,3.858245857164123827
0.461000000000000298,3.794940921692867786
0.462000000000000299,3.730892537674346698
0.463000000000000300,3.666141519974838836
0.464000000000000301,3.600728242734703599
0.465000000000000302,3.534692623348029805
0.466000000000000303,3.468074107326209798
0.467000000000000304,3.400911654027146902
0.468000000000000305,3.333243723231126499
0.469000000000000306,3.265108262544566653
0.470000000000000306,3.196542695612635931
0.471000000000000307,3.127583911121544880
0.472000000000000308,3.058268252571424206
0.473000000000000309,2.988631508800531300
0.474000000000000310,2.918708905241672813
0.475000000000000311,2.848535095891441493
0.476000000000000312,2.778144155973498730
0.477000000000000313,2.707569575276389084
0.478000000000000314,2.636844252147276801
0.479000000000000314,2.566000488122496925
0.480000000000000315,2.495069983176288808
0.481000000000000316,2.424083831569043390
0.482000000000000317,2.353072518276662972
0.483000000000000318,2.282065915982737447
0.484000000000000319,2.211093282615462563
0.485000000000000320,2.140183259411438943
0.486000000000000321,2.069363869488665575
0.487000000000000322,1.998662516911302589
0.488000000000000322,1.928105986228972668
0.489000000000000323,1.857720442473728806
0.490000000000000324,1.787531431597856990
0.491000000000000325,1.717563881336177101
0.492000000000000326,1.647842102476590131
0.493000000000000327,1.578389790523039959
0.494000000000000328,1.509230027735189772
0.495000000000000329,1.440385285529531600
0.496000000000000330,1.371877427226853685
0.497000000000000330,1.303727711131283939
0.498000000000000331,1.235956793926459518
0.499000000000000332,1.168584734374724654
0.500000000000000333,1.101630997305317106
0.501000000000000334,1.035114457878130390
0.502000000000000335,0.969053406109688709
0.503000000000000336,0.903465551648446996
0.504000000000000337,0.838368028786625530
0.505000000000000338,0.773777401696347789
0.506000000000000338,0.709709669877935601
0.507000000000000339,0.646180273808581895
0.508000000000000340,0.583204100779999512
0.509000000000000341,0.520795490913839587
0.510000000000000342,0.458968243343990334
0.511000000000000343,0.397735622555186075
0.512000000000000344,0.337110364867632406
0.513000000000000345,0.277104685057682931
0.514000000000000346,0.217730283104726141
0.515000000000000346,0.158998351055008591
0.516000000000000347,0.100919579993108188
0.517000000000000348,0.043504167112227085
0.518000000000000349,-0.013238177125342121
0.519000000000000350,-0.069298221745843394
0.520000000000000351,-0.124667207947986997
0.521000000000000352,-0.179336841720885543
0.522000000000000353,-0.233299286403586548
0.523000000000000353,-0.286547155193607073
0.524000000000000354,-0.339073503611356020
0.525000000000000355,-0.390871821927471774
0.526000000000000356,-0.441936027559458933
0.527000000000000357,-0.492260457444090527
0.528000000000000358,-0.541839860391732375
0.529000000000000359,-0.590669389428261082
0.530000000000000360,-0.638744594130513987
0.531000000000000361,-0.686061412960514483
0.532000000000000361,-0.732616165603842462
0.533000000000000362,-0.778405545317063186
0.534000000000000363,-0.823426611289134969
0.535000000000000364,-0.867676781021381016
0.536000000000000365,-0.911153822730432994
0.537000000000000366,-0.953855847778429577
0.538000000000000367,-0.995781303134487872
0.539000000000000368,-1.036928963871346365
0.540000000000000369,-1.077297925700865022
0.541000000000000369,-1.116887597551896150
0.542000000000000370,-1.155697694193887681
0.543000000000000371,-1.193728228909421096
0.544000000000000372,-1.230979506218705222
0.545000000000000373,-1.267452114658880857
0.546000000000000374,-1.303146919620921995
0.547000000000000375,-1.338065056246630080
0.548000000000000376,-1.372207922388237522
0.549000000000000377,-1.405577171632835354
0.550000000000000377,-1.438174706393879898
0.551000000000000378,-1.470002671071707123
0.552000000000000379,-1.501063445285045539
0.553000000000000380,-1.531359637175253585
0.554000000000000381,-1.560894076784954176
0.555000000000000382,-1.589669809512645360
0.556000000000000383,-1.617690089644645557
0.557000000000000384,-1.644958373965788256
0.558000000000000385,-1.671478315449997698
0.559000000000000385,-1.697253757031942811
0.560000000000000386,-1.722288725460710879
0.561000000000000387,-1.746587425236497015
0.562000000000000388,-1.770154232631066860
0.563000000000000389,-1.792993689792836687
0.564000000000000390,-1.815110498937092087
0.565000000000000391,-1.836509516622058413
0.566000000000000392,-1.857195748111227118
0.567000000000000393,-1.877174341822396952
0.568000000000000393,-1.896450583863747763
0.569000000000000394,-1.915029892657267085
0.570000000000000395,-1.932917813649695615
0.571000000000000396,-1.950120014111123679
0.572000000000000397,-1.966642278021375034
0.573000000000000398,-1.982490501044142706
0.574000000000000399,-1.997670685588834205
0.575000000000000400,-2.012188935960082858
0.576000000000000401,-2.026051453594699403
0.577000000000000401,-2.039264532385952400
0.578000000000000402,-2.051834554094841501
0.579000000000000403,-2.063767983848128207
0.580000000000000404,-2.075071365722769734
0.581000000000000405,-2.085751318416350308
0.582000000000000406,-2.095814531003131087
0.583000000000000407,-2.105267758775195119
0.584000000000000408,-2.114117819168289003
0.585000000000000409,-2.122371587771697765
0.586000000000000409,-2.130035994421704437
0.587000000000000410,-2.137118019377999723
0.588000000000000411,-2.143624689582352971
0.589000000000000412,-2.149563074999027101
0.590000000000000413,-2.154940285036102576
0.591000000000000414,-2.159763465047128239
0.592000000000000415,-2.164039792912318294
0.593000000000000416,-2.167776475698526273
0.594000000000000417,-2.170980746397282335
0.595000000000000417,-2.173659860740063898
0.596000000000000418,-2.175821094089981145
0.597000000000000419,-2.177471738409123780
0.598000000000000420,-2.178619099300628470
0.599000000000000421,-2.179270493124707997
0.600000000000000422,-2.179433244187720220
0.601000000000000423,-2.179114682003404191
0.602000000000000424,-2.178322138625417015
0.603000000000000425,-2.177062946050289050
0.604000000000000425,-2.175344433689794688
0.605000000000000426,-2.173173925911950910
0.606000000000000427,-2.170558739649648405
0.607000000000000428,-2.167506182075965793
0.608000000000000429,-2.164023548345329395
0.609000000000000430,-2.160118119399442982
0.610000000000000431,-2.155797159837201882
0.611000000000000432,-2.151067915847495016
0.612000000000000433,-2.145937613204057737
0.613000000000000433,-2.140413455321387382
0.614000000000000434,-2.134502621370772957
0.615000000000000435,-2.128212264455452640
0.616000000000000436,-2.121549509844043779
