# AuFCC100-Ablate5_CS-582-AC
# h[nm],U(h)[kJ/mol]
0.200000000000000011,119.148749890374304528
0.201000000000000012,110.191678766680482227
0.202000000000000013,105.372584027115067329
0.203000000000000014,102.409929944989841033
0.204000000000000015,100.030673601839268372
0.205000000000000016,97.597433915571969010
0.206000000000000016,94.855794597577087757
0.207000000000000017,91.766940915049218574
0.208000000000000018,88.400110466390358965
0.209000000000000019,84.866297655496680363
0.210000000000000020,81.279842458830657392
0.211000000000000021,77.738382190292014684
0.212000000000000022,74.314477699634437613
0.213000000000000023,71.054293872997362769
0.214000000000000024,67.980210392103316508
0.215000000000000024,65.095308699089102333
0.216000000000000025,62.388436006387642863
0.217000000000000026,59.839070872546415103
0.218000000000000027,57.421570426362052331
0.219000000000000028,55.108613953849953759
0.220000000000000029,52.873806341408908338
0.221000000000000030,50.693493676606024678
0.222000000000000031,48.547891082027568643
0.223000000000000032,46.421643313272994646
0.224000000000000032,44.303941603125714721
0.225000000000000033,42.188312597232695111
0.226000000000000034,40.072181785556210798
0.227000000000000035,37.956297814416544156
0.228000000000000036,35.844087567982775511
0.229000000000000037,33.740996236934591934
0.230000000000000038,31.653852486573434533
0.231000000000000039,29.590286653880752965
0.232000000000000040,27.558219744657936445
0.233000000000000040,25.565432807083134037
0.234000000000000041,23.619219869030789738
0.235000000000000042,21.726122834411018658
0.236000000000000043,19.891743309591902289
0.237000000000000044,18.120624045962099302
0.238000000000000045,16.416191323158450643
0.239000000000000046,14.780748964003731061
0.240000000000000047,13.215514595132281883
0.241000000000000048,11.720689099772418018
0.242000000000000048,10.295550828437658453
0.243000000000000049,8.938566939004729761
0.244000000000000050,7.647515149667563961
0.245000000000000051,6.419610144065558188
0.246000000000000052,5.251629820218219002
0.247000000000000053,4.140037489216822131
0.248000000000000054,3.081096981942729407
0.249000000000000055,2.070978396936047350
0.250000000000000056,1.105852911226864466
0.251000000000000056,0.181975675019085431
0.252000000000000057,-0.704243678905420389
0.253000000000000058,-1.556182955903527398
0.254000000000000059,-2.376961451126039737
0.255000000000000060,-3.169405562432933809
0.256000000000000061,-3.936025190443191768
0.257000000000000062,-4.679000005394214234
0.258000000000000063,-5.400174564752214579
0.259000000000000064,-6.101061212717347360
0.260000000000000064,-6.782849675804660805
0.261000000000000065,-7.446422280987546216
0.262000000000000066,-8.092373758508676573
0.263000000000000067,-8.721034645066252367
0.264000000000000068,-9.332497369992282188
0.265000000000000069,-9.926644183195440618
0.266000000000000070,-10.503176165578633316
0.267000000000000071,-11.061642647456785937
0.268000000000000071,-11.601470445789203723
0.269000000000000072,-12.121992414868911325
0.270000000000000073,-12.622474885946150636
0.271000000000000074,-13.102143647938026660
0.272000000000000075,-13.560208193037624369
0.273000000000000076,-13.995884017094720519
0.274000000000000077,-14.408412824742384828
0.275000000000000078,-14.797080543216239334
0.276000000000000079,-15.161233096645508667
0.277000000000000079,-15.500289934397576630
0.278000000000000080,-15.813755343039398227
0.279000000000000081,-16.101227601926460409
0.280000000000000082,-16.362406067679994948
0.281000000000000083,-16.597096293243389198
0.282000000000000084,-16.805213303219115772
0.283000000000000085,-16.986783159187599068
0.284000000000000086,-17.141942957111801604
0.285000000000000087,-17.270939404140875695
0.286000000000000087,-17.374126124534637228
0.287000000000000088,-17.451959844413018175
0.288000000000000089,-17.504995602943498767
0.289000000000000090,-17.533881133746305636
0.290000000000000091,-17.539350555023538902
0.291000000000000092,-17.522217500487425212
0.292000000000000093,-17.483367815823200431
0.293000000000000094,-17.423751937404293955
0.294000000000000095,-17.344377061481658586
0.295000000000000095,-17.246299203274556788
0.296000000000000096,-17.130615236452008787
0.297000000000000097,-16.998454994547095964
0.298000000000000098,-16.850973507003619289
0.299000000000000099,-16.689343433914167747
0.300000000000000100,-16.514747755147624275
0.301000000000000101,-16.328372761547850445
0.302000000000000102,-16.131401388264102081
0.303000000000000103,-15.925006923084932708
0.304000000000000103,-15.710347115918917638
0.305000000000000104,-15.488558709314853346
0.306000000000000105,-15.260752404151446626
0.307000000000000106,-15.028008269352039150
0.308000000000000107,-14.791371599692979544
0.309000000000000108,-14.551849221463180939
0.310000000000000109,-14.310406241885431200
0.311000000000000110,-14.067963234810639150
0.312000000000000111,-13.825393852223772484
0.313000000000000111,-13.583522848535508842
0.314000000000000112,-13.343124502451260582
0.315000000000000113,-13.104921419386695192
0.316000000000000114,-12.869583695911448018
0.317000000000000115,-12.637728426524386549
0.318000000000000116,-12.409919532171098666
0.319000000000000117,-12.186667889281618926
0.320000000000000118,-11.968431737710412577
0.321000000000000119,-11.755617345777560345
0.322000000000000119,-11.548579910618169464
0.323000000000000120,-11.347624672224087661
0.324000000000000121,-11.153008219888182140
0.325000000000000122,-10.964939970217791654
0.326000000000000123,-10.783583796451427617
0.327000000000000124,-10.609059789475539404
0.328000000000000125,-10.441446131680640619
0.329000000000000126,-10.280781065602438318
0.330000000000000127,-10.127064940151900174
0.331000000000000127,-9.980262318136682964
0.332000000000000128,-9.840304129701546998
0.333000000000000129,-9.707089857260573496
0.334000000000000130,-9.580489738447401038
0.335000000000000131,-9.460346974565524647
0.336000000000000132,-9.346479932969966598
0.337000000000000133,-9.238684332749773631
0.338000000000000134,-9.136735404001049332
0.339000000000000135,-9.040390011879264165
0.340000000000000135,-8.949388737491853263
0.341000000000000136,-8.863457908535949059
0.342000000000000137,-8.782311573397430848
0.343000000000000138,-8.705653413204981206
0.344000000000000139,-8.633178587074187504
0.345000000000000140,-8.564575506481514111
0.346000000000000141,-8.499527535373951892
0.347000000000000142,-8.437714613248507689
0.348000000000000143,-8.378814799025091631
0.349000000000000143,-8.322505734086846019
0.350000000000000144,-8.268466023375207641
0.351000000000000145,-8.216376533901666335
0.352000000000000146,-8.165921610476711834
0.353000000000000147,-8.116790208858841282
0.354000000000000148,-8.068676946894106194
0.355000000000000149,-8.021283074550456860
0.356000000000000150,-7.974317364052929236
0.357000000000000151,-7.927496921595891699
0.358000000000000151,-7.880547922349606438
0.359000000000000152,-7.833206270690611817
0.360000000000000153,-7.785218187771461018
0.361000000000000154,-7.736340728705533465
0.362000000000000155,-7.686342231779181411
0.363000000000000156,-7.635002702217756010
0.364000000000000157,-7.582114133124773225
0.365000000000000158,-7.527480766287683700
0.366000000000000159,-7.470919295598461574
0.367000000000000159,-7.412259015876159651
0.368000000000000160,-7.351341919901672739
0.369000000000000161,-7.288022746483461489
0.370000000000000162,-7.222168982369060686
0.371000000000000163,-7.153660820801017728
0.372000000000000164,-7.082391079488894903
0.373000000000000165,-7.008265080732873464
0.374000000000000166,-6.931200496388917998
0.375000000000000167,-6.851127160312822539
0.376000000000000167,-6.767986850860879144
0.377000000000000168,-6.681733045959139083
0.378000000000000169,-6.592330653182639999
0.379000000000000170,-6.499755717211033179
0.380000000000000171,-6.403995106948032756
0.381000000000000172,-6.305046184510644025
0.382000000000000173,-6.202916458209748463
0.383000000000000174,-6.097623221557915585
0.384000000000000175,-5.989193180252716964
0.385000000000000175,-5.877662068995926248
0.386000000000000176,-5.763074259920402120
0.387000000000000177,-5.645482364307797596
0.388000000000000178,-5.524946829192339592
0.389000000000000179,-5.401535530358156478
0.390000000000000180,-5.275323363151484202
0.391000000000000181,-5.146391832443448777
0.392000000000000182,-5.014828642995965424
0.393000000000000183,-4.880727291400542178
0.394000000000000183,-4.744186660680300704
0.395000000000000184,-4.605310618566979208
0.396000000000000185,-4.464207620388775055
0.397000000000000186,-4.320990317431460781
0.398000000000000187,-4.175775171563612886
0.399000000000000188,-4.028682076848041582
0.400000000000000189,-3.879833988795396316
0.401000000000000190,-3.729356561851647989
0.402000000000000191,-3.577377795650657610
0.403000000000000191,-3.424027690503694821
0.404000000000000192,-3.269437912542409119
0.405000000000000193,-3.113741468877963214
0.406000000000000194,-2.957072393088450379
0.407000000000000195,-2.799565441298498047
0.408000000000000196,-2.641355799069021071
0.409000000000000197,-2.482578799272119774
0.410000000000000198,-2.323369651085321230
0.411000000000000199,-2.163863180200791270
0.412000000000000199,-2.004193580309257872
0.413000000000000200,-1.844494175884742848
0.414000000000000201,-1.684897196264401487
0.415000000000000202,-1.525533560988487469
0.416000000000000203,-1.366532676338444663
0.417000000000000204,-1.208022242985228312
0.418000000000000205,-1.050128074637339815
0.419000000000000206,-0.892973927556161895
0.420000000000000207,-0.736681340786417449
0.421000000000000207,-0.581369486932312385
0.422000000000000208,-0.427155033292677011
0.423000000000000209,-0.274152013154724150
0.424000000000000210,-0.122471707032127730
0.425000000000000211,0.027777466378228956
0.426000000000000212,0.176490049756917372
0.427000000000000213,0.323563637485282052
0.428000000000000214,0.468898956984241444
0.429000000000000214,0.612399941328416686
0.430000000000000215,0.753973793400675163
0.431000000000000216,0.893531041856685193
0.432000000000000217,1.030985589173000427
0.433000000000000218,1.166254752054299626
0.434000000000000219,1.299259294477511428
0.435000000000000220,1.429923453651370746
0.436000000000000221,1.558174959170226304
0.437000000000000222,1.683945045640380389
0.438000000000000222,1.807168459056105458
0.439000000000000223,1.927783457200724637
0.440000000000000224,2.045731804345985783
0.441000000000000225,2.160958760520040656
0.442000000000000226,2.273413065610954131
0.443000000000000227,2.383046918569396766
0.444000000000000228,2.489815951969629015
0.445000000000000229,2.593679202183829968
0.446000000000000230,2.694599075419806589
0.447000000000000230,2.792541309867427213
0.448000000000000231,2.887474934193534182
0.449000000000000232,2.979372222619874222
0.450000000000000233,3.068208646812782714
0.451000000000000234,3.153962824807559961
0.452000000000000235,3.236616467184552981
0.453000000000000236,3.316154320707885184
0.454000000000000237,3.392564109631430735
0.455000000000000238,3.465836474870768846
0.456000000000000238,3.535964911233070218
0.457000000000000239,3.602945702891093838
0.458000000000000240,3.666777857280547614
0.459000000000000241,3.727463037594353157
0.460000000000000242,3.785005494040415641
0.461000000000000243,3.839411994023761654
0.462000000000000244,3.890691751407208354
0.463000000000000245,3.938856354998884424
0.464000000000000246,3.983919696408540823
0.465000000000000246,4.025897897408594162
0.466000000000000247,4.064809236929958658
0.467000000000000248,4.100674077816764296
0.468000000000000249,4.133514793458163084
0.469000000000000250,4.163355694409941243
0.470000000000000251,4.190222955112881564
0.471000000000000252,4.214144540809543926
0.472000000000000253,4.235150134755511608
0.473000000000000254,4.253271065816240259
0.474000000000000254,4.268540236535306676
0.475000000000000255,4.280992051754947347
0.476000000000000256,4.290662347865038306
0.477000000000000257,4.297588322751753509
0.478000000000000258,4.301808466512717644
0.479000000000000259,4.303362493001044342
0.480000000000000260,4.302291272256154819
0.481000000000000261,4.298636763875355093
0.482000000000000262,4.292441951375815634
0.483000000000000262,4.283750777593086312
0.484000000000000263,4.272608081158017157
0.485000000000000264,4.259059534090864574
0.486000000000000265,4.243151580547332991
0.487000000000000266,4.224931376748321199
0.488000000000000267,4.204446732121812857
0.489000000000000268,4.181746051681960452
0.490000000000000269,4.156878279667940213
0.491000000000000270,4.129892844461741319
0.492000000000000270,4.100839604801764793
0.493000000000000271,4.069768797306113406
0.494000000000000272,4.036730985317353415
0.495000000000000273,4.001777009077610359
0.496000000000000274,3.964957937241156749
0.497000000000000275,3.926325019729107080
0.498000000000000276,3.885929641928755895
0.499000000000000277,3.843823280238512829
0.500000000000000222,3.800057458956980661
0.501000000000000334,3.754683708513558482
0.502000000000000224,3.707753525035749398
0.503000000000000336,3.659318331247189970
0.504000000000000226,3.609429438688775527
0.505000000000000338,3.558138011253750843
0.506000000000000227,3.505495030026694714
0.507000000000000339,3.451551259414620709
0.508000000000000229,3.396357214557846227
0.509000000000000341,3.339963130006501579
0.510000000000000231,3.282418929648451833
0.511000000000000343,3.223774197872539382
0.512000000000000233,3.164078151951137396
0.513000000000000345,3.103379615624305643
0.514000000000000234,3.041726993868026252
0.515000000000000346,2.979168248827507082
0.516000000000000236,2.915750876896738397
0.517000000000000348,2.851521886924119009
0.518000000000000238,2.786527779524417436
0.519000000000000350,2.720814527475859279
0.520000000000000240,2.654427557181859409
0.521000000000000352,2.587411731175502272
0.522000000000000242,2.519811331645617436
0.523000000000000353,2.451670044961977712
0.524000000000000243,2.383030947178111258
0.525000000000000355,2.313936490488916142
0.526000000000000245,2.244428490621140249
0.527000000000000357,2.174548115133792425
0.528000000000000247,2.104335872606378111
0.529000000000000359,2.033831602692016904
0.530000000000000249,1.963074467013172342
0.531000000000000361,1.892102940877192552
0.532000000000000250,1.820954805789522180
0.533000000000000362,1.749667142741763826
0.534000000000000252,1.678276326252935657
0.535000000000000364,1.606818019140984433
0.536000000000000254,1.535327168003485232
0.537000000000000366,1.463837999384850930
0.538000000000000256,1.392384016609169661
0.539000000000000368,1.320997997256672107
0.540000000000000258,1.249711991263195099
0.541000000000000369,1.178557319621102328
0.542000000000000259,1.107564573661681706
0.543000000000000371,1.036763614897924679
0.544000000000000261,0.966183575408031681
0.545000000000000373,0.895852858739531022
0.546000000000000263,0.825799141314720764
0.547000000000000375,0.756049374317726675
0.548000000000000265,0.686629786044952617
0.549000000000000377,0.617565884699521228
0.550000000000000266,0.548882461612200445
0.551000000000000378,0.480603594870207318
0.552000000000000268,0.412752653336818209
0.553000000000000380,0.345352301044136112
0.554000000000000270,0.278424501942431291
0.555000000000000382,0.211990524989151913
0.556000000000000272,0.146070949561750596
0.557000000000000384,0.080685671178180554
0.558000000000000274,0.015853907509741832
0.559000000000000385,-0.048405795329011750
0.560000000000000275,-0.112075556227907575
0.561000000000000387,-0.175138152281039045
0.562000000000000277,-0.237577011752637735
0.563000000000000389,-0.299376206823056379
0.564000000000000279,-0.360520446127849947
0.565000000000000391,-0.420995067103364540
0.566000000000000281,-0.480786028151115041
0.567000000000000393,-0.539879900633716603
0.568000000000000282,-0.598263860713946993
0.569000000000000394,-0.655925681049018161
0.570000000000000284,-0.712853722350866637
0.571000000000000396,-0.769036924824065826
0.572000000000000286,-0.824464799491422817
0.573000000000000398,-0.879127419418058720
0.574000000000000288,-0.933015410843618831
0.575000000000000400,-0.986119944232685897
0.576000000000000290,-1.038432725252346422
0.577000000000000401,-1.089945985686457286
0.578000000000000291,-1.140652474294961083
0.579000000000000403,-1.190545447627053832
0.580000000000000293,-1.239618660796117933
0.581000000000000405,-1.287866358224655894
0.582000000000000295,-1.335283264366364797
0.583000000000000407,-1.381864574413254498
0.584000000000000297,-1.427605944994283060
0.585000000000000409,-1.472503484872872193
0.586000000000000298,-1.516553745649299456
0.587000000000000410,-1.559753712474749365
0.588000000000000300,-1.602100794782565840
0.589000000000000412,-1.643592817042938581
0.590000000000000302,-1.684228009546141491
0.591000000000000414,-1.724004999219995726
0.592000000000000304,-1.762922800486316888
0.593000000000000416,-1.800980806161422976
0.594000000000000306,-1.838178778405155311
0.595000000000000417,-1.874516839723014971
0.596000000000000307,-1.909995464025353584
0.597000000000000419,-1.944615467747887960
0.598000000000000309,-1.978378001037186085
0.599000000000000421,-2.011284539004701166
0.600000000000000311,-2.043336873052878477
0.601000000000000423,-2.074537102276550193
0.602000000000000313,-2.104887624942482383
0.603000000000000425,-2.134391130050328655
0.604000000000000314,-2.163050588977243560
0.605000000000000426,-2.190869247209135562
0.606000000000000316,-2.217850616160599309
0.607000000000000428,-2.243998465085970562
0.608000000000000318,-2.269316813083514184
0.609000000000000430,-2.293809921194695178
0.610000000000000320,-2.317482284600247855
0.611000000000000432,-2.340338624914885202
0.612000000000000322,-2.362383882581929218
0.613000000000000433,-2.383623209369479135
0.614000000000000323,-2.404061960969261058
0.615000000000000435,-2.423705689699371391
0.616000000000000325,-2.442560137311855062
0.617000000000000437,-2.460631227906231899
0.618000000000000327,-2.477925060949558222
0.619000000000000439,-2.494447904403918947
0.620000000000000329,-2.510206187961861790
0.621000000000000441,-2.525206496390314914
0.622000000000000330,-2.539455562983419235
0.623000000000000442,-2.552960263124623985
0.624000000000000332,-2.565727607958177003
0.625000000000000444,-2.577764738170379211
0.626000000000000334,-2.589078917880460295
0.627000000000000446,-2.599677528641241686
0.628000000000000336,-2.609568063549435823
0.629000000000000448,-2.618758121465499134
0.630000000000000338,-2.627255401342723840
0.631000000000000449,-2.635067696665465142
0.632000000000000339,-2.642202889996028592
0.633000000000000451,-2.648668947629863268
0.634000000000000341,-2.654473914358618902
0.635000000000000453,-2.659625908340641054
0.636000000000000343,-2.664133116078143182
0.637000000000000455,-2.668003787500727864
0.638000000000000345,-2.671246231154332573
0.639000000000000457,-2.673868809495129284
0.640000000000000346,-2.675879934287497264
0.641000000000000458,-2.677288062105377175
0.642000000000000348,-2.678101689936130292
0.643000000000000460,-2.678329350886111904
0.644000000000000350,-2.677979609987032994
0.645000000000000462,-2.677061060102222889
0.646000000000000352,-2.675582317931819887
0.647000000000000464,-2.673552020115972816
0.648000000000000353,-2.670978819434998819
0.649000000000000465,-2.667871381105487494
0.650000000000000355,-2.664238379171369964
0.651000000000000467,-2.660088492988762265
0.652000000000000357,-2.655430403803676676
0.653000000000000469,-2.650272791421258045
0.654000000000000359,-2.644624330965717807
0.655000000000000471,-2.638493689729572544
0.656000000000000361,-2.631889524111183043
0.657000000000000473,-2.624820476639395661
0.658000000000000362,-2.617295173084124738
0.659000000000000474,-2.609322219651674768
0.660000000000000364,-2.600910200263638838
0.661000000000000476,-2.592067673918153847
0.662000000000000366,-2.582803172132337899
0.663000000000000478,-2.573125196464652653
0.664000000000000368,-2.563042216116035998
