# AuFCC100-Ablate5_CS-1113-AC
# h[nm],U(h)[kJ/mol]
0.149999999999999994,162.122944632572227874
0.150999999999999995,157.254083970043581076
0.151999999999999996,153.106727717658884558
0.152999999999999997,149.101551631385490282
0.153999999999999998,145.063949207212885995
0.154999999999999999,140.991746425738540438
0.156000000000000000,136.937061946152454084
0.157000000000000001,132.952680004881329978
0.158000000000000002,129.072894037026827618
0.159000000000000002,125.311207526559925896
0.160000000000000003,121.665009206265381181
0.161000000000000004,118.122028563351278763
0.162000000000000005,114.666127771641384925
0.163000000000000006,111.281524804611905211
0.164000000000000007,107.955342928333607233
0.165000000000000008,104.678747482825315274
0.166000000000000009,101.447052686458050630
0.167000000000000010,98.259176245170891661
0.168000000000000010,95.116757317005010464
0.169000000000000011,92.023173199257442434
0.170000000000000012,88.982612613514135091
0.171000000000000013,85.999298096441592065
0.172000000000000014,83.076899764686501726
0.173000000000000015,80.218147174104757369
0.174000000000000016,77.424623078812629728
0.175000000000000017,74.696709995768642898
0.176000000000000018,72.033654998764902189
0.177000000000000018,69.433717812813029013
0.178000000000000019,66.894370185558258868
0.179000000000000020,64.412519236270014744
0.180000000000000021,61.984732975386449993
0.181000000000000022,59.607451727537849706
0.182000000000000023,57.277174319381572332
0.183000000000000024,54.990612350365871919
0.184000000000000025,52.744809533969657878
0.185000000000000026,50.537225962743505647
0.186000000000000026,48.365789260427114016
0.187000000000000027,46.228916023785799894
0.188000000000000028,44.125507828850999203
0.189000000000000029,42.054926488776942506
0.190000000000000030,40.016953307023484854
0.191000000000000031,38.011736863873963443
0.192000000000000032,36.039733487764564757
0.193000000000000033,34.101644063436225451
0.194000000000000034,32.198350271175392834
0.195000000000000034,30.330852777717858260
0.196000000000000035,28.500213341175282267
0.197000000000000036,26.707502271670371385
0.198000000000000037,24.953752220541538520
0.199000000000000038,23.239918862075690242
0.200000000000000039,21.566848685969056021
0.201000000000000040,19.935253835678132361
0.202000000000000041,18.345693704474896890
0.203000000000000042,16.798562832576742210
0.204000000000000042,15.294084529319869503
0.205000000000000043,13.832309567602354861
0.206000000000000044,12.413119257220833092
0.207000000000000045,11.036232192936513030
0.208000000000000046,9.701213986175806880
0.209000000000000047,8.407489320772874919
0.210000000000000048,7.154355718259320263
0.211000000000000049,5.940998452699348675
0.212000000000000050,4.766506115373040586
0.213000000000000050,3.629886392759611446
0.214000000000000051,2.530081684844367018
0.215000000000000052,1.465984252869830584
0.216000000000000053,0.436450644821825218
0.217000000000000054,-0.559684797870222184
0.218000000000000055,-1.523597498447729182
0.219000000000000056,-2.456461368416953839
0.220000000000000057,-3.359438757257715569
0.221000000000000058,-4.233671654186539790
0.222000000000000058,-5.080274138437182785
0.223000000000000059,-5.900326050002452583
0.224000000000000060,-6.694867832910256666
0.225000000000000061,-7.464896487501104794
0.226000000000000062,-8.211362556426445636
0.227000000000000063,-8.935168060775847465
0.228000000000000064,-9.637165297440301259
0.229000000000000065,-10.318156406119536328
0.230000000000000066,-10.978893613883371927
0.231000000000000066,-11.620080066537132879
0.232000000000000067,-12.242371158871529602
0.233000000000000068,-12.846376279891867256
0.234000000000000069,-13.432660894037990573
0.235000000000000070,-14.001748884980113274
0.236000000000000071,-14.554125094588215461
0.237000000000000072,-15.090237995942070270
0.238000000000000073,-15.610502445613160916
0.239000000000000073,-16.115302466778583579
0.240000000000000074,-16.604994020915665232
0.241000000000000075,-17.079907731782931535
0.242000000000000076,-17.540351531055140555
0.243000000000000077,-17.986613200297206561
0.244000000000000078,-18.418962788897271565
0.245000000000000079,-18.837654892112414728
0.246000000000000080,-19.242930777498642669
0.247000000000000081,-19.635020351700553931
0.248000000000000081,-20.014143962866715043
0.249000000000000082,-20.380514036849049830
0.250000000000000111,-20.734336547853679633
0.251000000000000112,-21.075812326355094939
0.252000000000000113,-21.405138208891514751
0.253000000000000114,-21.722508035844548147
0.254000000000000115,-22.028113504505434150
0.255000000000000115,-22.322144885659064073
0.256000000000000116,-22.604791612610178220
0.257000000000000117,-22.876242752053293827
0.258000000000000118,-23.136687366475516825
0.259000000000000119,-23.386314777903880469
0.260000000000000120,-23.625314742787711708
0.261000000000000121,-23.853877547661259229
0.262000000000000122,-24.072194034985326283
0.263000000000000123,-24.280455568232952146
0.264000000000000123,-24.478853944883059768
0.265000000000000124,-24.667581265529666013
0.266000000000000125,-24.846829766818181895
0.267000000000000126,-25.016791625394454002
0.268000000000000127,-25.177658739509531927
0.269000000000000128,-25.329622494369566255
0.270000000000000129,-25.472873516767254642
0.271000000000000130,-25.607601423983435751
0.272000000000000131,-25.733994571410583774
0.273000000000000131,-25.852239802830517590
0.274000000000000132,-25.962522206778334777
0.275000000000000133,-26.065024881948524182
0.276000000000000134,-26.159928714148282580
0.277000000000000135,-26.247412166879485085
0.278000000000000136,-26.327651087236329630
0.279000000000000137,-26.400818528440236577
0.280000000000000138,-26.467084589997160293
0.281000000000000139,-26.526616276156563146
0.282000000000000139,-26.579577373073128399
0.283000000000000140,-26.626128344823467131
0.284000000000000141,-26.666426248207461214
0.285000000000000142,-26.700624666068740964
0.286000000000000143,-26.728873658697615667
0.287000000000000144,-26.751319732732600443
0.288000000000000145,-26.768105826852576001
0.289000000000000146,-26.779371313446450387
0.290000000000000147,-26.785252015363862910
0.291000000000000147,-26.785880236782396935
0.292000000000000148,-26.781384807177438745
0.293000000000000149,-26.771891137344482559
0.294000000000000150,-26.757521286402237592
0.295000000000000151,-26.738394038694895727
0.296000000000000152,-26.714624989512763875
0.297000000000000153,-26.686326638561581603
0.298000000000000154,-26.653608490129339970
0.299000000000000155,-26.616577158926105540
0.300000000000000155,-26.575336480604807576
0.301000000000000156,-26.529987626008825430
0.302000000000000157,-26.480629218234298605
0.303000000000000158,-26.427357451641057651
0.304000000000000159,-26.370266211994408678
0.305000000000000160,-26.309447196970392469
0.306000000000000161,-26.244990036309456372
0.307000000000000162,-26.176982410956089353
0.308000000000000163,-26.105510170575019657
0.309000000000000163,-26.030657448887787098
0.310000000000000164,-25.952506776326014659
0.311000000000000165,-25.871139189548955528
0.312000000000000166,-25.786634337423937069
0.313000000000000167,-25.699070583116736088
0.314000000000000168,-25.608525101986554517
0.315000000000000169,-25.515073975025575947
0.316000000000000170,-25.418792277626739207
0.317000000000000171,-25.319754163504502031
0.318000000000000171,-25.218032943632586296
0.319000000000000172,-25.113701160099608956
0.320000000000000173,-25.006830654818219983
0.321000000000000174,-24.897492633055080091
0.322000000000000175,-24.785757721779624774
0.323000000000000176,-24.671696022856785646
0.324000000000000177,-24.555377161134149588
0.325000000000000178,-24.436870327497288713
0.326000000000000179,-24.316244316988065322
0.327000000000000179,-24.193567562099111967
0.328000000000000180,-24.068908161374903187
0.329000000000000181,-23.942333903464618317
0.330000000000000182,-23.813912286784518102
0.331000000000000183,-23.683710534959423910
0.332000000000000184,-23.551795608221674172
0.333000000000000185,-23.418234210954295804
0.334000000000000186,-23.283092795571167954
0.335000000000000187,-23.146437562931950538
0.336000000000000187,-23.008334459493305246
0.337000000000000188,-22.868849171399951103
0.338000000000000189,-22.728047115720631410
0.339000000000000190,-22.585993429034090241
0.340000000000000191,-22.442752953569119256
0.341000000000000192,-22.298390221101595188
0.342000000000000193,-22.152969434808035487
0.343000000000000194,-22.006554449272982765
0.344000000000000195,-21.859208748842569037
0.345000000000000195,-21.710995424513043872
0.346000000000000196,-21.561977149537426612
0.347000000000000197,-21.412216153928163465
0.348000000000000198,-21.261774198028120963
0.349000000000000199,-21.110712545315411859
0.350000000000000200,-20.959091934602007257
0.351000000000000201,-20.806972551778457614
0.352000000000000202,-20.654414001250898991
0.353000000000000203,-20.501475277209305403
0.354000000000000203,-20.348214734858732555
0.355000000000000204,-20.194690061738345577
0.356000000000000205,-20.040958249245782952
0.357000000000000206,-19.887075564477491696
0.358000000000000207,-19.733097522488009190
0.359000000000000208,-19.579078859064875218
0.360000000000000209,-19.425073504108375744
0.361000000000000210,-19.271134555698740343
0.362000000000000210,-19.117314254926565553
0.363000000000000211,-18.963663961555965898
0.364000000000000212,-18.810234130583275203
0.365000000000000213,-18.657074289748067031
0.366000000000000214,-18.504233018047369086
0.367000000000000215,-18.351757925297732754
0.368000000000000216,-18.199695632784887778
0.369000000000000217,-18.048091755034540995
0.370000000000000218,-17.896990882733355477
0.371000000000000218,-17.746436566823710734
0.372000000000000219,-17.596471303791499707
0.373000000000000220,-17.447136522161390104
0.374000000000000221,-17.298472570209941779
0.375000000000000222,-17.150518704902722789
0.376000000000000223,-17.003313082057829320
0.377000000000000224,-16.856892747734612215
0.378000000000000225,-16.711293630842959601
0.379000000000000226,-16.566550536965241491
0.380000000000000226,-16.422697143380361240
0.381000000000000227,-16.279765995275976564
0.382000000000000228,-16.137788503133101869
0.383000000000000229,-15.996794941264473877
0.384000000000000230,-15.856814447485817254
0.385000000000000231,-15.717875023897651232
0.386000000000000232,-15.580003538752823289
0.387000000000000233,-15.443225729383772915
0.388000000000000234,-15.307566206161798306
0.389000000000000234,-15.173048457459469063
0.390000000000000235,-15.039694855585816313
0.391000000000000236,-14.907526663663450250
0.392000000000000237,-14.776564043415168825
0.393000000000000238,-14.646826063827628417
0.394000000000000239,-14.518330710658327476
0.395000000000000240,-14.391094896752097299
0.396000000000000241,-14.265134473132812687
0.397000000000000242,-14.140464240835530774
0.398000000000000242,-14.017097963444433262
0.399000000000000243,-13.895048380301611601
0.400000000000000244,-13.774327220351647583
0.401000000000000245,-13.654945216587517365
0.402000000000000246,-13.536912121062922409
0.403000000000000247,-13.420236720436633959
0.404000000000000248,-13.304926852014983041
0.405000000000000249,-13.190989420258565801
0.406000000000000250,-13.078430413719923209
0.407000000000000250,-12.967254922379472859
0.408000000000000251,-12.857467155347247711
0.409000000000000252,-12.749070458898930980
0.410000000000000253,-12.642067334814884205
0.411000000000000254,-12.536459458991899396
0.412000000000000255,-12.432247700297816451
0.413000000000000256,-12.329432139640053023
0.414000000000000257,-12.228012089219593150
0.415000000000000258,-12.127986111943041436
0.416000000000000258,-12.029352040965914483
0.417000000000000259,-11.932106999341140607
0.418000000000000260,-11.836247419747728316
0.419000000000000261,-11.741769064275107581
0.420000000000000262,-11.648667044239727986
0.421000000000000263,-11.556935840011275829
0.422000000000000264,-11.466569320826440759
0.423000000000000265,-11.377560764569405904
0.424000000000000266,-11.289902877498894540
0.425000000000000266,-11.203587813902265324
0.426000000000000267,-11.118607195658258391
0.427000000000000268,-11.034952131690676680
0.428000000000000269,-10.952613237296095150
0.429000000000000270,-10.871580653329569799
0.430000000000000271,-10.791844065232998773
0.431000000000000272,-10.713392721891761283
0.432000000000000273,-10.636215454305776973
0.433000000000000274,-10.560300694062203064
0.434000000000000274,-10.485636491597398745
0.435000000000000275,-10.412210534236841397
0.436000000000000276,-10.340010164002158888
0.437000000000000277,-10.269022395175223750
0.438000000000000278,-10.199233931610027781
0.439000000000000279,-10.130631183783631144
0.440000000000000280,-10.063200285578059123
0.441000000000000281,-9.996927110785881254
0.442000000000000282,-9.931797289332687129
0.443000000000000282,-9.867796223210135054
0.444000000000000283,-9.804909102114187647
0.445000000000000284,-9.743120918783418460
0.446000000000000285,-9.682416484032765780
0.447000000000000286,-9.622780441479143576
0.448000000000000287,-9.564197281955058472
0.449000000000000288,-9.506651357607623254
0.450000000000000289,-9.450126895680252659
0.451000000000000290,-9.394608011975201123
0.452000000000000290,-9.340078723995267396
0.453000000000000291,-9.286522963763557570
0.454000000000000292,-9.233924590320539139
0.455000000000000293,-9.182267401898023707
0.456000000000000294,-9.131535147770133420
0.457000000000000295,-9.081711539781547771
0.458000000000000296,-9.032780263553771505
0.459000000000000297,-8.984724989370459269
0.460000000000000298,-8.937529382743081285
0.461000000000000298,-8.891177114658606939
0.462000000000000299,-8.845651871511082120
0.463000000000000300,-8.800937364719182199
0.464000000000000301,-8.757017340032303920
0.465000000000000302,-8.713875586527677797
0.466000000000000303,-8.671495945301462172
0.467000000000000304,-8.629862317856781928
0.468000000000000305,-8.588958674192074483
0.469000000000000306,-8.548769060593073732
0.470000000000000306,-8.509277607132158749
0.471000000000000307,-8.470468534878614619
0.472000000000000308,-8.432326162824001159
0.473000000000000309,-8.394834914526381198
0.474000000000000310,-8.357979324477733840
0.475000000000000311,-8.321744044198780443
0.476000000000000312,-8.286113848065609133
0.477000000000000313,-8.251073638872529870
0.478000000000000314,-8.216608453135698653
0.479000000000000314,-8.182703466142278614
0.480000000000000315,-8.149343996749550456
0.481000000000000316,-8.116515511939056182
0.482000000000000317,-8.084203631130270296
0.483000000000000318,-8.052394130258846872
0.484000000000000319,-8.021072945624185380
0.485000000000000320,-7.990226177511324579
0.486000000000000321,-7.959840093592008614
0.487000000000000322,-7.929901132109880457
0.488000000000000322,-7.900395904854740081
0.489000000000000323,-7.871311199930893565
0.490000000000000324,-7.842633984324415053
0.491000000000000325,-7.814351406274366418
0.492000000000000326,-7.786450797452824091
0.493000000000000327,-7.758919674958678847
0.494000000000000328,-7.731745743130050919
0.495000000000000329,-7.704916895180216940
0.496000000000000330,-7.678421214661833361
0.497000000000000330,-7.652246976764312869
0.498000000000000331,-7.626382649449024775
0.499000000000000332,-7.600816894427130599
0.500000000000000333,-7.575538567984672511
0.501000000000000334,-7.550536721659526052
0.502000000000000335,-7.525800602774841863
0.503000000000000336,-7.501319654833466188
0.504000000000000337,-7.477083517777822763
0.505000000000000338,-7.453082028119647262
0.506000000000000338,-7.429305218943982325
0.507000000000000339,-7.405743319791639578
0.508000000000000340,-7.382386756424436314
0.509000000000000341,-7.359226150477374162
0.510000000000000342,-7.336252319001781430
0.511000000000000343,-7.313456273903552685
0.512000000000000344,-7.290829221280399786
0.513000000000000345,-7.268362560662002814
0.514000000000000346,-7.246047884156986640
0.515000000000000346,-7.223876975510340692
0.516000000000000347,-7.201841809075071765
0.517000000000000348,-7.179934548701744745
0.518000000000000349,-7.158147546549315621
0.519000000000000350,-7.136473341820869898
0.520000000000000351,-7.114904659427627287
0.521000000000000352,-7.093434408584542439
0.522000000000000353,-7.072055681340740918
0.523000000000000353,-7.050761751048014503
0.524000000000000354,-7.029546070770507527
0.525000000000000355,-7.008402271638574987
0.526000000000000356,-6.987324161149840229
0.527000000000000357,-6.966305721420361863
0.528000000000000358,-6.945341107388694368
0.529000000000000359,-6.924424644975635701
0.530000000000000360,-6.903550829202364625
0.531000000000000361,-6.882714322269558593
0.532000000000000361,-6.861909951600071444
0.533000000000000362,-6.841132707847651595
0.534000000000000363,-6.820377742874105031
0.535000000000000364,-6.799640367697271870
0.536000000000000365,-6.778916050412095551
0.537000000000000366,-6.758200414087002450
0.538000000000000367,-6.737489234637739521
0.539000000000000368,-6.716778438680806929
0.540000000000000369,-6.696064101368416566
0.541000000000000369,-6.675342444207089443
0.542000000000000370,-6.654609832861629215
0.543000000000000371,-6.633862774946476470
0.544000000000000372,-6.613097917806117110
0.545000000000000373,-6.592312046286329164
0.546000000000000374,-6.571502080497930720
0.547000000000000375,-6.550665073574601038
0.548000000000000376,-6.529798209426440181
0.549000000000000377,-6.508898800490659831
0.550000000000000377,-6.487964285480890325
0.551000000000000378,-6.466992227136548088
0.552000000000000379,-6.445980309973570854
0.553000000000000380,-6.424926338037818319
0.554000000000000381,-6.403828232662378994
0.555000000000000382,-6.382684030230075578
0.556000000000000383,-6.361491879942131611
0.557000000000000384,-6.340250041594323704
0.558000000000000385,-6.318956883361513732
0.559000000000000385,-6.297610879591685418
0.560000000000000386,-6.276210608610378827
0.561000000000000387,-6.254754750536529073
0.562000000000000388,-6.233242085110518360
0.563000000000000389,-6.211671489535396162
0.564000000000000390,-6.190041936331946104
0.565000000000000391,-6.168352491208489496
0.566000000000000392,-6.146602310946099657
0.567000000000000393,-6.124790641299955318
0.568000000000000393,-6.102916814917428212
0.569000000000000394,-6.080980249273625127
0.570000000000000395,-6.058980444624955553
0.571000000000000396,-6.036916981981179653
0.572000000000000397,-6.014789521096655989
0.573000000000000398,-5.992597798481108740
0.574000000000000399,-5.970341625430487298
0.575000000000000400,-5.948020886078322356
0.576000000000000401,-5.925635535467963066
0.577000000000000401,-5.903185597646175786
0.578000000000000402,-5.880671163778293575
0.579000000000000403,-5.858092390285414730
0.580000000000000404,-5.835449497003851960
0.581000000000000405,-5.812742765367138631
0.582000000000000406,-5.789972536610862974
0.583000000000000407,-5.767139210000513216
0.584000000000000408,-5.744243241082635620
0.585000000000000409,-5.721285139959382704
0.586000000000000409,-5.698265469586693222
0.587000000000000410,-5.675184844096262005
0.588000000000000411,-5.652043927141329860
0.589000000000000412,-5.628843430266559089
0.590000000000000413,-5.605584111301917360
0.591000000000000414,-5.582266772780756448
0.592000000000000415,-5.558892260382148898
0.593000000000000416,-5.535461461397401806
0.594000000000000417,-5.511975303220911115
0.595000000000000417,-5.488434751865339578
0.596000000000000418,-5.464840810500974477
0.597000000000000419,-5.441194518019494275
0.598000000000000420,-5.417496947621858183
0.599000000000000421,-5.393749205430468763
0.600000000000000422,-5.369952429125418369
0.601000000000000423,-5.346107786604843426
0.602000000000000424,-5.322216474669232866
0.603000000000000425,-5.298279717729660554
0.604000000000000425,-5.274298766539793348
0.605000000000000426,-5.250274896951580672
0.606000000000000427,-5.226209408694549197
0.607000000000000428,-5.202103624178428198
