# AuFCC100-Ablate5_CS-12139-AC
# h[nm],U(h)[kJ/mol]
0.200000000000000011,88.010414636498609298
0.201000000000000012,81.175864122503256226
0.202000000000000013,77.181379949356156089
0.203000000000000014,74.443300511851404622
0.204000000000000015,72.095143693321091405
0.205000000000000016,69.715659475895421338
0.206000000000000016,67.146650710951604424
0.207000000000000017,64.373979085606151784
0.208000000000000018,61.452403289031352074
0.209000000000000019,58.460286466912748438
0.210000000000000020,55.474204868240391875
0.211000000000000021,52.556430511565636721
0.212000000000000022,49.750409117568686668
0.213000000000000023,47.080910008911260434
0.214000000000000024,44.556638975509464728
0.215000000000000024,42.173893306620172439
0.216000000000000025,39.920387146058750716
0.217000000000000026,37.778750271656477366
0.218000000000000027,35.729453078990744075
0.219000000000000028,33.753071160265079698
0.220000000000000029,31.831901103236361905
0.221000000000000030,29.950994512175604712
0.222000000000000031,28.098703910034430464
0.223000000000000032,26.266842237868804233
0.224000000000000032,24.450554265012304000
0.225000000000000033,22.647988310559380665
0.226000000000000034,20.859843604165426711
0.227000000000000035,19.088854579674556788
0.228000000000000036,17.339259775294422639
0.229000000000000037,15.616290610482412404
0.230000000000000038,13.925704529440062984
0.231000000000000039,12.273377988123481686
0.232000000000000040,10.664967491394989452
0.233000000000000040,9.105641233200287843
0.234000000000000041,7.599879674300668242
0.235000000000000042,6.151340404634132675
0.236000000000000043,4.762780673797757380
0.237000000000000044,3.436029836898352841
0.238000000000000045,2.172003475562841679
0.239000000000000046,0.970750958409268172
0.240000000000000047,-0.168471432217799505
0.241000000000000048,-1.247109071558103022
0.242000000000000048,-2.267205761625052496
0.243000000000000049,-3.231294350092833501
0.244000000000000050,-4.142285974800397952
0.245000000000000051,-5.003361847655583894
0.246000000000000052,-5.817870673238942913
0.247000000000000053,-6.589234042859156482
0.248000000000000054,-7.320861466727036415
0.249000000000000055,-8.016076111738147603
0.250000000000000056,-8.678051801862444847
0.251000000000000056,-9.309761410629423750
0.252000000000000057,-9.913936426485513209
0.253000000000000058,-10.493037196014247669
0.254000000000000059,-11.049233140246681018
0.255000000000000060,-11.584392088103530938
0.256000000000000061,-12.100077770815929057
0.257000000000000062,-12.597554464516282025
0.258000000000000063,-13.077797747972104148
0.259000000000000064,-13.541510352036326026
0.260000000000000064,-13.989142110766673355
0.261000000000000065,-14.420913075903367684
0.262000000000000066,-14.836838921710546302
0.263000000000000067,-15.236757841927271784
0.264000000000000068,-15.620358221195061788
0.265000000000000069,-15.987206446851439878
0.266000000000000070,-16.336774310945244792
0.267000000000000071,-16.668465534761295999
0.268000000000000071,-16.981641027477643036
0.269000000000000072,-17.275642565636530890
0.270000000000000073,-17.549814650026377194
0.271000000000000074,-17.803524360764406254
0.272000000000000075,-18.036179089489802863
0.273000000000000076,-18.247242079469025100
0.274000000000000077,-18.436245750086946771
0.275000000000000078,-18.602802821779921061
0.276000000000000079,-18.746615291194117958
0.277000000000000079,-18.867481334532371307
0.278000000000000080,-18.965300240045898761
0.279000000000000081,-19.040075488834204975
0.280000000000000082,-19.091916116955857774
0.281000000000000083,-19.121036501753508219
0.282000000000000084,-19.127754721687175277
0.283000000000000085,-19.112489642269164136
0.284000000000000086,-19.075756881304876345
0.285000000000000087,-19.018163804950340534
0.286000000000000087,-18.940403702460109514
0.287000000000000088,-18.843249282250845056
0.288000000000000089,-18.727545625355610071
0.289000000000000090,-18.594202724770120483
0.290000000000000091,-18.444187730846188344
0.291000000000000092,-18.278517013995902118
0.292000000000000093,-18.098248146728771246
0.293000000000000094,-17.904471897628503996
0.294000000000000095,-17.698304320434761649
0.295000000000000095,-17.480879012056082189
0.296000000000000096,-17.253339604211255676
0.297000000000000097,-17.016832544564913121
0.298000000000000098,-16.772500214761414838
0.299000000000000099,-16.521474424725958841
0.300000000000000100,-16.264870315033878256
0.301000000000000101,-16.003780692080475490
0.302000000000000102,-15.739270814233858431
0.303000000000000103,-15.472373641130502619
0.304000000000000103,-15.204085552783315194
0.305000000000000104,-14.935362540206961413
0.306000000000000105,-14.667116864817959510
0.307000000000000106,-14.400214179919760937
0.308000000000000107,-14.135471104119735841
0.309000000000000108,-13.873653233522054151
0.310000000000000109,-13.615473576974078895
0.311000000000000110,-13.361591396489705730
0.312000000000000111,-13.112611433201845301
0.313000000000000111,-12.869083497783105230
0.314000000000000112,-12.631502403188855865
0.315000000000000113,-12.400308216793451521
0.316000000000000114,-12.175886808481994450
0.317000000000000115,-11.958570670998492247
0.318000000000000116,-11.748639988812341173
0.319000000000000117,-11.546323931923755168
0.320000000000000118,-11.351802151361056303
0.321000000000000119,-11.165206453607027015
0.322000000000000119,-10.986622631806831407
0.323000000000000120,-10.816092432336109397
0.324000000000000121,-10.653615636127385713
0.325000000000000122,-10.499152235048416770
0.326000000000000123,-10.352624684582226067
0.327000000000000124,-10.213920215060827701
0.328000000000000125,-10.082893184741328341
0.329000000000000126,-9.959367459070326944
0.330000000000000127,-9.843138801551855721
0.331000000000000127,-9.733977262705778344
0.332000000000000128,-9.631629554667782145
0.333000000000000129,-9.535821400033995587
0.334000000000000130,-9.446259844584321996
0.335000000000000131,-9.362635524525151354
0.336000000000000132,-9.284624879867923397
0.337000000000000133,-9.211892306502763361
0.338000000000000134,-9.144092240431673346
0.339000000000000135,-9.080871168491920997
0.340000000000000135,-9.021869560724757875
0.341000000000000136,-8.966723720326339020
0.342000000000000137,-8.915067547855681340
0.343000000000000138,-8.866534217068068102
0.344000000000000139,-8.820757760391405355
0.345000000000000140,-8.777374562668093461
0.346000000000000141,-8.736024762345637740
0.347000000000000142,-8.696353559817453061
0.348000000000000143,-8.658012433091034410
0.349000000000000143,-8.620660261395224566
0.350000000000000144,-8.583964357733574246
0.351000000000000145,-8.547601411747324462
0.352000000000000146,-8.511258344571398737
0.353000000000000147,-8.474633077651461122
0.354000000000000148,-8.437435217741180438
0.355000000000000149,-8.399386660517913938
0.356000000000000150,-8.360222115444189583
0.357000000000000151,-8.319689554662815567
0.358000000000000151,-8.277550588847422119
0.359000000000000152,-8.233580773039031797
0.360000000000000153,-8.187569845584945938
0.361000000000000154,-8.139321903360022148
0.362000000000000155,-8.088655516494474895
0.363000000000000156,-8.035403785857580417
0.364000000000000157,-7.979414346555159909
0.365000000000000158,-7.920549320692025219
0.366000000000000159,-7.858685222629032019
0.367000000000000159,-7.793712819930890490
0.368000000000000160,-7.725536953155732078
0.369000000000000161,-7.654076317581700373
0.370000000000000162,-7.579263209901587750
0.371000000000000163,-7.501043242844128045
0.372000000000000164,-7.419375030600837917
0.373000000000000165,-7.334229847852522077
0.374000000000000166,-7.245591265098648925
0.375000000000000167,-7.153454762898576291
0.376000000000000167,-7.057827327535543205
0.377000000000000168,-6.958727030513555789
0.378000000000000169,-6.856182594194784485
0.379000000000000170,-6.750232945780998861
0.380000000000000171,-6.640926761737556028
0.381000000000000172,-6.528322004653608346
0.382000000000000173,-6.412485454426810172
0.383000000000000174,-6.293492235556909620
0.384000000000000175,-6.171425342228841870
0.385000000000000175,-6.046375162764271671
0.386000000000000176,-5.918439004919970436
0.387000000000000177,-5.787720623413111554
0.388000000000000178,-5.654329750957390210
0.389000000000000179,-5.518381633999867475
0.390000000000000180,-5.379996574257420505
0.391000000000000181,-5.239299477062766996
0.392000000000000182,-5.096419407444843230
0.393000000000000183,-4.951489154784900037
0.394000000000000183,-4.804644806810550506
0.395000000000000184,-4.656025333613055928
0.396000000000000185,-4.505772182299558004
0.397000000000000186,-4.354028882821967983
0.398000000000000187,-4.200940665456712075
0.399000000000000188,-4.046654090345604970
0.400000000000000189,-3.891316689447580579
0.401000000000000190,-3.735076621192681134
0.402000000000000191,-3.578082338075859958
0.403000000000000191,-3.420482267375807517
0.404000000000000192,-3.262424505135959940
0.405000000000000193,-3.104056523498934350
0.406000000000000194,-2.945524891442830473
0.407000000000000195,-2.786975008928021857
0.408000000000000196,-2.628550854425444339
0.409000000000000197,-2.470394745762984900
0.410000000000000198,-2.312647114194367415
0.411000000000000199,-2.155446291565213279
0.412000000000000199,-1.998928310423653043
0.413000000000000200,-1.843226716898088480
0.414000000000000201,-1.688472396141561749
0.415000000000000202,-1.534793410121645607
0.416000000000000203,-1.382314847516256773
0.417000000000000204,-1.231158685458518809
0.418000000000000205,-1.081443662859475463
0.419000000000000206,-0.933285165023841734
0.420000000000000207,-0.786795119262409082
0.421000000000000207,-0.642081901195244442
0.422000000000000208,-0.499250251430595426
0.423000000000000209,-0.358401202298063104
0.424000000000000210,-0.219632014308306006
0.425000000000000211,-0.083036122007319441
0.426000000000000212,0.051296911110127151
0.427000000000000213,0.183281428965556381
0.428000000000000214,0.312835710879158901
0.429000000000000214,0.439881991508760506
0.430000000000000215,0.564346473083906508
0.431000000000000216,0.686159330272051449
0.432000000000000217,0.805254708012108189
0.433000000000000218,0.921570712647163837
0.434000000000000219,1.035049396685079781
0.435000000000000220,1.145636737511372072
0.436000000000000221,1.253282610374220729
0.437000000000000222,1.357940755956292822
0.438000000000000222,1.459568742842520583
0.439000000000000223,1.558127925186941098
0.440000000000000224,1.653583395875627415
0.441000000000000225,1.745903935475887847
0.442000000000000226,1.835061957255051057
0.443000000000000227,1.921033448545307554
0.444000000000000228,2.003797908723400134
0.445000000000000229,2.083338284066791779
0.446000000000000230,2.159640899740009168
0.447000000000000230,2.232695389157544952
0.448000000000000231,2.302494620961468730
0.449000000000000232,2.369034623844308296
0.450000000000000233,2.432314509439840400
0.451000000000000234,2.492336393496336733
0.452000000000000235,2.549105315539198280
0.453000000000000236,2.602629157221810097
0.454000000000000237,2.652918559555651257
0.455000000000000238,2.699986839203099898
0.456000000000000238,2.743849904008367702
0.457000000000000239,2.784526167934779473
0.458000000000000240,2.822036465568648733
0.459000000000000241,2.856403966343054268
0.460000000000000242,2.887654088627157556
0.461000000000000243,2.915814413819817652
0.462000000000000244,2.940914600579069393
0.463000000000000245,2.962986299312269534
0.464000000000000246,2.982063067044924409
0.465000000000000246,2.998180282779631334
0.466000000000000247,3.011375063450209666
0.467000000000000248,3.021686180569843394
0.468000000000000249,3.029153977665884234
0.469000000000000250,3.033820288588151559
0.470000000000000251,3.035728356771777214
0.471000000000000252,3.034922755530107708
0.472000000000000253,3.031449309447642015
0.473000000000000254,3.025355016937971264
0.474000000000000254,3.016687974026473373
0.475000000000000255,3.005497299412626777
0.476000000000000256,2.991833060862261195
0.477000000000000257,2.975746202975320998
0.478000000000000258,2.957288476370441010
0.479000000000000259,2.936512368323553890
0.480000000000000260,2.913471034893423184
0.481000000000000261,2.888218234563447062
0.482000000000000262,2.860808263425083098
0.483000000000000262,2.831295891924975994
0.484000000000000263,2.799736303194155340
0.485000000000000264,2.766185032974801228
0.486000000000000265,2.730697911156549917
0.487000000000000266,2.693331004931773354
0.488000000000000267,2.654140563576260270
0.489000000000000268,2.613182964858959956
0.490000000000000269,2.570514663082258622
0.491000000000000270,2.526192138751477856
0.492000000000000270,2.480271849870333334
0.493000000000000271,2.432810184856709412
0.494000000000000272,2.383863417071404367
0.495000000000000273,2.333487660950094078
0.496000000000000274,2.281738829727637530
0.497000000000000275,2.228672594741631929
0.498000000000000276,2.174344346300756126
0.499000000000000277,2.118809156102189117
0.500000000000000222,2.062121741180541257
0.501000000000000334,2.004336429370111805
0.502000000000000224,1.945507126260521691
0.503000000000000336,1.885687283625077981
0.504000000000000226,1.824929869300189633
0.505000000000000338,1.763287338492948830
0.506000000000000227,1.700811606493731087
0.507000000000000339,1.637554022769259987
0.508000000000000229,1.573565346411580190
0.509000000000000341,1.508895722917030557
0.510000000000000231,1.443594662269687356
0.511000000000000343,1.377711018302245405
0.512000000000000233,1.311292969307954026
0.513000000000000345,1.244387999875844475
0.514000000000000234,1.177042883922179373
0.515000000000000346,1.109303668889877859
0.516000000000000236,1.041215661088404465
0.517000000000000348,0.972823412145524480
0.518000000000000238,0.904170706543218961
0.519000000000000350,0.835300550208961545
0.520000000000000240,0.766255160134633906
0.521000000000000352,0.697075954994331504
0.522000000000000242,0.627803546733373574
0.523000000000000353,0.558477733099886797
0.524000000000000243,0.489137491091639565
0.525000000000000355,0.419820971289755096
0.526000000000000245,0.350565493052244159
0.527000000000000357,0.281407540539474144
0.528000000000000247,0.212382759544957084
0.529000000000000359,0.143525955104141290
0.530000000000000249,0.074871089854993522
0.531000000000000361,0.006451283123809648
0.532000000000000250,-0.061701189289377067
0.533000000000000362,-0.129554894651799091
0.534000000000000252,-0.197079242190019377
0.535000000000000364,-0.264244481358699768
0.536000000000000254,-0.331021699509682521
0.537000000000000366,-0.397382818986291408
0.538000000000000256,-0.463300593665850691
0.539000000000000368,-0.528748604974224490
0.540000000000000258,-0.593701257394712800
0.541000000000000369,-0.658133773494267382
0.542000000000000259,-0.722022188488338768
0.543000000000000371,-0.785343344366501439
0.544000000000000261,-0.848074883599486129
0.545000000000000373,-0.910195242448483377
0.546000000000000263,-0.971683643896659732
0.547000000000000375,-1.032520090222980302
0.548000000000000265,-1.092685355237008826
0.549000000000000377,-1.152160976194140485
0.550000000000000266,-1.210929245408952637
0.551000000000000378,-1.268973201585109178
0.552000000000000268,-1.326276620878789503
0.553000000000000380,-1.382824007712935011
0.554000000000000270,-1.438600585358534856
0.555000000000000382,-1.493592286299301630
0.556000000000000272,-1.547785742395042963
0.557000000000000384,-1.601168274859130047
0.558000000000000274,-1.653727884064646103
0.559000000000000385,-1.705453239193593706
0.560000000000000275,-1.756333667742887572
0.561000000000000387,-1.806359144900757441
0.562000000000000277,-1.855520282806290222
0.563000000000000389,-1.903808319705036611
0.564000000000000279,-1.951215109012496729
0.565000000000000391,-1.997733108297620630
0.566000000000000281,-2.043355368197331767
0.567000000000000393,-2.088075521273403012
0.568000000000000282,-2.131887770821960348
0.569000000000000394,-2.174786879646142701
0.570000000000000284,-2.216768158801366351
0.571000000000000396,-2.257827456323142634
0.572000000000000286,-2.297961145946093353
0.573000000000000398,-2.337166115823287260
0.574000000000000288,-2.375439757254023565
0.575000000000000400,-2.412779953428419333
0.576000000000000290,-2.449185068196217951
0.577000000000000401,-2.484653934867577796
0.578000000000000291,-2.519185845052618333
0.579000000000000403,-2.552780537546764705
0.580000000000000293,-2.585438187268156440
0.581000000000000405,-2.617159394253547156
0.582000000000000295,-2.647945172718278339
0.583000000000000407,-2.677796940186310426
0.584000000000000297,-2.706716506695247659
0.585000000000000409,-2.734706064081803500
0.586000000000000298,-2.761768175352194099
0.587000000000000410,-2.787905764142254661
0.588000000000000300,-2.813122104271374102
0.589000000000000412,-2.837420809394509913
0.590000000000000302,-2.860805822755911887
0.591000000000000414,-2.883281407048313927
0.592000000000000304,-2.904852134380867312
0.593000000000000416,-2.925522876359012425
0.594000000000000306,-2.945298794279227472
0.595000000000000417,-2.964185329441455963
0.596000000000000307,-2.982188193581648328
0.597000000000000419,-2.999313359426904135
0.598000000000000309,-3.015567051375338981
0.599000000000000421,-3.030955736302634485
0.600000000000000311,-3.045486114497178765
0.601000000000000423,-3.059165110725420966
0.602000000000000313,-3.071999865428864940
0.603000000000000425,-3.083997726054235944
0.604000000000000314,-3.095166238517758295
0.605000000000000426,-3.105513138804832263
0.606000000000000316,-3.115046344705846515
0.607000000000000428,-3.123773947688963659
0.608000000000000318,-3.131704204910567668
0.609000000000000430,-3.138845531363795516
0.610000000000000320,-3.145206492165620205
0.611000000000000432,-3.150795794982738762
0.612000000000000322,-3.155622282596458827
0.613000000000000433,-3.159694925606610472
0.614000000000000323,-3.163022815274507238
0.615000000000000435,-3.165615156504768546
0.616000000000000325,-3.167481260965766765
0.617000000000000437,-3.168630540348469804
0.618000000000000327,-3.169072499763160522
0.619000000000000439,-3.168816731273617737
0.620000000000000329,-3.167872907568201946
0.621000000000000441,-3.166250775767146752
0.622000000000000330,-3.163960151365425411
0.623000000000000442,-3.161010912310364684
0.624000000000000332,-3.157412993213158270
0.625000000000000444,-3.153176379693446219
0.626000000000000334,-3.148311102855925192
0.627000000000000446,-3.142827233898009887
0.628000000000000336,-3.136734878847506902
0.629000000000000448,-3.130044173429144205
0.630000000000000338,-3.122765278058809102
0.631000000000000449,-3.114908372964312555
0.632000000000000339,-3.106483653431454606
0.633000000000000451,-3.097501325174014219
0.634000000000000341,-3.087971599826473845
0.635000000000000453,-3.077904690558070921
0.636000000000000343,-3.067310807806765460
0.637000000000000455,-3.056200155131798990
0.638000000000000345,-3.044582925183330069
0.639000000000000457,-3.032469295787723063
0.640000000000000346,-3.019869426147052671
0.641000000000000458,-3.006793453151229478
0.642000000000000348,-2.993251487801335209
0.643000000000000460,-2.979253611742530339
0.644000000000000350,-2.964809873905102755
0.645000000000000462,-2.949930287251946393
0.646000000000000352,-2.934624825631066081
0.647000000000000464,-2.918903420731368215
0.648000000000000353,-2.902775959140297068
0.649000000000000465,-2.886252279501530182
0.650000000000000355,-2.869342169771384565
0.651000000000000467,-2.852055364572026797
0.652000000000000357,-2.834401542640197835
0.653000000000000469,-2.816390324369485665
0.654000000000000359,-2.798031269444925861
0.655000000000000471,-2.779333874567959661
0.656000000000000361,-2.760307571270399052
0.657000000000000473,-2.740961723815613205
0.658000000000000362,-2.721305627185487630
0.659000000000000474,-2.701348505151425883
0.660000000000000364,-2.681099508427906120
0.661000000000000476,-2.660567712906904969
0.662000000000000366,-2.639762117971742761
0.663000000000000478,-2.618691644888607950
