# AuFCC100-Ablate5_CS-8009726-AC
# h[nm],U(h)[kJ/mol]
0.200000000000000011,117.133211310510588987
0.201000000000000012,108.241483699240873761
0.202000000000000013,103.396325338574200714
0.203000000000000014,100.358676211813730106
0.204000000000000015,97.884797575268876813
0.205000000000000016,95.356135757626248051
0.206000000000000016,92.529139798133101635
0.207000000000000017,89.370096578748331240
0.208000000000000018,85.949410112229870151
0.209000000000000019,82.376762581102141780
0.210000000000000020,78.763815560442282049
0.211000000000000021,75.204973380425798268
0.212000000000000022,71.769569220033844203
0.213000000000000023,68.500902891022093399
0.214000000000000024,65.419051781504620635
0.215000000000000024,62.525441000729223617
0.216000000000000025,59.807907507446579132
0.217000000000000026,57.245510505795948575
0.218000000000000027,54.812690169294150166
0.219000000000000028,52.482606225650570764
0.220000000000000029,50.229632278532754697
0.221000000000000030,48.031066855049679987
0.222000000000000031,45.868166949844621172
0.223000000000000032,43.726627938026538800
0.224000000000000032,41.596634883371962133
0.225000000000000033,39.472601308265311104
0.226000000000000034,37.352697119378419188
0.227000000000000035,35.238250748708196625
0.228000000000000036,33.133093707991193355
0.229000000000000037,31.042899908895996930
0.230000000000000038,28.974557963488734913
0.231000000000000039,26.935602565636934003
0.232000000000000040,24.933721033147797641
0.233000000000000040,22.976343075637856828
0.234000000000000041,21.070315666505834429
0.235000000000000042,19.221660314846182871
0.236000000000000043,17.435406814638959361
0.237000000000000044,15.715495457670353829
0.238000000000000045,14.064738512633081058
0.239000000000000046,12.484831297366351777
0.240000000000000047,10.976403231243313741
0.241000000000000048,9.539099703296233912
0.242000000000000048,8.171686306729700533
0.243000000000000049,6.872167872954388024
0.244000000000000050,5.637915709691523780
0.245000000000000051,4.465797447439570078
0.246000000000000052,3.352304881347003551
0.247000000000000053,2.293676128707130779
0.248000000000000054,1.286009283769691480
0.249000000000000055,0.325365527634125018
0.250000000000000056,-0.592139665451436481
0.251000000000000056,-1.470257995025436415
0.252000000000000057,-2.312542747937943677
0.253000000000000058,-3.122296023783383223
0.254000000000000059,-3.902528311420736973
0.255000000000000060,-4.655929704006865677
0.256000000000000061,-5.384851854484475453
0.257000000000000062,-6.091299645941283813
0.258000000000000063,-6.776931473512644466
0.259000000000000064,-7.443066998706761694
0.260000000000000064,-8.090701235874304231
0.261000000000000065,-8.720523857312610261
0.262000000000000066,-9.332942652150245877
0.263000000000000067,-9.928110139338564011
0.264000000000000068,-10.505952412110412197
0.265000000000000069,-11.066199376130523291
0.266000000000000070,-11.608415632853731125
0.267000000000000071,-12.132031350500806610
0.268000000000000071,-12.636372555244825833
0.269000000000000072,-13.120690362838317355
0.270000000000000073,-13.584188754574046953
0.271000000000000074,-14.026050580098029741
0.272000000000000075,-14.445461542431704771
0.273000000000000076,-14.841631987122507752
0.274000000000000077,-15.213816377469054686
0.275000000000000078,-15.561330391176188215
0.276000000000000079,-15.883565620658393058
0.277000000000000079,-16.180001899715300340
0.278000000000000080,-16.450217313728149549
0.279000000000000081,-16.693895979220062742
0.280000000000000082,-16.910833701979754551
0.281000000000000083,-17.100941641392712000
0.282000000000000084,-17.264248122599667568
0.283000000000000085,-17.400898748055709575
0.284000000000000086,-17.511154966437121772
0.285000000000000087,-17.595391260069177974
0.286000000000000087,-17.654091112539099129
0.287000000000000088,-17.687841916305902856
0.288000000000000089,-17.697328976289593783
0.289000000000000090,-17.683328759956520315
0.290000000000000091,-17.646701537624807088
0.291000000000000092,-17.588383548880848650
0.292000000000000093,-17.509378822375420981
0.293000000000000094,-17.410750767086845769
0.294000000000000095,-17.293613643597822715
0.295000000000000095,-17.159124014207783659
0.296000000000000096,-17.008472260946437160
0.297000000000000097,-16.842874250894730892
0.298000000000000098,-16.663563218766856977
0.299000000000000099,-16.471781927550800617
0.300000000000000100,-16.268775159218471060
0.301000000000000101,-16.055782579156815615
0.302000000000000102,-15.834032010083584296
0.303000000000000103,-15.604733143825677999
0.304000000000000103,-15.369071712476033653
0.305000000000000104,-15.128204134118234947
0.306000000000000105,-14.883252642519906317
0.307000000000000106,-14.635300904941820122
0.308000000000000107,-14.385390127482432732
0.309000000000000108,-14.134515643161003950
0.310000000000000109,-13.883623974219256425
0.311000000000000110,-13.633610356871452396
0.312000000000000111,-13.385316713930123456
0.313000000000000111,-13.139530058356436726
0.314000000000000112,-12.896981308802295985
0.315000000000000113,-12.658344496598203932
0.316000000000000114,-12.424236342371111519
0.317000000000000115,-12.195216179519405841
0.318000000000000116,-11.971786201103027381
0.319000000000000117,-11.754392006297944562
0.320000000000000118,-11.543423422389450295
0.321000000000000119,-11.339215578314263411
0.322000000000000119,-11.142050205982609867
0.323000000000000120,-10.952157145995869314
0.324000000000000121,-10.769716034902089064
0.325000000000000122,-10.594858151780238487
0.326000000000000123,-10.427668402695910999
0.327000000000000124,-10.268187422408974641
0.328000000000000125,-10.116413773622005223
0.329000000000000126,-9.972306225021018378
0.330000000000000127,-9.835786090365004952
0.331000000000000127,-9.706739611915994104
0.332000000000000128,-9.585020372553916701
0.333000000000000129,-9.470451721983172533
0.334000000000000130,-9.362829203499387631
0.335000000000000131,-9.261922968839648718
0.336000000000000132,-9.167480169678487556
0.337000000000000133,-9.079227315351594996
0.338000000000000134,-8.996872587382231501
0.339000000000000135,-8.920108102349249890
0.340000000000000135,-8.848612115565529734
0.341000000000000136,-8.782051158929125023
0.342000000000000137,-8.720082107164424556
0.343000000000000138,-8.662354167484608070
0.344000000000000139,-8.608510788479033948
0.345000000000000140,-8.558191484758854273
0.346000000000000141,-8.511033574580165961
0.347000000000000142,-8.466673828307111904
0.348000000000000143,-8.424750026177331819
0.349000000000000143,-8.384902424388911868
0.350000000000000144,-8.346775129043596309
0.351000000000000145,-8.310017377954912021
0.352000000000000146,-8.274284730764312812
0.353000000000000147,-8.239240168203702197
0.354000000000000148,-8.204555101701199504
0.355000000000000149,-8.169910294848952148
0.356000000000000150,-8.134996698539982418
0.357000000000000151,-8.099516201835944784
0.358000000000000151,-8.063182300851835294
0.359000000000000152,-8.025720688137884196
0.360000000000000153,-7.986869765205710792
0.361000000000000154,-7.946381080985966960
0.362000000000000155,-7.904019699120650166
0.363000000000000156,-7.859564497086057422
0.364000000000000157,-7.812808400213756777
0.365000000000000158,-7.763558553729057010
0.366000000000000159,-7.711636435959346336
0.367000000000000159,-7.656877915881606711
0.368000000000000160,-7.599133258179617378
0.369000000000000161,-7.538267078968222457
0.370000000000000162,-7.474158255316662114
0.371000000000000163,-7.406699791665789512
0.372000000000000164,-7.335798646186324490
0.373000000000000165,-7.261375520068996892
0.374000000000000166,-7.183364612672312077
0.375000000000000167,-7.101713345381805986
0.376000000000000167,-7.016382056956778968
0.377000000000000168,-6.927343673056634898
0.378000000000000169,-6.834583352551428348
0.379000000000000170,-6.738098113129470157
0.380000000000000171,-6.637896438620158435
0.381000000000000172,-6.533997870353519311
0.382000000000000173,-6.426432584779021795
0.383000000000000174,-6.315240959466878579
0.384000000000000175,-6.200473129514225690
0.385000000000000175,-6.082188536278423818
0.386000000000000176,-5.960455470259315547
0.387000000000000177,-5.835350609852686610
0.388000000000000178,-5.706958557598803772
0.389000000000000179,-5.575371375452538025
0.390000000000000180,-5.440688120506171899
0.391000000000000181,-5.303014382502090562
0.392000000000000182,-5.162461824381297859
0.393000000000000183,-5.019147727023869798
0.394000000000000183,-4.873194539251045398
0.395000000000000184,-4.724729434074082413
0.396000000000000185,-4.573883872093321479
0.397000000000000186,-4.420793172872315324
0.398000000000000187,-4.265596095035695257
0.399000000000000188,-4.108434425766278153
0.400000000000000189,-3.949452580307226235
0.401000000000000190,-3.788797212007221304
0.402000000000000191,-3.626616833383304872
0.403000000000000191,-3.463061448613965698
0.404000000000000192,-3.298282197817518746
0.405000000000000193,-3.132431013415106325
0.406000000000000194,-2.965660288825418434
0.407000000000000195,-2.798122559688799527
0.408000000000000196,-2.629970197771362539
0.409000000000000197,-2.461355117656108149
0.410000000000000198,-2.292428496286626149
0.411000000000000199,-2.123340505390229449
0.412000000000000199,-1.954240056771301637
0.413000000000000200,-1.785274560432213109
0.414000000000000201,-1.616589695447619324
0.415000000000000202,-1.448329193489159783
0.416000000000000203,-1.280634634871212985
0.417000000000000204,-1.113645256963201380
0.418000000000000205,-0.947497774792241843
0.419000000000000206,-0.782326213639045975
0.420000000000000207,-0.618261753411327164
0.421000000000000207,-0.455432584562906584
0.422000000000000208,-0.293963775310807696
0.423000000000000209,-0.133977149890206260
0.424000000000000210,0.024408822425275666
0.425000000000000211,0.181079127820380770
0.426000000000000212,0.335922298243472472
0.427000000000000213,0.488830491819135016
0.428000000000000214,0.639699563673009508
0.429000000000000214,0.788429127479167158
0.430000000000000215,0.934922608043889825
0.431000000000000216,1.079087285242558591
0.432000000000000217,1.220834329628651904
0.433000000000000218,1.360078830034231689
0.434000000000000219,1.496739813481766657
0.435000000000000220,1.630740257726276621
0.436000000000000221,1.762007096745388024
0.437000000000000222,1.890471219492742661
0.438000000000000222,2.016067462227383977
0.439000000000000223,2.138734594728439298
0.440000000000000224,2.258415300700637562
0.441000000000000225,2.375056152671743526
0.442000000000000226,2.488607581678041747
0.443000000000000227,2.599023842029278164
0.444000000000000228,2.706262971438406328
0.445000000000000229,2.810286746796015755
0.446000000000000230,2.911060635862871671
0.447000000000000230,3.008553745147978020
0.448000000000000231,3.102738764232611857
0.449000000000000232,3.193591906794235324
0.450000000000000233,3.281092848577262799
0.451000000000000234,3.365224662550428292
0.452000000000000235,3.445973751483597969
0.453000000000000236,3.523329778169509208
0.454000000000000237,3.597285593508536383
0.455000000000000238,3.667837162667620277
0.456000000000000238,3.734983489516706445
0.457000000000000239,3.798726539539251768
0.458000000000000240,3.859071161405478900
0.459000000000000241,3.916025007390451229
0.460000000000000242,3.969598452811177847
0.461000000000000243,4.019804514650419769
0.462000000000000244,4.066658769527343509
0.463000000000000245,4.110179271168525439
0.464000000000000246,4.150386467525739143
0.465000000000000246,4.187303117680237108
0.466000000000000247,4.220954208666663376
0.467000000000000248,4.251366872343160352
0.468000000000000249,4.278570302427736394
0.469000000000000250,4.302595671814877676
0.470000000000000251,4.323476050280111060
0.471000000000000252,4.341246322674376934
0.472000000000000253,4.355943107704030481
0.473000000000000254,4.367604677386867529
0.474000000000000254,4.376270877268849446
0.475000000000000255,4.381983047480847659
0.476000000000000256,4.384783944709640835
0.477000000000000257,4.384717665152118471
0.478000000000000258,4.381829568516908857
0.479000000000000259,4.376166203132902055
0.480000000000000260,4.367775232219335280
0.481000000000000261,4.356705361368012674
0.482000000000000262,4.343006267283557875
0.483000000000000262,4.326728527823908266
0.484000000000000263,4.307923553378815384
0.485000000000000264,4.286643519620802145
0.486000000000000265,4.262941301658818460
0.487000000000000266,4.236870409621798395
0.488000000000000267,4.208484925695696433
0.489000000000000268,4.177839442634264877
0.490000000000000269,4.144989003761057056
0.491000000000000270,4.109989044476811237
0.492000000000000270,4.072895335283876150
0.493000000000000271,4.033763926336352945
0.494000000000000272,3.992651093522452843
0.495000000000000273,3.949613286082553909
0.496000000000000274,3.904707075764862534
0.497000000000000275,3.857989107517777683
0.498000000000000276,3.809516051716204110
0.499000000000000277,3.759344557917336349
0.500000000000000222,3.707531210139038080
0.501000000000000334,3.654132483652864583
0.502000000000000224,3.599204703281523532
0.503000000000000336,3.542804003189446771
0.504000000000000226,3.484986288153591349
0.505000000000000338,3.425807196300024948
0.506000000000000227,3.365322063291062982
0.507000000000000339,3.303585887945980737
0.508000000000000229,3.240653299277872268
0.509000000000000341,3.176578524927456737
0.510000000000000231,3.111415360974659539
0.511000000000000343,3.045217143106921043
0.512000000000000233,2.978036719123427822
0.513000000000000345,2.909926422752748820
0.514000000000000234,2.840938048761707968
0.515000000000000346,2.771122829331829074
0.516000000000000236,2.700531411680077376
0.517000000000000348,2.629213836899185530
0.518000000000000238,2.557219519993586321
0.519000000000000350,2.484597231085371227
0.520000000000000240,2.411395077765706940
0.521000000000000352,2.337660488565667105
0.522000000000000242,2.263440197521380703
0.523000000000000353,2.188780229807078648
0.524000000000000243,2.113725888410777909
0.525000000000000355,2.038321741826019995
0.526000000000000245,1.962611612734163291
0.527000000000000357,1.886638567650710030
0.528000000000000247,1.810444907510200041
0.529000000000000359,1.734072159163313032
0.530000000000000249,1.657561067760721540
0.531000000000000361,1.580951589997717344
0.532000000000000250,1.504282888194409695
0.533000000000000362,1.427593325185701589
0.534000000000000252,1.350920459996535872
0.535000000000000364,1.274301044276629380
0.536000000000000254,1.197771019471004728
0.537000000000000366,1.121365514700932930
0.538000000000000256,1.045118845331981294
0.539000000000000368,0.969064512204637962
0.540000000000000258,0.893235201504599230
0.541000000000000369,0.817662785248847612
0.542000000000000259,0.742378322365402243
0.543000000000000371,0.667412060343494540
0.544000000000000261,0.592793437432518333
0.545000000000000373,0.518551085367666031
0.546000000000000263,0.444712832601102281
0.547000000000000375,0.371305708017150793
0.548000000000000265,0.298355945111571097
0.549000000000000377,0.225888986613834802
0.550000000000000266,0.153929489533346842
0.551000000000000378,0.082501330609462797
0.552000000000000268,0.011627612146807187
0.553000000000000380,-0.058669331783164358
0.554000000000000270,-0.128367928792224778
0.555000000000000382,-0.197447361295248702
0.556000000000000272,-0.265887559316913269
0.557000000000000384,-0.333669193002532394
0.558000000000000274,-0.400773664849396805
0.559000000000000385,-0.467183101674935930
0.560000000000000275,-0.532880346337261779
0.561000000000000387,-0.597848949223720671
0.562000000000000277,-0.662073159522021726
0.563000000000000389,-0.725537916288903295
0.564000000000000279,-0.788228839330049169
0.565000000000000391,-0.850132219905391673
0.566000000000000281,-0.911235011272734652
0.567000000000000393,-0.971524819083081526
0.568000000000000282,-1.030989891639813916
0.569000000000000394,-1.089619110034335092
0.570000000000000284,-1.147401978169468650
0.571000000000000396,-1.204328612682678212
0.572000000000000286,-1.260389732779571004
0.573000000000000398,-1.315576649988863700
0.574000000000000288,-1.369881257848794220
0.575000000000000400,-1.423296021535368938
0.576000000000000290,-1.475813967441646835
0.577000000000000401,-1.527428672717865865
0.578000000000000291,-1.578134254780960255
0.579000000000000403,-1.627925360802459309
0.580000000000000293,-1.676797157182821296
0.581000000000000405,-1.724745319020575263
0.582000000000000295,-1.771766019583495222
0.583000000000000407,-1.817855919789796770
0.584000000000000297,-1.863012157705866700
0.585000000000000409,-1.907232338067918365
0.586000000000000298,-1.950514521833581538
0.587000000000000410,-1.992857215770171164
0.588000000000000300,-2.034259362085161005
0.589000000000000412,-2.074720328105029488
0.590000000000000302,-2.114239896007518382
0.591000000000000414,-2.152818252612878069
0.592000000000000304,-2.190455979238781214
0.593000000000000416,-2.227154041623802705
0.594000000000000306,-2.262913779923831914
0.595000000000000417,-2.297736898785830206
0.596000000000000307,-2.331625457502718213
0.597000000000000419,-2.364581860253486045
0.598000000000000309,-2.396608846431957929
0.599000000000000421,-2.427709481067620967
0.600000000000000311,-2.457887145341801194
0.601000000000000423,-2.487145527202174300
0.602000000000000313,-2.515488612078264019
0.603000000000000425,-2.542920673700920009
0.604000000000000314,-2.569446265027788723
0.605000000000000426,-2.595070209277488438
0.606000000000000316,-2.619797591074268794
0.607000000000000428,-2.643633747705328663
0.608000000000000318,-2.666584260492516734
0.609000000000000430,-2.688654946280078839
0.610000000000000320,-2.709851849039903282
0.611000000000000432,-2.730181231595757652
0.612000000000000322,-2.749649567467579381
0.613000000000000433,-2.768263532837051066
0.614000000000000323,-2.786029998635363381
0.615000000000000435,-2.802956022754037324
0.616000000000000325,-2.819048842379447972
0.617000000000000437,-2.834315866451843746
0.618000000000000327,-2.848764668249141430
0.619000000000000439,-2.862402978096069361
0.620000000000000329,-2.875238676198857313
0.621000000000000441,-2.887279785605696425
0.622000000000000330,-2.898534465293077123
0.623000000000000442,-2.909011003378037863
0.624000000000000332,-2.918717810456151085
0.625000000000000444,-2.927663413065251685
0.626000000000000334,-2.935856447274516778
0.627000000000000446,-2.943305652398674255
0.628000000000000336,-2.950019864836926242
0.629000000000000448,-2.956008012036153154
0.630000000000000338,-2.961279106577792142
0.631000000000000449,-2.965842240387968953
0.632000000000000339,-2.969706579070074071
0.633000000000000451,-2.972881356359164950
0.634000000000000341,-2.975375868697402559
0.635000000000000453,-2.977199469929803222
0.636000000000000343,-2.978361566119266612
0.637000000000000455,-2.978871610480212873
0.638000000000000345,-2.978739098429638243
0.639000000000000457,-2.977973562754802739
0.640000000000000346,-2.976584568896389005
0.641000000000000458,-2.974581710346149599
0.642000000000000348,-2.971974604157879618
0.643000000000000460,-2.968772886570628877
0.644000000000000350,-2.964986208742987905
0.645000000000000462,-2.960624232597209637
0.646000000000000352,-2.955696626772010838
0.647000000000000464,-2.950213062682798260
0.648000000000000353,-2.944183210688029018
0.649000000000000465,-2.937616736360420866
0.650000000000000355,-2.930523296861788918
0.651000000000000467,-2.922912537420031764
0.652000000000000357,-2.914794087907154996
0.653000000000000469,-2.906177559516683662
0.654000000000000359,-2.897072541539452040
0.655000000000000471,-2.887488598236081838
0.656000000000000361,-2.877435265804957787
0.657000000000000473,-2.866922049444223575
0.658000000000000362,-2.855958420506449436
0.659000000000000474,-2.844553813744506776
0.660000000000000364,-2.832717624647302923
0.661000000000000476,-2.820459206863902502
0.662000000000000366,-2.807787869714676976
0.663000000000000478,-2.794712875787988882
0.664000000000000368,-2.781243438621080255
