# AuFCC100-Ablate5_CS-13835861-AC
# h[nm],U(h)[kJ/mol]
0.149999999999999994,183.436229558792405214
0.150999999999999995,177.814367336016431409
0.151999999999999996,173.561478195926525814
0.152999999999999997,169.622237080413356125
0.153999999999999998,165.645429305300865508
0.154999999999999999,161.590019060326739009
0.156000000000000000,157.522004378150825232
0.157000000000000001,153.519767030613763836
0.158000000000000002,149.637975144305471531
0.159000000000000002,145.900638116125321631
0.160000000000000003,142.306709839937354900
0.161000000000000004,138.839416175720771207
0.162000000000000005,135.475063187519481289
0.163000000000000006,132.189661618315625446
0.164000000000000007,128.963060040670029593
0.165000000000000008,125.780914121579414200
0.166000000000000009,122.635047161960798690
0.167000000000000010,119.522770869103737823
0.168000000000000010,116.445650225908337916
0.169000000000000011,113.408077706563886977
0.170000000000000012,110.415904557159848309
0.171000000000000013,107.475276524875283712
0.172000000000000014,104.591743757074453924
0.173000000000000015,101.769659355087839003
0.174000000000000016,99.011845276276133632
0.175000000000000017,96.319483965343408727
0.176000000000000018,93.692185270052220858
0.177000000000000018,91.128177317748964015
0.178000000000000019,88.624574198209217002
0.179000000000000020,86.177680282225310293
0.180000000000000021,83.783299178644924154
0.181000000000000022,81.437023582001415889
0.182000000000000023,79.134489883041212011
0.183000000000000024,76.871588009122234553
0.184000000000000025,74.644622357907110199
0.185000000000000026,72.450423866456247879
0.186000000000000026,70.286416297155938082
0.187000000000000027,68.150641856715168387
0.188000000000000028,66.041752455868277139
0.189000000000000029,63.958973432154756722
0.190000000000000030,61.902046555008745088
0.191000000000000031,59.871158754240525468
0.192000000000000032,57.866862382684210786
0.193000000000000033,55.889992042867469024
0.194000000000000034,53.941582156843722373
0.195000000000000034,52.022788599523096309
0.196000000000000035,50.134816893891120060
0.197000000000000036,48.278858712102149298
0.198000000000000037,46.456037758586560926
0.199000000000000038,44.667365539742085900
0.200000000000000039,42.913707052096654593
0.201000000000000040,41.195756044403928797
0.202000000000000041,39.514019222675258902
0.203000000000000042,37.868808562026103459
0.204000000000000042,36.260240755447028960
0.205000000000000043,34.688242756708639547
0.206000000000000044,33.152562352135760193
0.207000000000000045,31.652782714003130593
0.208000000000000046,30.188339937635806365
0.209000000000000047,28.758542636719816699
0.210000000000000048,27.362592759647423435
0.211000000000000049,25.999606887799966870
0.212000000000000050,24.668637379387384101
0.213000000000000050,23.368692825678174074
0.214000000000000051,22.098757386890916621
0.215000000000000052,20.857808670209045943
0.216000000000000053,19.644833900537314264
0.217000000000000054,18.458844214545450768
0.218000000000000055,17.298886979545009979
0.219000000000000056,16.164056100529236915
0.220000000000000057,15.053500331299133563
0.221000000000000058,13.966429649301250748
0.222000000000000058,12.902119789071980094
0.223000000000000059,11.859915056646936904
0.224000000000000060,10.839229567636930796
0.225000000000000061,9.839547065650290136
0.226000000000000062,8.860419486119443633
0.227000000000000063,7.901464434130306635
0.228000000000000064,6.962361744295148647
0.229000000000000065,6.042849286748245063
0.230000000000000066,5.142718176635963090
0.231000000000000066,4.261807535606382480
0.232000000000000067,3.399998943322422917
0.233000000000000068,2.557210705397319206
0.234000000000000069,1.733392051803331002
0.235000000000000070,0.928517367090645918
0.236000000000000071,0.142580540980092790
0.237000000000000072,-0.624410484689918555
0.238000000000000073,-1.372438908864611395
0.239000000000000073,-2.101483951845731113
0.240000000000000074,-2.811525382297778375
0.241000000000000075,-3.502547659606477737
0.242000000000000076,-4.174543669830101500
0.243000000000000077,-4.827518041931997850
0.244000000000000078,-5.461490038542325287
0.245000000000000079,-6.076496022173883738
0.246000000000000080,-6.672591503628416021
0.247000000000000081,-7.249852784309661402
0.248000000000000081,-7.808378208344183058
0.249000000000000082,-8.348289043850288138
0.250000000000000111,-8.869730015441216864
0.251000000000000112,-9.372869512154327509
0.252000000000000113,-9.857899496524217042
0.253000000000000114,-10.325035141515371606
0.254000000000000115,-10.774514222564873123
0.255000000000000115,-11.206596292103785828
0.256000000000000116,-11.621561663688202870
0.257000000000000117,-12.019710232323722821
0.258000000000000118,-12.401360156758657993
0.259000000000000119,-12.766846428498391575
0.260000000000000120,-13.116519351094876100
0.261000000000000121,-13.450742951928486235
0.262000000000000122,-13.769893347261563221
0.263000000000000123,-14.074357079830559059
0.264000000000000123,-14.364529446687853920
0.265000000000000124,-14.640812833426085859
0.266000000000000125,-14.903615069340855115
0.267000000000000126,-15.153347816527633185
0.268000000000000127,-15.390425004383621044
0.269000000000000128,-15.615261319505503224
0.270000000000000129,-15.828270759552225400
0.271000000000000130,-16.029865258285820317
0.272000000000000131,-16.220453387719260263
0.273000000000000131,-16.400439142093386380
0.274000000000000132,-16.570220807279522290
0.275000000000000133,-16.730189918160650819
0.276000000000000134,-16.880730305584862094
0.277000000000000135,-17.022217233607921827
0.278000000000000136,-17.155016626948757619
0.279000000000000137,-17.279484387868098594
0.280000000000000138,-17.395965801045630172
0.281000000000000139,-17.504795024471839326
0.282000000000000139,-17.606294663882994911
0.283000000000000140,-17.700775427849155363
0.284000000000000141,-17.788535860270378919
0.285000000000000142,-17.869862146743219711
0.286000000000000143,-17.945027991022136860
0.287000000000000144,-18.014294557615894377
0.288000000000000145,-18.077910476423049602
0.289000000000000146,-18.136111905218022855
0.290000000000000147,-18.189122645747996643
0.291000000000000147,-18.237154309184852252
0.292000000000000148,-18.280406526694335412
0.293000000000000149,-18.319067200930174266
0.294000000000000150,-18.353312794332985902
0.295000000000000151,-18.383308650208526558
0.296000000000000152,-18.409209342672632204
0.297000000000000153,-18.431159051681145655
0.298000000000000154,-18.449291959506314953
0.299000000000000155,-18.463732665176770809
0.300000000000000155,-18.474596613562436431
0.301000000000000156,-18.481990535956473565
0.302000000000000157,-18.486012899183215552
0.303000000000000158,-18.486754360439888956
0.304000000000000159,-18.484298225261536430
0.305000000000000160,-18.478720906179574968
0.306000000000000161,-18.470092379825143070
0.307000000000000162,-18.458476640406864533
0.308000000000000163,-18.443932147667315036
0.309000000000000163,-18.426512267594642225
0.310000000000000164,-18.406265704331918442
0.311000000000000165,-18.383236921888315152
0.312000000000000166,-18.357466554412170012
0.313000000000000167,-18.328991803935053895
0.314000000000000168,-18.297846824639044883
0.315000000000000169,-18.264063092835428392
0.316000000000000170,-18.227669761972510543
0.317000000000000171,-18.188694002111724046
0.318000000000000171,-18.147161323426541202
0.319000000000000172,-18.103095883386476572
0.320000000000000173,-18.056520777388719523
0.321000000000000174,-18.007458312694019753
0.322000000000000175,-17.955930265609804763
0.323000000000000176,-17.901958121943629010
0.324000000000000177,-17.845563300823421571
0.325000000000000178,-17.786767362047608998
0.326000000000000179,-17.725592197189751431
0.327000000000000179,-17.662060204736139468
0.328000000000000180,-17.596194449584647401
0.329000000000000181,-17.528018807276911417
0.330000000000000182,-17.457558093373489072
0.331000000000000183,-17.384838178416430310
0.332000000000000184,-17.309886088951518701
0.333000000000000185,-17.232730095107648083
0.334000000000000186,-17.153399785250691423
0.335000000000000187,-17.071926128245966225
0.336000000000000187,-16.988341523876147932
0.337000000000000188,-16.902679841970787322
0.338000000000000189,-16.814976450810370068
0.339000000000000190,-16.725268235370869263
0.340000000000000191,-16.633593605975640628
0.341000000000000192,-16.539992497920323444
0.342000000000000193,-16.444506362631670982
0.343000000000000194,-16.347178150916512607
0.344000000000000195,-16.248052288848068514
0.345000000000000195,-16.147174646828865718
0.346000000000000196,-16.044592502357538422
0.347000000000000197,-15.940354497015533752
0.348000000000000198,-15.834510588176232915
0.349000000000000199,-15.727111995924738963
0.350000000000000200,-15.618211145661964778
0.351000000000000201,-15.507861606850473990
0.352000000000000202,-15.396118028343511952
0.353000000000000203,-15.283036070721939481
0.354000000000000203,-15.168672336046501670
0.355000000000000204,-15.053084295415505522
0.356000000000000205,-14.936330214700541674
0.357000000000000206,-14.818469078815301287
0.358000000000000207,-14.699560514854391968
0.359000000000000208,-14.579664714422296612
0.360000000000000209,-14.458842355454359918
0.361000000000000210,-14.337154523814941598
0.362000000000000210,-14.214662634940449237
0.363000000000000211,-14.091428355778464976
0.364000000000000212,-13.967513527257640504
0.365000000000000213,-13.842980087506751019
0.366000000000000214,-13.717889996025899535
0.367000000000000215,-13.592305158997319836
0.368000000000000216,-13.466287355908486134
0.369000000000000217,-13.339898167645765525
0.370000000000000218,-13.213198906203032834
0.371000000000000218,-13.086250546136067641
0.372000000000000219,-12.959113657880703130
0.373000000000000220,-12.831848343040316962
0.374000000000000221,-12.704514171736224881
0.375000000000000222,-12.577170122103039418
0.376000000000000223,-12.449874522000479615
0.377000000000000224,-12.322684993002258835
0.378000000000000225,-12.195658396713207949
0.379000000000000226,-12.068850783456067433
0.380000000000000226,-11.942317343360851822
0.381000000000000227,-11.816112359880751370
0.382000000000000228,-11.690289165751259759
0.383000000000000229,-11.564900101401230259
0.384000000000000230,-11.439996475817711286
0.385000000000000231,-11.315628529860138229
0.386000000000000232,-11.191845402012829069
0.387000000000000233,-11.068695096559522995
0.388000000000000234,-10.946224454157967187
0.389000000000000234,-10.824479124788254580
0.390000000000000235,-10.703503543043321855
0.391000000000000236,-10.583340905726702275
0.392000000000000237,-10.464033151718121317
0.393000000000000238,-10.345620944064719993
0.394000000000000239,-10.228143654251940831
0.395000000000000240,-10.111639348605917732
0.396000000000000241,-9.996144776776256791
0.397000000000000242,-9.881695362246025738
0.398000000000000242,-9.768325194814011070
0.399000000000000243,-9.656067024992243120
0.400000000000000244,-9.544952260260574306
0.401000000000000245,-9.435010963119061955
0.402000000000000246,-9.326271850877445146
0.403000000000000247,-9.218762297120587590
0.404000000000000248,-9.112508334788149256
0.405000000000000249,-9.007534660806193472
0.406000000000000250,-8.903864642208240809
0.407000000000000250,-8.801520323683373448
0.408000000000000251,-8.700522436488805411
0.409000000000000252,-8.600890408664856324
0.410000000000000253,-8.502642376490319620
0.411000000000000254,-8.405795197116933792
0.412000000000000255,-8.310364462322095136
0.413000000000000256,-8.216364513319760476
0.414000000000000257,-8.123808456570063896
0.415000000000000258,-8.032708180529382958
0.416000000000000258,-7.943074373283101508
0.417000000000000259,-7.854916541004757669
0.418000000000000260,-7.768243027186052529
0.419000000000000261,-7.683061032583400340
0.420000000000000262,-7.599376635828049231
0.421000000000000263,-7.517194814647810475
0.422000000000000264,-7.436519467649816306
0.423000000000000265,-7.357353436614997300
0.424000000000000266,-7.279698529256511286
0.425000000000000266,-7.203555542395259081
0.426000000000000267,-7.128924285507460823
0.427000000000000268,-7.055803604600455969
0.428000000000000269,-6.984191406374238298
0.429000000000000270,-6.914084682627795075
0.430000000000000271,-6.845479534870581695
0.431000000000000272,-6.778371199101064448
0.432000000000000273,-6.712754070715395649
0.433000000000000274,-6.648621729511029699
0.434000000000000274,-6.585966964751174046
0.435000000000000275,-6.524781800257549946
0.436000000000000276,-6.465057519500268413
0.437000000000000277,-6.406784690654857783
0.438000000000000278,-6.349953191598048718
0.439000000000000279,-6.294552234815045111
0.440000000000000280,-6.240570392192369198
0.441000000000000281,-6.187995619671654346
0.442000000000000282,-6.136815281741117012
0.443000000000000282,-6.087016175742355095
0.444000000000000283,-6.038584555971772794
0.445000000000000284,-5.991506157556731438
0.446000000000000285,-5.945766220087747023
0.447000000000000286,-5.901349510989556180
0.448000000000000287,-5.858240348614239146
0.449000000000000288,-5.816422625041485439
0.450000000000000289,-5.775879828571423680
0.451000000000000290,-5.736595065896890056
0.452000000000000290,-5.698551083942853701
0.453000000000000291,-5.661730291361552148
0.454000000000000292,-5.626114779673051736
0.455000000000000293,-5.591686344041582934
0.456000000000000294,-5.558426503679094743
0.457000000000000295,-5.526316521868100295
0.458000000000000296,-5.495337425596860115
0.459000000000000297,-5.465470024800625382
0.460000000000000298,-5.436694931203417624
0.461000000000000298,-5.408992576755558446
0.462000000000000299,-5.382343231662935601
0.463000000000000300,-5.356727022004394101
0.464000000000000301,-5.332123946934666847
0.465000000000000302,-5.308513895470484911
0.466000000000000303,-5.285876662858373543
0.467000000000000304,-5.264191966522971278
0.468000000000000305,-5.243439461595498230
0.469000000000000306,-5.223598756022210132
0.470000000000000306,-5.204649425253458972
0.471000000000000307,-5.186571026514129379
0.472000000000000308,-5.169343112656980210
0.473000000000000309,-5.152945245600551338
0.474000000000000310,-5.137357009353848092
0.475000000000000311,-5.122558022630355978
0.476000000000000312,-5.108527951054285587
0.477000000000000313,-5.095246518962215809
0.478000000000000314,-5.082693520803688969
0.479000000000000314,-5.070848832144648988
0.480000000000000315,-5.059692420277656311
0.481000000000000316,-5.049204354443406650
0.482000000000000317,-5.039364815667978448
0.483000000000000318,-5.030154106220722454
0.484000000000000319,-5.021552658697712168
0.485000000000000320,-5.013541044736032681
0.486000000000000321,-5.006099983364205919
0.487000000000000322,-4.999210348994303388
0.488000000000000322,-4.992853179061389035
0.489000000000000323,-4.987009681316157739
0.490000000000000324,-4.981661240776602106
0.491000000000000325,-4.976789426344799594
0.492000000000000326,-4.972375997094848010
0.493000000000000327,-4.968402908238275018
0.494000000000000328,-4.964852316773045615
0.495000000000000329,-4.961706586822622889
0.496000000000000330,-4.958948294671346346
0.497000000000000330,-4.956560233502664836
0.498000000000000331,-4.954525417846558533
0.499000000000000332,-4.952827087742694090
0.500000000000000333,-4.951448712625812654
0.501000000000000334,-4.950373994939760713
0.502000000000000335,-4.949586873486760297
0.503000000000000336,-4.949071526518326714
0.504000000000000337,-4.948812374574340645
0.505000000000000338,-4.948794083076714756
0.506000000000000338,-4.949001564684064824
0.507000000000000339,-4.949419981413791803
0.508000000000000340,-4.950034746537904873
0.509000000000000341,-4.950831526258923532
0.510000000000000342,-4.951796241172043089
0.511000000000000343,-4.952915067519886527
0.512000000000000344,-4.954174438245859236
0.513000000000000345,-4.955561043852253711
0.514000000000000346,-4.957061833069196233
0.515000000000000346,-4.958664013340236210
0.516000000000000347,-4.960355051130549420
0.517000000000000348,-4.962122672063631335
0.518000000000000349,-4.963954860892032528
0.519000000000000350,-4.965839861307949299
0.520000000000000351,-4.967766175599181544
0.521000000000000352,-4.969722564155934386
0.522000000000000353,-4.971698044833859242
0.523000000000000353,-4.973681892178690056
0.524000000000000354,-4.975663636517679400
0.525000000000000355,-4.977633062922963703
0.526000000000000356,-4.979580210051887335
0.527000000000000357,-4.981495368869304663
0.528000000000000358,-4.983369081256666000
0.529000000000000359,-4.985192138512654303
0.530000000000000360,-4.986955579750086187
0.531000000000000361,-4.988650690193628279
0.532000000000000361,-4.990268999382832860
0.533000000000000362,-4.991802279284859978
0.534000000000000363,-4.993242542321222111
0.535000000000000364,-4.994582039312720489
0.536000000000000365,-4.995813257346691572
0.537000000000000366,-4.996928917570585327
0.538000000000000367,-4.997921972915771782
0.539000000000000368,-4.998785605755466932
0.540000000000000369,-4.999513225500391123
0.541000000000000369,-5.000098466135961317
0.542000000000000370,-5.000535183704404751
0.543000000000000371,-5.000817453735367124
0.544000000000000372,-5.000939568628348653
0.545000000000000373,-5.000896034990219619
0.546000000000000374,-5.000681570931045705
0.547000000000000375,-5.000291103321276687
0.548000000000000376,-4.999719765013412420
0.549000000000000377,-4.998962892030929694
0.550000000000000377,-4.998016020727442665
0.551000000000000378,-4.996874884918787174
0.552000000000000379,-4.995535412990751212
0.553000000000000380,-4.993993724985006821
0.554000000000000381,-4.992246129665769416
0.555000000000000382,-4.990289121569706055
0.556000000000000383,-4.988119378041278473
0.557000000000000384,-4.985733756256005123
0.558000000000000385,-4.983129290233679676
0.559000000000000385,-4.980303187843835744
0.560000000000000386,-4.977252827805354052
0.561000000000000387,-4.973975756682373017
0.562000000000000388,-4.970469685878271093
0.563000000000000389,-4.966732488629712172
0.564000000000000390,-4.962762197002398956
0.565000000000000391,-4.958556998890382594
0.566000000000000392,-4.954115235020491781
0.567000000000000393,-4.949435395963522666
0.568000000000000393,-4.944516119153665734
0.569000000000000394,-4.939356185917704423
0.570000000000000395,-4.933954518515355936
0.571000000000000396,-4.928310177192058994
0.572000000000000397,-4.922422357245620717
0.573000000000000398,-4.916290386107824872
0.574000000000000399,-4.909913720442271590
0.575000000000000400,-4.903291943259559638
0.576000000000000401,-4.896424761050833574
0.577000000000000401,-4.889312000940844172
0.578000000000000402,-4.881953607861357902
0.579000000000000403,-4.874349641745935102
0.580000000000000404,-4.866500274746950794
0.581000000000000405,-4.858405788475653075
0.582000000000000406,-4.850066571266101967
0.583000000000000407,-4.841483115463684150
0.584000000000000408,-4.832656014738986983
0.585000000000000409,-4.823585961427587776
0.586000000000000409,-4.814273743896501756
0.587000000000000410,-4.804720243937806501
0.588000000000000411,-4.794926434189975772
0.589000000000000412,-4.784893375587532027
0.590000000000000413,-4.774622214839359557
0.591000000000000414,-4.764114181936236037
0.592000000000000415,-4.753370587687954618
0.593000000000000416,-4.742392821290368765
0.594000000000000417,-4.731182347922767484
0.595000000000000417,-4.719740706375910477
0.596000000000000418,-4.708069506710880425
0.597000000000000419,-4.696170427949217796
0.598000000000000420,-4.684045215794348849
0.599000000000000421,-4.671695680384682525
0.600000000000000422,-4.659123694078462385
0.601000000000000423,-4.646331189270528128
0.602000000000000424,-4.633320156241176768
0.603000000000000425,-4.620092641037170544
0.604000000000000425,-4.606650743384976820
0.605000000000000426,-4.592996614636326136
0.606000000000000427,-4.579132455746164787
0.607000000000000428,-4.565060515282862497
0.608000000000000429,-4.550783087470955834
0.609000000000000430,-4.536302510266064125
