# AuFCC100-Ablate5_CS-30663-AC
# h[nm],U(h)[kJ/mol]
0.200000000000000011,116.529910492650742526
0.201000000000000012,108.093408842241615275
0.202000000000000013,103.325120468678207430
0.203000000000000014,100.192373037298793292
0.204000000000000015,97.573231174990297632
0.205000000000000016,94.914554027979761486
0.206000000000000016,92.001952591744583287
0.207000000000000017,88.808756165792118509
0.208000000000000018,85.399985809020634520
0.209000000000000019,81.873971616932635698
0.210000000000000020,78.329181065463529876
0.211000000000000021,74.847463503724668499
0.212000000000000022,71.487580027335056343
0.213000000000000023,68.284822202978091354
0.214000000000000024,65.253913187126428852
0.215000000000000024,62.393371697895815942
0.216000000000000025,59.690209673285266945
0.217000000000000026,57.124308521646170789
0.218000000000000027,54.672136718532428290
0.219000000000000028,52.309677844166778016
0.220000000000000029,50.014566044367882114
0.221000000000000030,47.767499579953877742
0.222000000000000031,45.553040222802636094
0.223000000000000032,43.359919420749704955
0.224000000000000032,41.180970363121417677
0.225000000000000033,39.012794589475724649
0.226000000000000034,36.855256862199759382
0.227000000000000035,34.710885494481296121
0.228000000000000036,32.584238983890358554
0.229000000000000037,30.481284717647326943
0.230000000000000038,28.408822256587722421
0.231000000000000039,26.373972501433389226
0.232000000000000040,24.383744908793978823
0.233000000000000040,22.444687732183517426
0.234000000000000041,20.562620816427347847
0.235000000000000042,18.742446538134430511
0.236000000000000043,16.988031818080091995
0.237000000000000044,15.302152499850109280
0.238000000000000045,13.686490578360382742
0.239000000000000046,12.141674581618824291
0.240000000000000047,10.667353695388513302
0.241000000000000048,9.262296835511985904
0.242000000000000048,7.924508703554117517
0.243000000000000049,6.651355817564758688
0.244000000000000050,5.439696520450046258
0.245000000000000051,4.286009980028214095
0.246000000000000052,3.186520168134010511
0.247000000000000053,2.137311713812534819
0.248000000000000054,1.134435350074768811
0.249000000000000055,0.174001404899207207
0.250000000000000056,-0.747739578873363953
0.251000000000000056,-1.634329472926794979
0.252000000000000057,-2.489048376193224055
0.253000000000000058,-3.314873187896329121
0.254000000000000059,-4.114448240403985935
0.255000000000000060,-4.890067085150425541
0.256000000000000061,-5.643664381274010822
0.257000000000000062,-6.376816746991872620
0.258000000000000063,-7.090751389776093205
0.259000000000000064,-7.786361325273832179
0.260000000000000064,-8.464226019410382662
0.261000000000000065,-9.124636336698079830
0.262000000000000066,-9.767622744641183630
0.263000000000000067,-10.392985804186203325
0.264000000000000068,-11.000328065040338998
0.265000000000000069,-11.589086578649002490
0.266000000000000070,-12.158565337587484478
0.267000000000000071,-12.707967045554230623
0.268000000000000071,-13.236423715026266024
0.269000000000000072,-13.743025678385553334
0.270000000000000073,-14.226848681769535432
0.271000000000000074,-14.686978808208412062
0.272000000000000075,-15.122535047243953699
0.273000000000000076,-15.532689391879651808
0.274000000000000077,-15.916684400296578161
0.275000000000000078,-16.273848209348994232
0.276000000000000079,-16.603607029626701319
0.277000000000000079,-16.905495188137042106
0.278000000000000080,-17.179162814786991476
0.279000000000000081,-17.424381293264818993
0.280000000000000082,-17.641046616086406118
0.281000000000000083,-17.829180797963282146
0.282000000000000084,-17.988931511749782999
0.283000000000000085,-18.120570117514866126
0.284000000000000086,-18.224488258223871640
0.285000000000000087,-18.301193195555327975
0.286000000000000087,-18.351302056938230578
0.287000000000000088,-18.375535160372372445
0.288000000000000089,-18.374708577353558780
0.289000000000000090,-18.349726086602665021
0.290000000000000091,-18.301570662595089800
0.291000000000000092,-18.231295633381261467
0.292000000000000093,-18.140015632119656175
0.293000000000000094,-18.028897456328433435
0.294000000000000095,-17.899150938285679047
0.295000000000000095,-17.752019919432591166
0.296000000000000096,-17.588773411196719110
0.297000000000000097,-17.410697014467121591
0.298000000000000098,-17.219084660115218099
0.299000000000000099,-17.015230723540295088
0.300000000000000100,-16.800422557286090353
0.301000000000000101,-16.575933477368771207
0.302000000000000102,-16.343016231110500058
0.303000000000000103,-16.102896967003161421
0.304000000000000103,-15.856769720447067229
0.305000000000000104,-15.605791423118612116
0.306000000000000105,-15.351077438214588256
0.307000000000000106,-15.093697618885130396
0.308000000000000107,-14.834672882787566905
0.309000000000000108,-14.574972291846396644
0.310000000000000109,-14.315510622966559851
0.311000000000000110,-14.057146412592350870
0.312000000000000111,-13.800680455601707308
0.313000000000000111,-13.546854737048514394
0.314000000000000112,-13.296351773681063690
0.315000000000000113,-13.049794340943336124
0.316000000000000114,-12.807745560277675523
0.317000000000000115,-12.570709320961068300
0.318000000000000116,-12.339131010394824628
0.319000000000000117,-12.113398526700615676
0.320000000000000118,-11.893843547626740786
0.321000000000000119,-11.680743030112143543
0.322000000000000119,-11.474320915367604456
0.323000000000000120,-11.274750014990186031
0.324000000000000121,-11.082154054407370225
0.325000000000000122,-10.896609850831426414
0.326000000000000123,-10.718149603873452946
0.327000000000000124,-10.546763278003144393
0.328000000000000125,-10.382401057130424604
0.329000000000000126,-10.224975852711876811
0.330000000000000127,-10.074365847937897911
0.331000000000000127,-9.930417061723598948
0.332000000000000128,-9.792945917395984523
0.333000000000000129,-9.661741802134859114
0.334000000000000130,-9.536569604375488396
0.335000000000000131,-9.417172217511531329
0.336000000000000132,-9.303272999339826654
0.337000000000000133,-9.194578177760865501
0.338000000000000134,-9.090779194283708620
0.339000000000000135,-8.991554977880905852
0.340000000000000135,-8.896574142691756393
0.341000000000000136,-8.805497103981558382
0.342000000000000137,-8.717978107626871420
0.343000000000000138,-8.633667169212047909
0.344000000000000139,-8.552211919589314704
0.345000000000000140,-8.473259354473803739
0.346000000000000141,-8.396457486315284768
0.347000000000000142,-8.321456897311668044
0.348000000000000143,-8.247912193005509707
0.349000000000000143,-8.175483356434618543
0.350000000000000144,-8.103837003293588026
0.351000000000000145,-8.032647539004875270
0.352000000000000146,-7.961598218998146237
0.353000000000000147,-7.890382113856301949
0.354000000000000148,-7.818702981308007338
0.355000000000000149,-7.746276047330495018
0.356000000000000150,-7.672828698876132947
0.357000000000000151,-7.598101090952214420
0.358000000000000151,-7.521846670968386661
0.359000000000000152,-7.443832623421627659
0.360000000000000153,-7.363840238116613257
0.361000000000000154,-7.281665205221477422
0.362000000000000155,-7.197117840537157640
0.363000000000000156,-7.110023244414729326
0.364000000000000157,-7.020221397790345819
0.365000000000000158,-6.927567198824704064
0.366000000000000159,-6.831930443632890260
0.367000000000000159,-6.733195754574621716
0.368000000000000160,-6.631262459544517540
0.369000000000000161,-6.526044425658604098
0.370000000000000162,-6.417469850678708454
0.371000000000000163,-6.305481015451644744
0.372000000000000164,-6.190034000565729499
0.373000000000000165,-6.071098370346023287
0.374000000000000166,-5.948656827220499821
0.375000000000000167,-5.822704839395314025
0.376000000000000167,-5.693250244678009331
0.377000000000000168,-5.560312833184017478
0.378000000000000169,-5.423923911555537103
0.379000000000000170,-5.284125851212888136
0.380000000000000171,-5.140971623047522421
0.381000000000000172,-4.994524320854358379
0.382000000000000173,-4.844856675688340886
0.383000000000000174,-4.692050563218077563
0.384000000000000175,-4.536196506037046383
0.385000000000000175,-4.377393172782159780
0.386000000000000176,-4.215746875799360360
0.387000000000000177,-4.051371068987942969
0.388000000000000178,-3.884385847349038468
0.389000000000000179,-3.714917449659538740
0.390000000000000180,-3.543097765591428416
0.391000000000000181,-3.369063848497160674
0.392000000000000182,-3.192957434986252174
0.393000000000000183,-3.014924472324332250
0.394000000000000183,-2.835114654596670114
0.395000000000000184,-2.653680968490947922
0.396000000000000185,-2.470779249470425931
0.397000000000000186,-2.286567749028882268
0.398000000000000187,-2.101206713641432522
0.399000000000000188,-1.914857975951918645
0.400000000000000189,-1.727684558667932802
0.401000000000000190,-1.539850291566972063
0.402000000000000191,-1.351519441954996514
0.403000000000000191,-1.162856358857523364
0.404000000000000192,-0.974025131167476355
0.405000000000000193,-0.785189259920030080
0.406000000000000194,-0.596511344814446232
0.407000000000000195,-0.408152785055779177
0.408000000000000196,-0.220273494544712539
0.409000000000000197,-0.033031631402814905
0.410000000000000198,0.153416658218085089
0.411000000000000199,0.338917482129477698
0.412000000000000199,0.523319430022802123
0.413000000000000200,0.706473787459422242
0.414000000000000201,0.888234736112535450
0.415000000000000202,1.068459540465086732
0.416000000000000203,1.247008721190634661
0.417000000000000204,1.423746215465976572
0.418000000000000205,1.598539524482419427
0.419000000000000206,1.771259848440115858
0.420000000000000207,1.941782209324966813
0.421000000000000207,2.109985561780185925
0.422000000000000208,2.275752892397091109
0.423000000000000209,2.438971307758593277
0.424000000000000210,2.599532111577905091
0.425000000000000211,2.757330871281442164
0.426000000000000212,2.912267474390572097
0.427000000000000213,3.064246175061023258
0.428000000000000214,3.213175631141637290
0.429000000000000214,3.358968932116324080
0.430000000000000215,3.501543618293567306
0.431000000000000216,3.640821691607666111
0.432000000000000217,3.776729618395197718
0.433000000000000218,3.909198324507680233
0.434000000000000219,4.038163183119140243
0.435000000000000220,4.163563995583634991
0.436000000000000221,4.285344965693764330
0.437000000000000222,4.403454667686525603
0.438000000000000222,4.517846008337537356
0.439000000000000223,4.628476183478949402
0.440000000000000224,4.735306629270335854
0.441000000000000225,4.838302968545073135
0.442000000000000226,4.937434952547727463
0.443000000000000227,5.032676398371149773
0.444000000000000228,5.124005122393873179
0.445000000000000229,5.211402870011203170
0.446000000000000230,5.294855241944943280
0.447000000000000230,5.374351617409117488
0.448000000000000231,5.449885074400342866
0.449000000000000232,5.521452307373377444
0.450000000000000233,5.589053542554045961
0.451000000000000234,5.652692451132935503
0.452000000000000235,5.712376060575190984
0.453000000000000236,5.768114664272891545
0.454000000000000237,5.819921729758097406
0.455000000000000238,5.867813805686400208
0.456000000000000238,5.911810427792051570
0.457000000000000239,5.951934024007865531
0.458000000000000240,5.988209818934349116
0.459000000000000241,6.020665737834907105
0.460000000000000242,6.049332310325452156
0.461000000000000243,6.074242573919192978
0.462000000000000244,6.095431977579420568
0.463000000000000245,6.112938285425560281
0.464000000000000246,6.126801480730192040
0.465000000000000246,6.137063670337484567
0.466000000000000247,6.143768989626293475
0.467000000000000248,6.146963508134202669
0.468000000000000249,6.146695135951889100
0.469000000000000250,6.143013530990616644
0.470000000000000251,6.135970007219163413
0.471000000000000252,6.125617443960226893
0.472000000000000253,6.112010196330130540
0.473000000000000254,6.095204006899911597
0.474000000000000254,6.075255918650038112
0.475000000000000255,6.052224189285344558
0.476000000000000256,6.026168206971709296
0.477000000000000257,5.997148407550489502
0.478000000000000258,5.965226193281873535
0.479000000000000259,5.930463853163685073
0.480000000000000260,5.892924484867132051
0.481000000000000261,5.852671918326949552
0.482000000000000262,5.809770641018803694
0.483000000000000262,5.764285724953023049
0.484000000000000263,5.716282755409435090
0.485000000000000264,5.665827761434767851
0.486000000000000265,5.612987148119993108
0.487000000000000266,5.557827630671978270
0.488000000000000267,5.500416170290420403
0.489000000000000268,5.440819911857675883
0.490000000000000269,5.379106123446618426
0.491000000000000270,5.315342137648370269
0.492000000000000270,5.249595294719445526
0.493000000000000271,5.181932887545045219
0.494000000000000272,5.112422108413229083
0.495000000000000273,5.041129997591825784
0.496000000000000274,4.968123393698609114
0.497000000000000275,4.893468885852654715
0.498000000000000276,4.817232767593061737
0.499000000000000277,4.739480992549848892
0.500000000000000222,4.660279131849481615
0.501000000000000334,4.579692333236806689
0.502000000000000224,4.497785281892992870
0.503000000000000336,4.414622162928221627
0.504000000000000226,4.330266625526640212
0.505000000000000338,4.244781748719514525
0.506000000000000227,4.158230008762311414
0.507000000000000339,4.070673248089521579
0.508000000000000229,3.982172645821212775
0.509000000000000341,3.892788689793375223
0.510000000000000231,3.802581150084799244
0.511000000000000343,3.711609054011093090
0.512000000000000233,3.619930662557437895
0.513000000000000345,3.527603448219705395
0.514000000000000234,3.434684074224586769
0.515000000000000346,3.341228375097662795
0.516000000000000236,3.247291338549414430
0.517000000000000348,3.152927088647548892
0.518000000000000238,3.058188870245264201
0.519000000000000350,2.963129034633492420
0.520000000000000240,2.867799026386553596
0.521000000000000352,2.772249371369214010
0.522000000000000242,2.676529665874478603
0.523000000000000353,2.580688566860120492
0.524000000000000243,2.484773783253568347
0.525000000000000355,2.388832068293357480
0.526000000000000245,2.292909212876918623
0.527000000000000357,2.197050039883359229
0.528000000000000247,2.101298399441434928
0.529000000000000359,2.005697165111901548
0.530000000000000249,1.910288230954777289
0.531000000000000361,1.815112509451494605
0.532000000000000250,1.720209930253062014
0.533000000000000362,1.625619439724703241
0.534000000000000252,1.531379001259177919
0.535000000000000364,1.437525596329544353
0.536000000000000254,1.344095226254722331
0.537000000000000366,1.251122914649334117
0.538000000000000256,1.158642710531830655
0.539000000000000368,1.066687692063572390
0.540000000000000258,0.975289970893545521
0.541000000000000369,0.884480697082285494
0.542000000000000259,0.794290064580800426
0.543000000000000371,0.704747317238937687
0.544000000000000261,0.615880755319678341
0.545000000000000373,0.527717742495280140
0.546000000000000263,0.440284713302442843
0.547000000000000375,0.353607181033216311
0.548000000000000265,0.267709746040312113
0.549000000000000377,0.182616104434180665
0.550000000000000266,0.098349057151563585
0.551000000000000378,0.014930519374084605
0.552000000000000268,-0.067618469722690325
0.553000000000000380,-0.149277736909863068
0.554000000000000270,-0.230027964554231801
0.555000000000000382,-0.309850679994840228
0.556000000000000272,-0.388728244664768852
0.557000000000000384,-0.466643842976211698
0.558000000000000274,-0.543581470985765036
0.559000000000000385,-0.619525924856817900
0.560000000000000275,-0.694462789135019909
0.561000000000000387,-0.768378424852869890
0.562000000000000277,-0.841259957478273757
0.563000000000000389,-0.913095264722337818
0.564000000000000279,-0.983872964220228519
0.565000000000000391,-1.053582401099439680
0.566000000000000281,-1.122213635448411573
0.567000000000000393,-1.189757429698949043
0.568000000000000282,-1.256205235934512832
0.569000000000000394,-1.321549183136955685
0.570000000000000284,-1.385782064382814927
0.571000000000000396,-1.448897324001100273
0.572000000000000286,-1.510889044702766970
0.573000000000000398,-1.571751934692844355
0.574000000000000288,-1.631481314774859470
0.575000000000000400,-1.690073105457634117
0.576000000000000290,-1.747523814073266735
0.577000000000000401,-1.803830521915724461
0.578000000000000291,-1.858990871408120471
0.579000000000000403,-1.913003053307240409
0.580000000000000293,-1.965865793952833229
0.581000000000000405,-2.017578342569568584
0.582000000000000295,-2.068140458628287881
0.583000000000000407,-2.117552399274019503
0.584000000000000297,-2.165814906826631692
0.585000000000000409,-2.212929196360946982
0.586000000000000298,-2.258896943371669686
0.587000000000000410,-2.303720271529231756
0.588000000000000300,-2.347401740531435355
0.589000000000000412,-2.389944334056353092
0.590000000000000302,-2.431351447820870426
0.591000000000000414,-2.471626877749700579
0.592000000000000304,-2.510774808258884327
0.593000000000000416,-2.548799800657907788
0.594000000000000306,-2.585706781674093069
0.595000000000000417,-2.621501032102927731
0.596000000000000307,-2.656188175587370637
0.597000000000000419,-2.689774167529454640
0.598000000000000309,-2.722265284136892838
0.599000000000000421,-2.753668111607295632
0.600000000000000311,-2.783989535452531250
0.601000000000000423,-2.813236729965450156
0.602000000000000313,-2.841417147830830103
0.603000000000000425,-2.868538509882795573
0.604000000000000314,-2.894608795009905755
0.605000000000000426,-2.919636230209878391
0.606000000000000316,-2.943629280794947345
0.607000000000000428,-2.966596640749235014
0.608000000000000318,-2.988547223239125472
0.609000000000000430,-3.009490151277495418
0.610000000000000320,-3.029434748542519262
0.611000000000000432,-3.048390530351744232
0.612000000000000322,-3.066367194791784989
0.613000000000000433,-3.083374614004042336
0.614000000000000323,-3.099422825626683142
0.615000000000000435,-3.114522024392928135
0.616000000000000325,-3.128682553885593798
0.617000000000000437,-3.141914898447938587
0.618000000000000327,-3.154229675250353804
0.619000000000000439,-3.165637626512759262
0.620000000000000329,-3.176149611882181922
0.621000000000000441,-3.185776600965021910
0.622000000000000330,-3.194529666013439684
0.623000000000000442,-3.202419974765152055
0.624000000000000332,-3.209458783435839901
0.625000000000000444,-3.215657429863436167
0.626000000000000334,-3.221027326803259427
0.627000000000000446,-3.225579955373107488
0.628000000000000336,-3.229326858647234566
0.629000000000000448,-3.232279635398124462
0.630000000000000338,-3.234449933984841152
0.631000000000000449,-3.235849446386857231
0.632000000000000339,-3.236489902382005290
0.633000000000000451,-3.236383063867235510
0.634000000000000341,-3.235540719320859182
0.635000000000000453,-3.233974678404909042
0.636000000000000343,-3.231696766706048329
0.637000000000000455,-3.228718820613717178
0.638000000000000345,-3.225052682333832799
0.639000000000000457,-3.220710195036635692
0.640000000000000346,-3.215703198137029428
0.641000000000000458,-3.210043522705833929
0.642000000000000348,-3.203742987010323784
0.643000000000000460,-3.196813392182384916
0.644000000000000350,-3.189266518012662921
0.645000000000000462,-3.181114118868920038
0.646000000000000352,-3.172367919737006048
0.647000000000000464,-3.163039612382628096
0.648000000000000353,-3.153140851632250552
0.649000000000000465,-3.142683251771279274
0.650000000000000355,-3.131678383057934667
0.651000000000000467,-3.120137768350821350
0.652000000000000357,-3.108072879848701842
0.653000000000000469,-3.095495135940350195
0.654000000000000359,-3.082415898163087142
0.655000000000000471,-3.068846468267877547
0.656000000000000361,-3.054798085389411888
0.657000000000000473,-3.040281923319276824
0.658000000000000362,-3.025309087880510894
0.659000000000000474,-3.009890614401683706
0.660000000000000364,-2.994037465288792443
0.661000000000000476,-2.977760527693126935
0.662000000000000366,-2.961070611273428632
0.663000000000000478,-2.943978446050447673
0.664000000000000368,-2.926494680352309086
