# AuFCC100-Ablate5_WaterUCD
# h[nm],U(h)[kJ/mol]
0.200000000000000011,75.992049558694887423
0.201000000000000012,73.143231267998757517
0.202000000000000013,71.023872694118409754
0.203000000000000014,69.158728117675707381
0.204000000000000015,67.321999434040890264
0.205000000000000016,65.431667583744939520
0.206000000000000016,63.481759005609589508
0.207000000000000017,61.500556317680583618
0.208000000000000018,59.526197642655333198
0.209000000000000019,57.593632197783605875
0.210000000000000020,55.728739239771030611
0.211000000000000021,53.946746868736155989
0.212000000000000022,52.253038240704164252
0.213000000000000023,50.645104892629895232
0.214000000000000024,49.114874976029540221
0.215000000000000024,47.650964246096215504
0.216000000000000025,46.240611378980688073
0.217000000000000026,44.871197465326261522
0.218000000000000027,43.531335043220877878
0.219000000000000028,42.211561327505322083
0.220000000000000029,40.904695304354163454
0.221000000000000030,39.605927610139701756
0.222000000000000031,38.312711596150691662
0.223000000000000032,37.024517839159805987
0.224000000000000032,35.742505391213441612
0.225000000000000033,34.469153103648551451
0.226000000000000034,33.207884558741220360
0.227000000000000035,31.962711168487487612
0.228000000000000036,30.737910198607757195
0.229000000000000037,29.537747975285732593
0.230000000000000038,28.366253322684467975
0.231000000000000039,27.227042268438218287
0.232000000000000040,26.123192105053249179
0.233000000000000040,25.057160851641526733
0.234000000000000041,24.030746864860333289
0.235000000000000042,23.045082650961738580
0.236000000000000043,22.100656697435020703
0.237000000000000044,21.197357254994987130
0.238000000000000045,20.334532358742890779
0.239000000000000046,19.511060898759659210
0.240000000000000047,18.725430168872925663
0.241000000000000048,17.975815985955996723
0.242000000000000048,17.260162141453783136
0.243000000000000049,16.576256593048203314
0.244000000000000050,15.921802407411007607
0.245000000000000051,15.294482011875752292
0.246000000000000052,14.692013796271510273
0.247000000000000053,14.112200523122904627
0.248000000000000054,13.552969355239165239
0.249000000000000055,13.012403597062771610
0.250000000000000056,12.488766474330830647
0.251000000000000056,11.980517450967795412
0.252000000000000057,11.486321708593163038
0.253000000000000058,11.005053498731049544
0.254000000000000059,10.535794126826612427
0.255000000000000060,10.077825346345699487
0.256000000000000061,9.630618936008971787
0.257000000000000062,9.193823208581180850
0.258000000000000063,8.767247160073743828
0.259000000000000064,8.350842917671872812
0.260000000000000064,7.944687086583850366
0.261000000000000065,7.548961533243639721
0.262000000000000066,7.163934077312679172
0.263000000000000067,6.789939499723803173
0.264000000000000068,6.427361210187092055
0.265000000000000069,6.076613856384159185
0.266000000000000070,5.738127099450845314
0.267000000000000071,5.412330726956288807
0.268000000000000071,5.099641225871849315
0.269000000000000072,4.800449894232133197
0.270000000000000073,4.515112531414631647
0.271000000000000074,4.243940713165884837
0.272000000000000075,3.987194628539935337
0.273000000000000076,3.745077431574499460
0.274000000000000077,3.517731040534079145
0.275000000000000078,3.305233301584622918
0.276000000000000079,3.107596421489267957
0.277000000000000079,2.924766564975327388
0.278000000000000080,2.756624506462701074
0.279000000000000081,2.602987222508645893
0.280000000000000082,2.463610310272689841
0.281000000000000083,2.338191118211354613
0.282000000000000084,2.226372477767626812
0.283000000000000085,2.127746928739164378
0.284000000000000086,2.041861336029333174
0.285000000000000087,1.968221801366309309
0.286000000000000087,1.906298780103469426
0.287000000000000088,1.855532320196576546
0.288000000000000089,1.815337347721529326
0.289000000000000090,1.785108930703025454
0.290000000000000091,1.764227460443769546
0.291000000000000092,1.752063696867522724
0.292000000000000093,1.747983631529075321
0.293000000000000094,1.751353128825561267
0.294000000000000095,1.761542312508989294
0.295000000000000095,1.777929670803861217
0.296000000000000096,1.799905859242177941
0.297000000000000097,1.826877185718877472
0.298000000000000098,1.858268767229391827
0.299000000000000099,1.893527352270772512
0.300000000000000100,1.932123806970430735
0.301000000000000101,1.973555266657472940
0.302000000000000102,2.017346957821306574
0.303000000000000103,2.063053698226561927
0.304000000000000103,2.110261085389301350
0.305000000000000104,2.158586385686817266
0.306000000000000105,2.207679138094789550
0.307000000000000106,2.257221487943559701
0.308000000000000107,2.306928267183161907
0.309000000000000108,2.356546838469495420
0.310000000000000109,2.405856720954780315
0.311000000000000110,2.454669016008006910
0.312000000000000111,2.502825651229157788
0.313000000000000111,2.550198461075955159
0.314000000000000112,2.596688122215900840
0.315000000000000113,2.642222961369804946
0.316000000000000114,2.686757652944366193
0.317000000000000115,2.730271823179983848
0.318000000000000116,2.772768576881717184
0.319000000000000117,2.814272962072090323
0.320000000000000118,2.854830387119160484
0.321000000000000119,2.894505004064425790
0.322000000000000119,2.933378071015023014
0.323000000000000120,2.971546305584473746
0.324000000000000121,3.009120240474938868
0.325000000000000122,3.046222591400814306
0.326000000000000123,3.082986646666024289
0.327000000000000124,3.119554686832190171
0.328000000000000125,3.156076442057417886
0.329000000000000126,3.192707593851686898
0.330000000000000127,3.229608327187798444
0.331000000000000127,3.266941938130544010
0.332000000000000128,3.304873501404323122
0.333000000000000129,3.343568601612269653
0.334000000000000130,3.383192131150472015
0.335000000000000131,3.423907157229754805
0.336000000000000132,3.465873859825806313
0.337000000000000133,3.509248541826169632
0.338000000000000134,3.554182712130409705
0.339000000000000135,3.600822241986033845
0.340000000000000135,3.649306594408841420
0.341000000000000136,3.699768126139397761
0.342000000000000137,3.752331461227914389
0.343000000000000138,3.807112935015815935
0.344000000000000139,3.864220106993068615
0.345000000000000140,3.923751340753703687
0.346000000000000141,3.985795449047480510
0.347000000000000142,4.050431401730753223
0.348000000000000143,4.117728094253178206
0.349000000000000143,4.187744174177571388
0.350000000000000144,4.260527923115636106
0.351000000000000145,4.336117191371487323
0.352000000000000146,4.414539382515981103
0.353000000000000147,4.495811485066144364
0.354000000000000148,4.579940148414026524
0.355000000000000149,4.666921800136746512
0.356000000000000150,4.756742801822335664
0.357000000000000151,4.849379640563360461
0.358000000000000151,4.944799153300664329
0.359000000000000152,5.042958781241224209
0.360000000000000153,5.143806851626513854
0.361000000000000154,5.247282884188924967
0.362000000000000155,5.353317919703426853
0.363000000000000156,5.461834868117825259
0.364000000000000157,5.572748873827384486
0.365000000000000158,5.685967695746892758
0.366000000000000159,5.801392099924671086
0.367000000000000159,5.918916262538099105
0.368000000000000160,6.038428181207098788
0.369000000000000161,6.159810092661830438
0.370000000000000162,6.282938894901068494
0.371000000000000163,6.407686572078597820
0.372000000000000164,6.533920620456830974
0.373000000000000165,6.661504473866943776
0.374000000000000166,6.790297927215488194
0.375000000000000167,6.920157556675730071
0.376000000000000167,7.050937135299538916
0.377000000000000168,7.182488042880804002
0.378000000000000169,7.314659668994691444
0.379000000000000170,7.447299808227576534
0.380000000000000171,7.580255046701159571
0.381000000000000172,7.713371139079145955
0.382000000000000173,7.846493375327843189
0.383000000000000174,7.979466936581192549
0.384000000000000175,8.112137239537343447
0.385000000000000175,8.244350268886753597
0.386000000000000176,8.375952897342020975
0.387000000000000177,8.506793192906048517
0.388000000000000178,8.636720713078499756
0.389000000000000179,8.765586785760753230
0.390000000000000180,8.893244776675963692
0.391000000000000181,9.019550343174989493
0.392000000000000182,9.144361674348417068
0.393000000000000183,9.267539717413139755
0.394000000000000183,9.388948390385190024
0.395000000000000184,9.508454781092060770
0.396000000000000185,9.625929332616006917
0.397000000000000186,9.741246015294720451
0.398000000000000187,9.854282485438618622
0.399000000000000188,9.964920230953941527
0.400000000000000189,10.073044704087582346
0.401000000000000190,10.178545441535082006
0.402000000000000191,10.281316172174909340
0.403000000000000191,10.381254912712757132
0.404000000000000192,10.478264051537120594
0.405000000000000193,10.572250421103451146
0.406000000000000194,10.663125359177815454
0.407000000000000195,10.750804759283042245
0.408000000000000196,10.835209110700237289
0.409000000000000197,10.916263528387309734
0.410000000000000198,10.993897773182519373
0.411000000000000199,11.068046262666666024
0.412000000000000199,11.138648073061400368
0.413000000000000200,11.205646932543462668
0.414000000000000201,11.268991206356144374
0.415000000000000202,11.328633874099560686
0.416000000000000203,11.384532499579847808
0.417000000000000204,11.436649193596231555
0.418000000000000205,11.484950570041371876
0.419000000000000206,11.529407695687156732
0.420000000000000207,11.569996034023505516
0.421000000000000207,11.606695383512406039
0.422000000000000208,11.639489810613909526
0.423000000000000209,11.668367577934144919
0.424000000000000210,11.693321067838555294
0.425000000000000211,11.714346701866272582
0.426000000000000212,11.731444856273594013
0.427000000000000213,11.744619774026457293
0.428000000000000214,11.753879473553258350
0.429000000000000214,11.759235654560693973
0.430000000000000215,11.760703601206294877
0.431000000000000216,11.758302082912027942
0.432000000000000217,11.752053253094342011
0.433000000000000218,11.741982546076219052
0.434000000000000219,11.728118572437589151
0.435000000000000220,11.710493013050831124
0.436000000000000221,11.689140512038386888
0.437000000000000222,11.664098568880119089
0.438000000000000222,11.635407429888429576
0.439000000000000223,11.603109979259551565
0.440000000000000224,11.567251629900358267
0.441000000000000225,11.527880214220237676
0.442000000000000226,11.485045875068831123
0.443000000000000227,11.438800956991023838
0.444000000000000228,11.389199897961823638
0.445000000000000229,11.336299121754931818
0.446000000000000230,11.280156931090077777
0.447000000000000230,11.220833401696017617
0.448000000000000231,11.158390277417556291
0.449000000000000232,11.092890866486929013
0.450000000000000233,11.024399939072372590
0.451000000000000234,10.952983626208375512
0.452000000000000235,10.878709320205427247
0.453000000000000236,10.801645576629223200
0.454000000000000237,10.721862017932618727
0.455000000000000238,10.639429238816720868
0.456000000000000238,10.554418713390925078
0.457000000000000239,10.466902704195401697
0.458000000000000240,10.376954173143406734
0.459000000000000241,10.284646694434718128
0.460000000000000242,10.190054369486212238
0.461000000000000243,10.093251743919633867
0.462000000000000244,9.994313726641838258
0.463000000000000245,9.893315511047378052
0.464000000000000246,9.790332498368751857
0.465000000000000246,9.685440223195008969
0.466000000000000247,9.578714281174772083
0.467000000000000248,9.470230258915904642
0.468000000000000249,9.360063666089908807
0.469000000000000250,9.248289869745120129
0.470000000000000251,9.134984030829709667
0.471000000000000252,9.020221042921582111
0.472000000000000253,8.904075473159243970
0.473000000000000254,8.786621505364802687
0.474000000000000254,8.667932885347163108
0.475000000000000255,8.548082868370896037
0.476000000000000256,8.427144168773788024
0.477000000000000257,8.305188911713642597
0.478000000000000258,8.182288587022561899
0.479000000000000259,8.058514005145280379
0.480000000000000260,7.933935255135696529
0.481000000000000261,7.808621664684304520
0.482000000000000262,7.682641762147542686
0.483000000000000262,7.556063240548541060
0.484000000000000263,7.428952923517219809
0.485000000000000264,7.301376733136812902
0.486000000000000265,7.173399659662263339
0.487000000000000266,7.045085733075329593
0.488000000000000267,6.916497996440091001
0.489000000000000268,6.787698481021763541
0.490000000000000269,6.658748183131057097
0.491000000000000270,6.529707042655678251
0.492000000000000270,6.400633923239970713
0.493000000000000271,6.271586594073336407
0.494000000000000272,6.142621713247775617
0.495000000000000273,6.013794812644141174
0.496000000000000274,5.885160284307374035
0.497000000000000275,5.756771368269855138
0.498000000000000276,5.628680141782533397
0.499000000000000277,5.500937509913506496
0.500000000000000222,5.373593197473207184
0.501000000000000334,5.246695742226240355
0.502000000000000224,5.120292489349466791
0.503000000000000336,4.994429587096187007
0.504000000000000226,4.869151983627155289
0.505000000000000338,4.744503424968216976
0.506000000000000227,4.620526454056362198
0.507000000000000339,4.497262410834447444
0.508000000000000229,4.374751433357234376
0.509000000000000341,4.253032459869855231
0.510000000000000231,4.132143231822238860
0.511000000000000343,4.012120297781605061
0.512000000000000233,3.892999018207521367
0.513000000000000345,3.774813571052771266
0.514000000000000234,3.657596958155610256
0.515000000000000346,3.541381012387778693
0.516000000000000236,3.426196405525112620
0.517000000000000348,3.312072656806310356
0.518000000000000238,3.199038142147916819
0.519000000000000350,3.087120103982398778
0.520000000000000240,2.976344661688663962
0.521000000000000352,2.866736822583278332
0.522000000000000242,2.758320493442976584
0.523000000000000353,2.651118492528075521
0.524000000000000243,2.545152562078830449
0.525000000000000355,2.440443381255705368
0.526000000000000245,2.337010579496883178
0.527000000000000357,2.234872750265433528
0.528000000000000247,2.134047465160843871
0.529000000000000359,2.034551288368767974
0.530000000000000249,1.936399791424898709
0.531000000000000361,1.839607568268412763
0.532000000000000250,1.744188250562178855
0.533000000000000362,1.650154523256401218
0.534000000000000252,1.557518140374559268
0.535000000000000364,1.466289940999318198
0.536000000000000254,1.376479865438800854
0.537000000000000366,1.288096971552267433
0.538000000000000256,1.201149451216642294
0.539000000000000368,1.115644646914525584
0.540000000000000258,1.031589068426237876
0.541000000000000369,0.948988409607749106
0.542000000000000259,0.867847565238469620
0.543000000000000371,0.788170647921874412
0.544000000000000261,0.709961005023970859
0.545000000000000373,0.633221235634137125
0.546000000000000263,0.557953207534253925
0.547000000000000375,0.484158074161736618
0.548000000000000265,0.411836291553788147
0.549000000000000377,0.340987635259380473
0.550000000000000266,0.271611217207354039
0.551000000000000378,0.203705502518382792
0.552000000000000268,0.137268326250015560
0.553000000000000380,0.072296910063726030
0.554000000000000270,0.008787878804097116
0.555000000000000382,-0.053262723019942448
0.556000000000000272,-0.113859414860768116
0.557000000000000384,-0.173007263873663442
0.558000000000000274,-0.230711868782559282
0.559000000000000385,-0.286979343877980519
0.560000000000000275,-0.341816303154522383
0.561000000000000387,-0.395229844595173074
0.562000000000000277,-0.447227534608872379
0.563000000000000389,-0.497817392627951771
0.564000000000000279,-0.547007875870973881
0.565000000000000391,-0.594807864276898357
0.566000000000000281,-0.641226645615395996
0.567000000000000393,-0.686273900778467172
0.568000000000000282,-0.729959689257549504
0.569000000000000394,-0.772294434810602004
0.570000000000000284,-0.813288911322623043
0.571000000000000396,-0.852954228863593178
0.572000000000000286,-0.891301819946641927
0.573000000000000398,-0.928343425989736182
0.574000000000000288,-0.964091083983311337
0.575000000000000400,-0.998557113366451810
0.576000000000000290,-1.031754103113553311
0.577000000000000401,-1.063694899033606145
0.578000000000000291,-1.094392591283466221
0.579000000000000403,-1.123860502096822866
0.580000000000000293,-1.152112173729768818
0.581000000000000405,-1.179161356624220947
0.582000000000000295,-1.205021997789694765
0.583000000000000407,-1.229708229404278708
0.584000000000000297,-1.253234357634872120
0.585000000000000409,-1.275614851677196127
0.586000000000000298,-1.296864333015334214
0.587000000000000410,-1.316997564900816986
0.588000000000000300,-1.336029442050814753
0.589000000000000412,-1.353974980565101571
0.590000000000000302,-1.370849308061008243
0.591000000000000414,-1.386667654025760310
0.592000000000000304,-1.401445340385221616
0.593000000000000416,-1.415197772288007139
0.594000000000000306,-1.427940429103869091
0.595000000000000417,-1.439688855635106401
0.596000000000000307,-1.450458653539549170
0.597000000000000419,-1.460265472963711009
0.598000000000000309,-1.469125004384527644
0.599000000000000421,-1.477052970657974029
0.600000000000000311,-1.484065119272852229
0.601000000000000423,-1.490177214807897776
0.602000000000000313,-1.495405031590218980
0.603000000000000425,-1.499764346553244199
0.604000000000000314,-1.503270932291906670
0.605000000000000426,-1.505940550313118687
0.606000000000000316,-1.507788944479250492
0.607000000000000428,-1.508831834642402114
0.608000000000000318,-1.509084910467224816
0.609000000000000430,-1.508563825439840356
0.610000000000000320,-1.507284191060612066
0.611000000000000432,-1.505261571218214911
0.612000000000000322,-1.502511476742676377
0.613000000000000433,-1.499049360134741882
0.614000000000000323,-1.494890610469220560
0.615000000000000435,-1.490050548469594727
0.616000000000000325,-1.484544421751410104
0.617000000000000437,-1.478387400231864657
0.618000000000000327,-1.471594571702916410
0.619000000000000439,-1.464180937565327190
0.620000000000000329,-1.456161408721024397
0.621000000000000441,-1.447550801621052763
0.622000000000000330,-1.438363834466553026
0.623000000000000442,-1.428615123560024180
0.624000000000000332,-1.418319179804257590
0.625000000000000444,-1.407490405346222717
0.626000000000000334,-1.396143090363326067
0.627000000000000446,-1.384291409989245381
0.628000000000000336,-1.371949421376821743
0.629000000000000448,-1.359131060895256926
0.630000000000000338,-1.345850141459021154
0.631000000000000449,-1.332120349985796981
0.632000000000000339,-1.317955244980913765
0.633000000000000451,-1.303368254245528934
0.634000000000000341,-1.288372672706122657
0.635000000000000453,-1.272981660362569656
0.636000000000000343,-1.257208240352365891
0.637000000000000455,-1.241065297128318035
0.638000000000000345,-1.224565574747323637
0.639000000000000457,-1.207721675267565686
0.640000000000000346,-1.190546057251824053
0.641000000000000458,-1.173051034374230195
0.642000000000000348,-1.155248774128255551
0.643000000000000460,-1.137151296633256425
0.644000000000000350,-1.118770473537461729
0.645000000000000462,-1.100118027014740152
0.646000000000000352,-1.081205528853099507
0.647000000000000464,-1.062044399632327440
0.648000000000000353,-1.042645907988744236
0.649000000000000465,-1.023021169964515087
0.650000000000000355,-1.003181148439627357
0.651000000000000467,-0.983136652643964992
0.652000000000000357,-0.962898337747663313
0.653000000000000469,-0.942476704527225095
0.654000000000000359,-0.921882099105651998
0.655000000000000471,-0.901124712764187152
0.656000000000000361,-0.880214581823835829
0.657000000000000473,-0.859161587594446940
0.658000000000000362,-0.837975456389548290
0.659000000000000474,-0.816665759604804697
0.660000000000000364,-0.795241913858273919
0.661000000000000476,-0.773713181190444077
0.662000000000000366,-0.752088669322334868
0.663000000000000478,-0.730377331969604415
0.664000000000000368,-0.708587969211083690
0.665000000000000480,-0.686729227909741780
0.666000000000000369,-0.664809602184484705
0.667000000000000481,-0.642837433930977475
0.668000000000000371,-0.620820913389844575
