# AuFCC100-Ablate5_FURAN-AC
# h[nm],U(h)[kJ/mol]
0.200000000000000011,100.994609776382588961
0.201000000000000012,93.453417045453790024
0.202000000000000013,89.376819295435311119
0.203000000000000014,86.825728413059522381
0.204000000000000015,84.733377292772715350
0.205000000000000016,82.577007105238223517
0.206000000000000016,80.157173048687340611
0.207000000000000017,77.452997799998271944
0.208000000000000018,74.530268637973705381
0.209000000000000019,71.485671269388006976
0.210000000000000020,68.415202890320671258
0.211000000000000021,65.398310300893655267
0.212000000000000022,62.491863621394713846
0.213000000000000023,59.729937481445858793
0.214000000000000024,57.126708609562612651
0.215000000000000024,54.680727507842426860
0.216000000000000025,52.379485137573155384
0.217000000000000026,50.203650603938946517
0.218000000000000027,48.130660601271820553
0.219000000000000028,46.137538939648194969
0.220000000000000029,44.202946652397208993
0.221000000000000030,42.308533321265045402
0.222000000000000031,40.439695303209788335
0.223000000000000032,38.585858675170641163
0.224000000000000032,36.740402556352613317
0.225000000000000033,34.900328029071843616
0.226000000000000034,33.065763251809748624
0.227000000000000035,31.239379248734998384
0.228000000000000036,29.425774984808271029
0.229000000000000037,27.630875713646958047
0.230000000000000038,25.861375754396924265
0.231000000000000039,24.124246028299076272
0.232000000000000040,22.426317870218476003
0.233000000000000040,20.773947701336979321
0.234000000000000041,19.172761910871322755
0.235000000000000042,17.627477518411133417
0.236000000000000043,16.141791638337899428
0.237000000000000044,14.718331216929119165
0.238000000000000045,13.358653753073673087
0.239000000000000046,12.063289560729860028
0.240000000000000047,10.831816426728023472
0.241000000000000048,9.662958128129385926
0.242000000000000048,8.554699089981593119
0.243000000000000049,7.504408399618457182
0.244000000000000050,6.508967379515657292
0.245000000000000051,5.564895905528758568
0.246000000000000052,4.668473603456044785
0.247000000000000053,3.815852938127139105
0.248000000000000054,3.003162008795817073
0.249000000000000055,2.226595573077374546
0.250000000000000056,1.482493435307063789
0.251000000000000056,0.767405854619970240
0.252000000000000057,0.078146057009855108
0.253000000000000058,-0.588169719952281289
0.254000000000000059,-1.234093953845115665
0.255000000000000060,-1.861830441544441328
0.256000000000000061,-2.473226749288345072
0.257000000000000062,-3.069775391934226327
0.258000000000000063,-3.652622583623555297
0.259000000000000064,-4.222583397567538199
0.260000000000000064,-4.780162197717147343
0.261000000000000065,-5.325577253350327389
0.262000000000000066,-5.858788513472420689
0.263000000000000067,-6.379527596452834182
0.264000000000000068,-6.887329137274257107
0.265000000000000069,-7.381562726553040577
0.266000000000000070,-7.861464769106629724
0.267000000000000071,-8.326169682854239085
0.268000000000000071,-8.774739949285407903
0.269000000000000072,-9.206194613108694469
0.270000000000000073,-9.619535909866211654
0.271000000000000074,-10.013773775470930616
0.272000000000000075,-10.387948060275668638
0.273000000000000076,-10.741148332130926235
0.274000000000000077,-11.072531207850184742
0.275000000000000078,-11.381335200643892591
0.276000000000000079,-11.666893112605922767
0.277000000000000079,-11.928642036531801551
0.278000000000000080,-12.166131060579733258
0.279000000000000081,-12.379026792971204785
0.280000000000000082,-12.567116842513655683
0.281000000000000083,-12.730311404679065745
0.282000000000000084,-12.868643112759675873
0.283000000000000085,-12.982265319710913687
0.284000000000000086,-13.071448979133439394
0.285000000000000087,-13.136578293875956547
0.286000000000000087,-13.178145298367141436
0.287000000000000088,-13.196743536393089613
0.288000000000000089,-13.193060989980086362
0.289000000000000090,-13.167872407647839950
0.290000000000000091,-13.122031171858504095
0.291000000000000092,-13.056460836269327075
0.292000000000000093,-12.972146453634806562
0.293000000000000094,-12.870125805108173722
0.294000000000000095,-12.751480631440845315
0.295000000000000095,-12.617327956329233984
0.296000000000000096,-12.468811582043906938
0.297000000000000097,-12.307093827606538028
0.298000000000000098,-12.133347570247625669
0.299000000000000099,-11.948748641756225197
0.300000000000000100,-11.754468622678569290
0.301000000000000101,-11.551668069178777642
0.302000000000000102,-11.341490199773275549
0.303000000000000103,-11.125055062108284432
0.304000000000000103,-10.903454193478030021
0.305000000000000104,-10.677745782880753822
0.306000000000000105,-10.448950337074510486
0.307000000000000106,-10.218046848312505759
0.308000000000000107,-9.985969457193510479
0.309000000000000108,-9.753604600334403685
0.310000000000000109,-9.521788629336040088
0.311000000000000110,-9.291305884745373334
0.312000000000000111,-9.062887206386301742
0.313000000000000111,-8.837208859512577064
0.314000000000000112,-8.614891854697249940
0.315000000000000113,-8.396501638185174698
0.316000000000000114,-8.182548128569697710
0.317000000000000115,-7.973486075081065216
0.318000000000000116,-7.769715712465604440
0.319000000000000117,-7.571583687363509618
0.320000000000000118,-7.379384231232526403
0.321000000000000119,-7.193360555190743355
0.322000000000000119,-7.013706442640133432
0.323000000000000120,-6.840568016160970544
0.324000000000000121,-6.674045655915294972
0.325000000000000122,-6.514196047646049870
0.326000000000000123,-6.361034339288726080
0.327000000000000124,-6.214536386208302510
0.328000000000000125,-6.074641066121761135
0.329000000000000126,-5.941252645849431246
0.330000000000000127,-5.814243183146971639
0.331000000000000127,-5.693454947991682502
0.332000000000000128,-5.578702848821469829
0.333000000000000129,-5.469776850344743480
0.334000000000000130,-5.366444370645860218
0.335000000000000131,-5.268452646397593142
0.336000000000000132,-5.175531056052814272
0.337000000000000133,-5.087393391918070051
0.338000000000000134,-5.003740073006982314
0.339000000000000135,-4.924260291529149569
0.340000000000000135,-4.848634086786185904
0.341000000000000136,-4.776534341120156846
0.342000000000000137,-4.707628693388350882
0.343000000000000138,-4.641581366221408267
0.344000000000000139,-4.578054904058541652
0.345000000000000140,-4.516711819644130266
0.346000000000000141,-4.457216147313569188
0.347000000000000142,-4.399234901994486968
0.348000000000000143,-4.342439443402303922
0.349000000000000143,-4.286506745417435482
0.350000000000000144,-4.231120571097178207
0.351000000000000145,-4.175972554198847497
0.352000000000000146,-4.120763188474032113
0.353000000000000147,-4.065202726338513095
0.354000000000000148,-4.009011988829726647
0.355000000000000149,-3.951923089035594305
0.356000000000000150,-3.893680071417036537
0.357000000000000151,-3.834039469652776866
0.358000000000000151,-3.772770785811569105
0.359000000000000152,-3.709656893804922362
0.360000000000000153,-3.644494370195219712
0.361000000000000154,-3.577093755530889929
0.362000000000000155,-3.507279749454200957
0.363000000000000156,-3.434891342879974552
0.364000000000000157,-3.359781890576211794
0.365000000000000158,-3.281819127492911825
0.366000000000000159,-3.200885132183385107
0.367000000000000159,-3.116876240645775287
0.368000000000000160,-3.029702913882526438
0.369000000000000161,-2.939289562432471747
0.370000000000000162,-2.845574331077047603
0.371000000000000163,-2.748508846858872090
0.372000000000000164,-2.648057933478615844
0.373000000000000165,-2.544199295057271826
0.374000000000000166,-2.436923172164489948
0.375000000000000167,-2.326231972922543800
0.376000000000000167,-2.212139881899344740
0.377000000000000168,-2.094672449403942149
0.378000000000000169,-1.973866163695203735
0.379000000000000170,-1.849768008509187878
0.380000000000000171,-1.722435008203643703
0.381000000000000172,-1.591933762710572520
0.382000000000000173,-1.458339974379039283
0.383000000000000174,-1.321737968682449083
0.384000000000000175,-1.182220210656330428
0.385000000000000175,-1.039886818826065040
0.386000000000000176,-0.894845078277990758
0.387000000000000177,-0.747208954423535743
0.388000000000000178,-0.597098608903757766
0.389000000000000179,-0.444639918981624305
0.390000000000000180,-0.289964001671994043
0.391000000000000181,-0.133206743763834679
0.392000000000000182,0.025491661202382065
0.393000000000000183,0.185987168029360828
0.394000000000000183,0.348132326142572834
0.395000000000000184,0.511776716251269082
0.396000000000000185,0.676767376667526621
0.397000000000000186,0.842949218636435460
0.398000000000000187,1.010165430104511985
0.399000000000000188,1.178257867423673888
0.400000000000000189,1.347067434554760412
0.401000000000000190,1.516434449399195028
0.402000000000000191,1.686198996946844719
0.403000000000000191,1.856201268986532593
0.404000000000000192,2.026281890179085998
0.405000000000000193,2.196282230344221098
0.406000000000000194,2.366044702860559124
0.407000000000000195,2.535413049122925866
0.408000000000000196,2.704232609043519364
0.409000000000000197,2.872350577622611922
0.410000000000000198,3.039616247651041547
0.411000000000000199,3.205881238640735376
0.412000000000000199,3.370999712110875013
0.413000000000000200,3.534828573385865980
0.414000000000000201,3.697227660088084455
0.415000000000000202,3.858059917532436600
0.416000000000000203,4.017191561251354237
0.417000000000000204,4.174492226899410241
0.418000000000000205,4.329835107803772232
0.419000000000000206,4.483097080443092963
0.420000000000000207,4.634158818151553838
0.421000000000000207,4.782904893356523246
0.422000000000000208,4.929223868669812880
0.423000000000000209,5.073008377160773463
0.424000000000000210,5.214155192147732265
0.425000000000000211,5.352565286850131443
0.426000000000000212,5.488143884248822602
0.427000000000000213,5.620800497505617166
0.428000000000000214,5.750448961295584027
0.429000000000000214,5.877007454407368492
0.430000000000000215,6.000398513966931802
0.431000000000000216,6.120549041639627319
0.432000000000000217,6.237390302164540046
0.433000000000000218,6.350857914572318741
0.434000000000000219,6.460891836435254554
0.435000000000000220,6.567436341494524932
0.436000000000000221,6.670439991005419067
0.437000000000000222,6.769855599136580970
0.438000000000000222,6.865640192753931004
0.439000000000000223,6.957754965914178413
0.440000000000000224,7.046165229386836870
0.441000000000000225,7.130840355516832929
0.442000000000000226,7.211753718732981433
0.443000000000000227,7.288882632000647455
0.444000000000000228,7.362208279509144582
0.445000000000000229,7.431715645877067011
0.446000000000000230,7.497393442150655396
0.447000000000000230,7.559234028862640287
0.448000000000000231,7.617233336410620836
0.449000000000000232,7.671390783005962888
0.450000000000000233,7.721709190436082615
0.451000000000000234,7.768194697874340804
0.452000000000000235,7.810856673963927577
0.453000000000000236,7.849707627393426534
0.454000000000000237,7.884763116173599151
0.455000000000000238,7.916041655816812295
0.456000000000000238,7.943564626612088730
0.457000000000000239,7.967356180180994230
0.458000000000000240,7.987443145491164742
0.459000000000000241,8.003854934496725804
0.460000000000000242,8.016623447566777472
0.461000000000000243,8.025782978855605876
0.462000000000000244,8.031370121760643244
0.463000000000000245,8.033423674606829934
0.464000000000000246,8.031984546688777371
0.465000000000000246,8.027095664794945407
0.466000000000000247,8.018801880331233534
0.467000000000000248,8.007149877154503770
0.468000000000000249,7.992188080220012480
0.469000000000000250,7.973966565140190532
0.470000000000000251,7.952536968746128032
0.471000000000000252,7.927952400736829830
0.472000000000000253,7.900267356495602300
0.473000000000000254,7.869537631147048629
0.474000000000000254,7.835820234922787897
0.475000000000000255,7.799173309898411510
0.476000000000000256,7.759656048159364161
0.477000000000000257,7.717328611448079911
0.478000000000000258,7.672252052340098771
0.479000000000000259,7.624488236992348789
0.480000000000000260,7.574099769502000257
0.481000000000000261,7.521149917910358695
0.482000000000000262,7.465702541881894305
0.483000000000000262,7.407822022084815217
0.484000000000000263,7.347573191295533768
0.485000000000000264,7.285021267246102994
0.486000000000000265,7.220231787229861808
0.487000000000000266,7.153270544477638104
0.488000000000000267,7.084203526313501698
0.489000000000000268,7.013096854096035671
0.490000000000000269,6.940016724948501192
0.491000000000000270,6.865029355278332801
0.492000000000000270,6.788200926084014597
0.493000000000000271,6.709597530044876024
0.494000000000000272,6.629285120387310215
0.495000000000000273,6.547329461518228477
0.496000000000000274,6.463796081415353001
0.497000000000000275,6.378750225761320003
0.498000000000000276,6.292256813807088456
0.499000000000000277,6.204380395948752458
0.500000000000000222,6.115185112999604655
0.501000000000000334,6.024734657138732352
0.502000000000000224,5.933092234515347840
0.503000000000000336,5.840320529487136980
0.504000000000000226,5.746481670469988146
0.505000000000000338,5.651637197374702382
0.506000000000000227,5.555848030606338028
0.507000000000000339,5.459174441599863314
0.508000000000000229,5.361676024866096846
0.509000000000000341,5.263411671520007218
0.510000000000000231,5.164439544264199711
0.511000000000000343,5.064817053798284618
0.512000000000000233,4.964600836625947977
0.513000000000000345,4.863846734229493762
0.514000000000000234,4.762609773582842543
0.515000000000000346,4.660944148972109069
0.516000000000000236,4.558903205094196665
0.517000000000000348,4.456539421402020196
0.518000000000000238,4.353904397666513049
0.519000000000000350,4.251048840723742117
0.520000000000000240,4.148022552377115701
0.521000000000000352,4.044874418423101581
0.522000000000000242,3.941652398770293608
0.523000000000000353,3.838403518620349786
0.524000000000000243,3.735173860680955471
0.525000000000000355,3.632008558379578034
0.526000000000000245,3.528951790048361570
0.527000000000000357,3.426046774049392063
0.528000000000000247,3.323335764811138127
0.529000000000000359,3.220860049745856379
0.530000000000000249,3.118659947019138734
0.531000000000000361,3.016774804142166921
0.532000000000000250,2.915242997358480803
0.533000000000000362,2.814101931796328948
0.534000000000000252,2.713388042359469843
0.535000000000000364,2.613136795327849704
0.536000000000000254,2.513382690642152362
0.537000000000000366,2.414159264844346620
0.538000000000000256,2.315499094648941103
0.539000000000000368,2.217433801118212422
0.540000000000000258,2.119994054416811213
0.541000000000000369,2.023209579119911616
0.542000000000000259,1.927109160051402315
0.543000000000000371,1.831720648627179759
0.544000000000000261,1.737070969680706067
0.545000000000000373,1.643186128747361696
0.546000000000000263,1.550091219785448837
0.547000000000000375,1.457810433311146570
0.548000000000000265,1.366367064926783614
0.549000000000000377,1.275783524220314602
0.550000000000000266,1.186081344016432171
0.551000000000000378,1.097281189958396741
0.552000000000000268,1.009402870401680419
0.553000000000000380,0.922465346599839142
0.554000000000000270,0.836486743164486901
0.555000000000000382,0.751484358780801776
0.556000000000000272,0.667474677161477681
0.557000000000000384,0.584473378221558093
0.558000000000000274,0.502495349457864560
0.559000000000000385,0.421554697516593690
0.560000000000000275,0.341664759933705597
0.561000000000000387,0.262838117032542895
0.562000000000000277,0.185086603964362689
0.563000000000000389,0.108421322877016599
0.564000000000000279,0.032852655198459195
0.565000000000000391,-0.041609725978801214
0.566000000000000281,-0.114956843424747171
0.567000000000000393,-0.187180403223395853
0.568000000000000282,-0.258272782160436587
0.569000000000000394,-0.328227015059118665
0.570000000000000284,-0.397036782075030459
0.571000000000000396,-0.464696395961316178
0.572000000000000286,-0.531200789314063559
0.573000000000000398,-0.596545501808473322
0.574000000000000288,-0.660726667435018067
0.575000000000000400,-0.723741001745286328
0.576000000000000290,-0.785585789115965327
0.577000000000000401,-0.846258870040002220
0.578000000000000291,-0.905758628452658643
0.579000000000000403,-0.964083979100694655
0.580000000000000293,-1.021234354961837898
0.581000000000000405,-1.077209694722111255
0.582000000000000295,-1.132010430317344385
0.583000000000000407,-1.185637474546002990
0.584000000000000297,-1.238092208758924784
0.585000000000000409,-1.289376470632487726
0.586000000000000298,-1.339492542030268130
0.587000000000000410,-1.388443136959035318
0.588000000000000300,-1.436231389623670252
0.589000000000000412,-1.482860842586238403
0.590000000000000302,-1.528335435033316259
0.591000000000000414,-1.572659491156193301
0.592000000000000304,-1.615837708647691162
0.593000000000000416,-1.657875147319548104
0.594000000000000306,-1.698777217843753462
0.595000000000000417,-1.738549670621331034
0.596000000000000307,-1.777198584781379820
0.597000000000000419,-1.814730357313501852
0.598000000000000309,-1.851151692336123755
0.599000000000000421,-1.886469590503160321
0.600000000000000311,-1.920691338551343552
0.601000000000000423,-1.953824498990295977
0.602000000000000313,-1.985876899937025097
0.603000000000000425,-2.016856625096939748
0.604000000000000314,-2.046772003892428415
0.605000000000000426,-2.075631601740840715
0.606000000000000316,-2.103444210482690924
0.607000000000000428,-2.130218838961389860
0.608000000000000318,-2.155964703755297140
0.609000000000000430,-2.180691220062890512
0.610000000000000320,-2.204407992741603373
0.611000000000000432,-2.227124807500961534
0.612000000000000322,-2.248851622250202631
0.613000000000000433,-2.269598558600762317
0.614000000000000323,-2.289375893523678762
0.615000000000000435,-2.308194051161946980
0.616000000000000325,-2.326063594797633804
0.617000000000000437,-2.342995218973749960
0.618000000000000327,-2.358999741770321013
0.619000000000000439,-2.374088097234456018
0.620000000000000329,-2.388271327963824131
0.621000000000000441,-2.401560577842967614
0.622000000000000330,-2.413967084931827323
0.623000000000000442,-2.425502174505728803
0.624000000000000332,-2.436177252245933733
0.625000000000000444,-2.446003797580026173
0.626000000000000334,-2.454993357171019852
0.627000000000000446,-2.463157538554257453
0.628000000000000336,-2.470508003921001894
0.629000000000000448,-2.477056464047578288
0.630000000000000338,-2.482814672368820919
0.631000000000000449,-2.487794419194699458
0.632000000000000339,-2.492007526068716672
0.633000000000000451,-2.495465840266764879
0.634000000000000341,-2.498181229435084028
0.635000000000000453,-2.500165576365925624
0.636000000000000343,-2.501430773909341099
0.637000000000000455,-2.501988720019771684
0.638000000000000345,-2.501851312935723826
0.639000000000000457,-2.501030446491153025
0.640000000000000346,-2.499538005556828146
0.641000000000000458,-2.497385861610152524
0.642000000000000348,-2.494585868431766773
0.643000000000000460,-2.491149857927283939
0.644000000000000350,-2.487089636072507215
0.645000000000000462,-2.482416978980377387
0.646000000000000352,-2.477143629088021548
0.647000000000000464,-2.471281291462120500
0.648000000000000353,-2.464841630220906854
0.649000000000000465,-2.457836265070977078
0.650000000000000355,-2.450276767957299207
0.651000000000000467,-2.442174659824472460
0.652000000000000357,-2.433541407487707087
0.653000000000000469,-2.424388420611458095
0.654000000000000359,-2.414727048794291342
0.655000000000000471,-2.404568578757900532
0.656000000000000361,-2.393924231638687949
0.657000000000000473,-2.382805160380056186
0.658000000000000362,-2.371222447223690022
0.659000000000000474,-2.359187101298022338
0.660000000000000364,-2.346710056302151237
0.661000000000000476,-2.333802168283420908
0.662000000000000366,-2.320474213506984906
0.663000000000000478,-2.306736886415480914
0.664000000000000368,-2.292600797677245783
0.665000000000000480,-2.278076472321215906
0.666000000000000369,-2.263174347956855570
