# AuFCC100-Ablate5_BSAI13
# h[nm],U(h)[kJ/mol]
0.149999999999999994,118.247986515692872445
0.150999999999999995,113.898880351595266802
0.151999999999999996,109.751683353518757258
0.152999999999999997,105.686612635429952434
0.153999999999999998,101.691022368382121499
0.154999999999999999,97.783528030605623371
0.156000000000000000,93.981905020469838519
0.157000000000000001,90.293217124004996776
0.158000000000000002,86.714009763111405960
0.159000000000000002,83.234070486617156348
0.160000000000000003,79.840578171799279517
0.161000000000000004,76.521323977200367494
0.162000000000000005,73.266666292122607729
0.163000000000000006,70.070344174204549859
0.164000000000000007,66.929446805351815897
0.165000000000000008,63.843858799699845008
0.166000000000000009,60.815454199037404237
0.167000000000000010,57.847241364604244040
0.168000000000000010,54.942590510089168276
0.169000000000000011,52.104616149225570609
0.170000000000000012,49.335741756641958489
0.171000000000000013,46.637443116939607535
0.172000000000000014,44.010148048701367429
0.173000000000000015,41.453260741835528336
0.174000000000000016,38.965276199212418362
0.175000000000000017,36.543951944794592634
0.176000000000000018,34.186508430706702200
0.177000000000000018,31.889835086689355848
0.178000000000000019,29.650684756834731814
0.179000000000000020,27.465844744313379522
0.180000000000000021,25.332277477090940465
0.181000000000000022,23.247227747643343321
0.182000000000000023,21.208296529675397579
0.183000000000000024,19.213483581777797582
0.184000000000000025,17.261202508255564680
0.185000000000000026,15.350272781334007632
0.186000000000000026,13.479893563076270624
0.187000000000000027,11.649604120748454861
0.188000000000000028,9.859235314942058181
0.189000000000000029,8.108856148728184721
0.190000000000000030,6.398718774893220385
0.191000000000000031,4.729204726962571215
0.192000000000000032,3.100774513367507979
0.193000000000000033,1.513922124789988999
0.194000000000000034,-0.030864526485392042
0.195000000000000034,-1.533136677297210149
0.196000000000000035,-2.992511121859559253
0.197000000000000036,-4.408690094768428658
0.198000000000000037,-5.781475003858940198
0.199000000000000038,-7.110774560131451594
0.200000000000000039,-8.396607965986301991
0.201000000000000040,-9.639103887291405215
0.202000000000000041,-10.838495957838160777
0.203000000000000042,-11.995115554709164130
0.204000000000000042,-13.109382547592943524
0.205000000000000043,-14.181794670972871941
0.206000000000000044,-15.212916101376478650
0.207000000000000045,-16.203365747582150647
0.208000000000000046,-17.153805684063705428
0.209000000000000047,-18.064930080396436551
0.210000000000000048,-18.937454904487672991
0.211000000000000049,-19.772108607287602666
0.212000000000000050,-20.569623932461688298
0.213000000000000050,-21.330730937233077782
0.214000000000000051,-22.056151260701604144
0.215000000000000052,-22.746593633536985379
0.216000000000000053,-23.402750587894651346
0.217000000000000054,-24.025296298375991455
0.218000000000000055,-24.614885463370789864
0.219000000000000056,-25.172153120597030806
0.220000000000000057,-25.697715280459838993
0.221000000000000058,-26.192170255313207861
0.222000000000000058,-26.656100561171193419
0.223000000000000059,-27.090075270219678316
0.224000000000000060,-27.494652697018757692
0.225000000000000061,-27.870383307984070598
0.226000000000000062,-28.217812752071143478
0.227000000000000063,-28.537484920093771024
0.228000000000000064,-28.829944950371999113
0.229000000000000065,-29.095742109072915582
0.230000000000000066,-29.335432484371427364
0.231000000000000066,-29.549581444170740951
0.232000000000000067,-29.738765817372872391
0.233000000000000068,-29.903575768420786574
0.234000000000000069,-30.044616343918892909
0.235000000000000070,-30.162508678491132486
0.236000000000000071,-30.257890854595167696
0.237000000000000072,-30.331418417747379124
0.238000000000000073,-30.383764554512719513
0.239000000000000073,-30.415619945685591574
0.240000000000000074,-30.427692311355645671
0.241000000000000075,-30.420705668049016879
0.242000000000000076,-30.395399320904715523
0.243000000000000077,-30.352526615939275700
0.244000000000000078,-30.292853478923667865
0.245000000000000079,-30.217156768302373848
0.246000000000000080,-30.126222469985531660
0.247000000000000081,-30.020843761798584381
0.248000000000000081,-29.901818974937288687
0.249000000000000082,-29.769949479006196924
0.250000000000000111,-29.626037516167542663
0.251000000000000112,-29.470884008643963625
0.252000000000000113,-29.305286362352781282
0.253000000000000114,-29.130036287838311893
0.254000000000000115,-28.945917657957046742
0.255000000000000115,-28.753704419988871166
0.256000000000000116,-28.554158578030033766
0.257000000000000117,-28.348028259696270936
0.258000000000000118,-28.136045879351904375
0.259000000000000119,-27.918926408303622821
0.260000000000000120,-27.697365760673413604
0.261000000000000121,-27.472039302007623007
0.262000000000000122,-27.243600486101389180
0.263000000000000123,-27.012679624027015279
0.264000000000000123,-26.779882787960797685
0.265000000000000124,-26.545790851106879416
0.266000000000000125,-26.310958663826362169
0.267000000000000126,-26.075914364991326977
0.268000000000000127,-25.841158826602150356
0.269000000000000128,-25.607165228827227565
0.270000000000000129,-25.374378761846752894
0.271000000000000130,-25.143216450203642154
0.272000000000000131,-24.914067094780438794
0.273000000000000131,-24.687291327027462984
0.274000000000000132,-24.463221769659419635
0.275000000000000133,-24.242163297711122993
0.276000000000000134,-24.024393393590795398
0.277000000000000135,-23.810162589588497184
0.278000000000000136,-23.599694991180008685
0.279000000000000137,-23.393188874408842537
0.280000000000000138,-23.190817350625444249
0.281000000000000139,-22.992729091906745964
0.282000000000000139,-22.799049110567548126
0.283000000000000140,-22.609879586301484977
0.284000000000000141,-22.425300734648907053
0.285000000000000142,-22.245371710678973898
0.286000000000000143,-22.070131541986480528
0.287000000000000144,-21.899600085339386624
0.288000000000000145,-21.733779001565100231
0.289000000000000146,-21.572652743529172170
0.290000000000000147,-21.416189552336536650
0.291000000000000147,-21.264342457168986300
0.292000000000000148,-21.117050274461572457
0.293000000000000149,-20.974238602411297450
0.294000000000000150,-20.835820807102741981
0.295000000000000151,-20.701698996825061982
0.296000000000000152,-20.571764981440122000
0.297000000000000153,-20.445901213943145081
0.298000000000000154,-20.323981711630889180
0.299000000000000155,-20.205872954560138766
0.300000000000000155,-20.091434759237046137
0.301000000000000156,-19.980521125727332077
0.302000000000000157,-19.872981056616019657
0.303000000000000158,-19.768659346474212413
0.304000000000000159,-19.667397340707815090
0.305000000000000160,-19.569033662869109946
0.306000000000000161,-19.473404909707404897
0.307000000000000162,-19.380346313417831539
0.308000000000000163,-19.289692370719414782
0.309000000000000163,-19.201277438553550070
0.310000000000000164,-19.114936296343223887
0.311000000000000165,-19.030504674890686090
0.312000000000000166,-18.947819752118530090
0.313000000000000167,-18.866720615974873709
0.314000000000000168,-18.787048694929502801
0.315000000000000169,-18.708648156583496558
0.316000000000000170,-18.631366275001056465
0.317000000000000171,-18.555053767449624758
0.318000000000000171,-18.479565101301865582
0.319000000000000172,-18.404758771913826365
0.320000000000000173,-18.330497552344439782
0.321000000000000174,-18.256648715826653273
0.322000000000000175,-18.183084231936938124
0.323000000000000176,-18.109680937440984394
0.324000000000000177,-18.036320682817137850
0.325000000000000178,-17.962890455477669605
0.326000000000000179,-17.889282480721067969
0.327000000000000179,-17.815394301455818038
0.328000000000000180,-17.741128837740042457
0.329000000000000181,-17.666394427179831439
0.330000000000000182,-17.591104847223963503
0.331000000000000183,-17.515179320384660855
0.332000000000000184,-17.438542503401553319
0.333000000000000185,-17.361124461351668202
0.334000000000000186,-17.282860627690673994
0.335000000000000187,-17.203691751190866910
0.336000000000000187,-17.123563830719774614
0.337000000000000188,-17.042428038779256383
0.338000000000000189,-16.960240634700287643
0.339000000000000190,-16.876962868361793824
0.340000000000000191,-16.792560875274133991
0.341000000000000192,-16.707005563840048978
0.342000000000000193,-16.620272495575314053
0.343000000000000194,-16.532341759043145402
0.344000000000000195,-16.443197838224339336
0.345000000000000195,-16.352829476016417232
0.346000000000000196,-16.261229533523039237
0.347000000000000197,-16.168394845765135415
0.348000000000000198,-16.074326074414511112
0.349000000000000199,-15.979027558120259656
0.350000000000000200,-15.882507160968694748
0.351000000000000201,-15.784776119587712984
0.352000000000000202,-15.685848889377462356
0.353000000000000203,-15.585742990320904156
0.354000000000000203,-15.484478852799597348
0.355000000000000204,-15.382079663812936232
0.356000000000000205,-15.278571213972554688
0.357000000000000206,-15.173981745617712846
0.358000000000000207,-15.068341802372145821
0.359000000000000208,-14.961684080439145106
0.360000000000000209,-14.854043281907568286
0.361000000000000210,-14.745455970319190087
0.362000000000000210,-14.635960428725837801
0.363000000000000211,-14.525596520443892601
0.364000000000000212,-14.414405552693562385
0.365000000000000213,-14.302430143291058329
0.366000000000000214,-14.189714090543480651
0.367000000000000215,-14.076302246478505253
0.368000000000000216,-13.962240393524444571
0.369000000000000217,-13.847575124740123087
0.370000000000000218,-13.732353727679026179
0.371000000000000218,-13.616624071957875941
0.372000000000000219,-13.500434500586234066
0.373000000000000220,-13.383833725101021983
0.374000000000000221,-13.266870724537790593
0.375000000000000222,-13.149594648259286700
0.376000000000000223,-13.032054722651409406
0.377000000000000224,-12.914300161686506740
0.378000000000000225,-12.796380081345066770
0.379000000000000226,-12.678343417877917076
0.380000000000000226,-12.560238849883502255
0.381000000000000227,-12.442114724166877693
0.382000000000000228,-12.324018985340909893
0.383000000000000229,-12.205999109123457202
0.384000000000000230,-12.088102039278641797
0.385000000000000231,-11.970374128145524040
0.386000000000000232,-11.852861080692148832
0.387000000000000233,-11.735607902029219218
0.388000000000000234,-11.618658848313433651
0.389000000000000234,-11.502057380967565692
0.390000000000000235,-11.385846124140737601
0.391000000000000236,-11.270066825330486537
0.392000000000000237,-11.154760319085166742
0.393000000000000238,-11.039966493704108430
0.394000000000000239,-10.925724260850536496
0.395000000000000240,-10.812071527991665931
0.396000000000000241,-10.699045173578928924
0.397000000000000242,-10.586681024880615354
0.398000000000000242,-10.475013838378927744
0.399000000000000243,-10.364077282642874422
0.400000000000000244,-10.253903923588454816
0.401000000000000245,-10.144525212038015383
0.402000000000000246,-10.035971473490601369
0.403000000000000247,-9.928271900015756657
0.404000000000000248,-9.821454544184135216
0.405000000000000249,-9.715546314948781514
0.406000000000000250,-9.610572975392106088
0.407000000000000250,-9.506559142254522143
0.408000000000000251,-9.403528287162007615
0.409000000000000252,-9.301502739471184000
0.410000000000000253,-9.200503690651663291
0.411000000000000254,-9.100551200127226181
0.412000000000000255,-9.001664202498620426
0.413000000000000256,-8.903860516072636955
0.414000000000000257,-8.807156852623540644
0.415000000000000258,-8.711568828314927515
0.416000000000000258,-8.617110975711591792
0.417000000000000259,-8.523796756812910047
0.418000000000000260,-8.431638577041116633
0.419000000000000261,-8.340647800119464605
0.420000000000000262,-8.250834763777497471
0.421000000000000263,-8.162208796222213181
0.422000000000000264,-8.074778233315893061
0.423000000000000265,-7.988550436403270005
0.424000000000000266,-7.903531810732737029
0.425000000000000266,-7.819727824417810780
0.426000000000000267,-7.737143027887323221
0.427000000000000268,-7.655781073774448942
0.428000000000000269,-7.575644737196604694
0.429000000000000270,-7.496735936380059862
0.430000000000000271,-7.419055753584872903
0.431000000000000272,-7.342604456287641135
0.432000000000000273,-7.267381518581167654
0.433000000000000274,-7.193385642752045506
0.434000000000000274,-7.120614780998685944
0.435000000000000275,-7.049066157254102905
0.436000000000000276,-6.978736289079437327
0.437000000000000277,-6.909621009595559471
0.438000000000000278,-6.841715489422040442
0.439000000000000279,-6.775014258594003635
0.440000000000000280,-6.709511228428958418
0.441000000000000281,-6.645199713317238022
0.442000000000000282,-6.582072452411066976
0.443000000000000282,-6.520121631188551703
0.444000000000000283,-6.459338902870425336
0.445000000000000284,-6.399715409668569777
0.446000000000000285,-6.341241803846523695
0.447000000000000286,-6.283908268573771494
0.448000000000000287,-6.227704538556254832
0.449000000000000288,-6.172619920427264262
0.450000000000000289,-6.118643312883605745
0.451000000000000290,-6.065763226553166021
0.452000000000000290,-6.013967803581062199
0.453000000000000291,-5.963244836922485526
0.454000000000000292,-5.913581789331461280
0.455000000000000293,-5.864965812035453752
0.456000000000000294,-5.817383763086942494
0.457000000000000295,-5.770822225383677839
0.458000000000000296,-5.725267524350373449
0.459000000000000297,-5.680705745275258955
0.460000000000000298,-5.637122750295737283
0.461000000000000298,-5.594504195028088489
0.462000000000000299,-5.552835544836975501
0.463000000000000300,-5.512102090740945926
0.464000000000000301,-5.472288964951051327
0.465000000000000302,-5.433381156040094417
0.466000000000000303,-5.395363523740712708
0.467000000000000304,-5.358220813370961011
0.468000000000000305,-5.321937669886771083
0.469000000000000306,-5.286498651560905593
0.470000000000000306,-5.251888243288758140
0.471000000000000307,-5.218090869521533115
0.472000000000000308,-5.185090906828110136
0.473000000000000309,-5.152872696086891580
0.474000000000000310,-5.121420554309633388
0.475000000000000311,-5.090718786099492910
0.476000000000000312,-5.060751694745855289
0.477000000000000313,-5.031503592958784132
0.478000000000000314,-5.002958813246356051
0.479000000000000314,-4.975101717938303025
0.480000000000000315,-4.947916708859640522
0.481000000000000316,-4.921388236658313708
0.482000000000000317,-4.895500809790962471
0.483000000000000318,-4.870239003171233705
0.484000000000000319,-4.845587466485140382
0.485000000000000320,-4.821530932178313300
0.486000000000000321,-4.798054223119947004
0.487000000000000322,-4.775142259948507828
0.488000000000000322,-4.752780068104380362
0.489000000000000323,-4.730952784554750323
0.490000000000000324,-4.709645664216099092
0.491000000000000325,-4.688844086079803297
0.492000000000000326,-4.668533559046371906
0.493000000000000327,-4.648699727474026488
0.494000000000000328,-4.629328376447228166
0.495000000000000329,-4.610405436770991017
0.496000000000000330,-4.591916989696691154
0.497000000000000330,-4.573849271385219240
0.498000000000000331,-4.556188677113319763
0.499000000000000332,-4.538921765228964844
0.500000000000000333,-4.522035260861619221
0.501000000000000334,-4.505516059393263717
0.502000000000000335,-4.489351229696014300
0.503000000000000336,-4.473528017142208490
0.504000000000000337,-4.458033846392760680
0.505000000000000338,-4.442856323969549770
0.506000000000000338,-4.427983240617672678
0.507000000000000339,-4.413402573463225842
0.508000000000000340,-4.399102487972329278
0.509000000000000341,-4.385071339717038441
0.510000000000000342,-4.371297675953723427
0.511000000000000343,-4.357770237019455983
0.512000000000000344,-4.344477957551887037
0.513000000000000345,-4.331409967538025541
0.514000000000000346,-4.318555593197300979
0.515000000000000346,-4.305904357704169350
0.516000000000000347,-4.293445981755484198
0.517000000000000348,-4.281170383987843664
0.518000000000000349,-4.269067681249856250
0.519000000000000350,-4.257128188734482954
0.520000000000000351,-4.245342419976276815
0.521000000000000352,-4.233701086718385298
0.522000000000000353,-4.222195098654081491
0.523000000000000353,-4.210815563047505705
0.524000000000000354,-4.199553784238252874
0.525000000000000355,-4.188401263034217337
0.526000000000000356,-4.177349695997245149
0.527000000000000357,-4.166390974625861610
0.528000000000000358,-4.155517184439377232
0.529000000000000359,-4.144720603967469330
0.530000000000000360,-4.133993703649440299
0.531000000000000361,-4.123329144647054356
0.532000000000000361,-4.112719777574911362
0.533000000000000362,-4.102158641152156449
0.534000000000000363,-4.091638960779317102
0.535000000000000364,-4.081154147043842606
0.536000000000000365,-4.070697794157980276
0.537000000000000366,-4.060263678332439952
0.538000000000000367,-4.049845756089245796
0.539000000000000368,-4.039438162517085651
0.540000000000000369,-4.029035209472399792
0.541000000000000369,-4.018631383729337259
0.542000000000000370,-4.008221345081645737
0.543000000000000371,-3.997799924399482396
0.544000000000000372,-3.987362121644044244
0.545000000000000373,-3.976903103842822418
0.546000000000000374,-3.966418203028255540
0.547000000000000375,-3.955902914142369386
0.548000000000000376,-3.945352892910118925
0.549000000000000377,-3.934763953683794391
0.550000000000000377,-3.924132067261017376
0.551000000000000378,-3.913453358678663729
0.552000000000000379,-3.902724104985007436
0.553000000000000380,-3.891940732992261509
0.554000000000000381,-3.881099817011715025
0.555000000000000382,-3.870198076573535761
0.556000000000000383,-3.859232374133153343
0.557000000000000384,-3.848199712766328329
0.558000000000000385,-3.837097233854611655
0.559000000000000385,-3.825922214763129325
0.560000000000000386,-3.814672066512351023
0.561000000000000387,-3.803344331445588811
0.562000000000000388,-3.791936680893818412
0.563000000000000389,-3.780446912839371176
0.564000000000000390,-3.768872949580033715
0.565000000000000391,-3.757212835394990513
0.566000000000000392,-3.745464734213978630
0.567000000000000393,-3.733626927291033404
0.568000000000000393,-3.721697810884043722
0.569000000000000394,-3.709675893941410951
0.570000000000000395,-3.697559795796973248
0.571000000000000396,-3.685348243874258856
0.572000000000000397,-3.673040071401264761
0.573000000000000398,-3.660634215136677305
0.574000000000000399,-3.648129713108598793
0.575000000000000400,-3.635525702366680711
0.576000000000000401,-3.622821416748552625
0.577000000000000401,-3.610016184661446914
0.578000000000000402,-3.597109426879770755
0.579000000000000403,-3.584100654359417604
0.580000000000000404,-3.570989466069574458
0.581000000000000405,-3.557775546842661729
0.582000000000000406,-3.544458665243107820
0.583000000000000407,-3.531038671455537070
0.584000000000000408,-3.517515495192989672
0.585000000000000409,-3.503889143625671387
0.586000000000000409,-3.490159699330783294
0.587000000000000410,-3.476327318263920940
0.588000000000000411,-3.462392227752426610
0.589000000000000412,-3.448354724511197844
0.590000000000000413,-3.434215172681260420
0.591000000000000414,-3.419974001891533000
0.592000000000000415,-3.405631705344066340
0.593000000000000416,-3.391188837923068800
0.594000000000000417,-3.376646014328023249
0.595000000000000417,-3.362003907231129407
0.596000000000000418,-3.347263245459255465
0.597000000000000419,-3.332424812200728503
0.598000000000000420,-3.317489443236965485
0.599000000000000421,-3.302458025199290770
0.600000000000000422,-3.287331493850918829
0.601000000000000423,-3.272110832394337088
0.602000000000000424,-3.256797069804102218
0.603000000000000425,-3.241391279185213303
0.604000000000000425,-3.225894576157004590
0.605000000000000426,-3.210308117262736793
0.606000000000000427,-3.194633098404819016
0.607000000000000428,-3.178870753305662600
0.608000000000000429,-3.163022351994258852
