# AuFCC100-Ablate5_BSAIV6
# h[nm],U(h)[kJ/mol]
0.149999999999999994,122.337563179465718122
0.150999999999999995,117.185180677148579775
0.151999999999999996,113.323255208822317286
0.152999999999999997,109.762198718472106407
0.153999999999999998,106.162174271804246928
0.154999999999999999,102.475684041136489100
0.156000000000000000,98.760622927135869986
0.157000000000000001,95.091254908204746243
0.158000000000000002,91.522754711622326340
0.159000000000000002,88.082958368054093512
0.160000000000000003,84.776256259215998057
0.161000000000000004,81.591483296278937587
0.162000000000000005,78.509778692374965203
0.163000000000000006,75.510739149590477837
0.164000000000000007,72.576452641286806511
0.165000000000000008,69.693613123765231876
0.166000000000000009,66.854157048716970735
0.167000000000000010,64.054902608155359189
0.168000000000000010,61.296615874404395186
0.169000000000000011,58.582834295601763586
0.170000000000000012,55.918679904834185379
0.171000000000000013,53.309807987754183500
0.172000000000000014,50.761567980160819502
0.173000000000000015,48.278402807019794807
0.174000000000000016,45.863478808464847702
0.175000000000000017,43.518517809524446704
0.176000000000000018,41.243792563815937058
0.177000000000000018,39.038243790562532354
0.178000000000000019,36.899678854469286193
0.179000000000000020,34.825016859383687517
0.180000000000000021,32.810551085318664377
0.181000000000000022,30.852206269058903843
0.182000000000000023,28.945774534553361690
0.183000000000000024,27.087119413764575881
0.184000000000000025,25.272342154230781119
0.185000000000000026,23.497908319468535865
0.186000000000000026,21.760735579078946955
0.187000000000000027,20.058245640830950407
0.188000000000000028,18.388384611409684055
0.189000000000000029,16.749616811882184209
0.190000000000000030,15.140897343066722414
0.191000000000000031,13.561628610605072964
0.192000000000000032,12.011605681722990369
0.193000000000000033,10.490954841913392670
0.194000000000000034,9.000069120699830449
0.195000000000000034,7.539543916766038301
0.196000000000000035,6.110115216023435991
0.197000000000000036,4.712602291779047547
0.198000000000000037,3.347856224320978846
0.199000000000000038,2.016715090174710401
0.200000000000000039,0.719966254888032675
0.201000000000000040,-0.541684141449895629
0.202000000000000041,-1.767634692088809745
0.203000000000000042,-2.957405621902029047
0.204000000000000042,-4.110649625866517276
0.205000000000000043,-5.227157299434197490
0.206000000000000044,-6.306857871026543272
0.207000000000000045,-7.349815969448641795
0.208000000000000046,-8.356225152638774745
0.209000000000000047,-9.326398895295216818
0.210000000000000048,-10.260759687330672563
0.211000000000000049,-11.159826837837666602
0.212000000000000050,-12.024203514613347465
0.213000000000000050,-12.854563480869396486
0.214000000000000051,-13.651637921462519643
0.215000000000000052,-14.416202683118669370
0.216000000000000053,-15.149066188442656511
0.217000000000000054,-15.851058223279443027
0.218000000000000055,-16.523019742086397343
0.219000000000000056,-17.165793786908249530
0.220000000000000057,-17.780217572561682005
0.221000000000000058,-18.367115753738975314
0.222000000000000058,-18.927294858780339126
0.223000000000000059,-19.461538849534615991
0.224000000000000060,-19.970605746648619316
0.225000000000000061,-20.455225244339768409
0.226000000000000062,-20.916097227725664709
0.227000000000000063,-21.353891098605448207
0.228000000000000064,-21.769245811705051352
0.229000000000000065,-22.162770522327335243
0.230000000000000066,-22.535045747618703160
0.231000000000000066,-22.886624946849003948
0.232000000000000067,-23.218036430799315895
0.233000000000000068,-23.529785516206295881
0.234000000000000069,-23.822356847902184995
0.235000000000000070,-24.096216818535960869
0.236000000000000071,-24.351816023321351423
0.237000000000000072,-24.589591694927939614
0.238000000000000073,-24.809970071238250711
0.239000000000000073,-25.013368656097540565
0.240000000000000074,-25.200198340274514663
0.241000000000000075,-25.370865356540090119
0.242000000000000076,-25.525773048997898229
0.243000000000000077,-25.665323442519405006
0.244000000000000078,-25.789918603321797974
0.245000000000000079,-25.899961786365871319
0.246000000000000080,-25.995858369344766459
0.247000000000000081,-26.078016576592574438
0.248000000000000081,-26.146847999281590091
0.249000000000000082,-26.202767920823749392
0.250000000000000111,-26.246195458474584683
0.251000000000000112,-26.277553533787816775
0.252000000000000113,-26.297268685823194545
0.253000000000000114,-26.305770741900214915
0.254000000000000115,-26.303492361258729915
0.255000000000000115,-26.290868467263287300
0.256000000000000116,-26.268335583812081779
0.257000000000000117,-26.236331091413866545
0.258000000000000118,-26.195292418010257762
0.259000000000000119,-26.145656179077558789
0.260000000000000120,-26.087857280868952614
0.261000000000000121,-26.022327999879667715
0.262000000000000122,-25.949497050761316075
0.263000000000000123,-25.869788653994095995
0.264000000000000123,-25.783621613671094508
0.265000000000000124,-25.691408414769682622
0.266000000000000125,-25.593554348301228885
0.267000000000000126,-25.490456671749434747
0.268000000000000127,-25.382503811246177605
0.269000000000000128,-25.270074610997152575
0.270000000000000129,-25.153537634568049697
0.271000000000000130,-25.033250521780605169
0.272000000000000131,-24.909559404152769702
0.273000000000000131,-24.782798381050973546
0.274000000000000132,-24.653289058008475365
0.275000000000000133,-24.521340148004657777
0.276000000000000134,-24.387247135894362771
0.277000000000000135,-24.251292005627014703
0.278000000000000136,-24.113743029399731910
0.279000000000000137,-23.974854617446897720
0.280000000000000138,-23.834867226779145710
0.281000000000000139,-23.694007326844964467
0.282000000000000139,-23.552487419797294876
0.283000000000000140,-23.410506112801616752
0.284000000000000141,-23.268248239619623519
0.285000000000000142,-23.125885028540892563
0.286000000000000143,-22.983574313610517947
0.287000000000000144,-22.841460786011282380
0.288000000000000145,-22.699676282402169392
0.289000000000000146,-22.558340106986239704
0.290000000000000147,-22.417559384080487206
0.291000000000000147,-22.277429437981794536
0.292000000000000148,-22.138034196967627310
0.293000000000000149,-21.999446618332417103
0.294000000000000150,-21.861729131439510354
0.295000000000000151,-21.724934095862401762
0.296000000000000152,-21.589104271793598144
0.297000000000000153,-21.454273300016126313
0.298000000000000154,-21.320466188855441203
0.299000000000000155,-21.187699805660848540
0.300000000000000155,-21.055983370500747753
0.301000000000000156,-20.925318949894862186
0.302000000000000157,-20.795701948548497739
0.303000000000000158,-20.667121597195670546
0.304000000000000159,-20.539561434800969408
0.305000000000000160,-20.412999783510858975
0.306000000000000161,-20.287410214885209570
0.307000000000000162,-20.162762006076800247
0.308000000000000163,-20.039020584760088184
0.309000000000000163,-19.916147961741152983
0.310000000000000164,-19.794103150306060712
0.311000000000000165,-19.672842571486363283
0.312000000000000166,-19.552320444536611888
0.313000000000000167,-19.432489162029678909
0.314000000000000168,-19.313299649081436371
0.315000000000000169,-19.194701706315992595
0.316000000000000170,-19.076644336277642111
0.317000000000000171,-18.959076053083752100
0.318000000000000171,-18.841945175196091355
0.319000000000000172,-18.725200101265578212
0.320000000000000173,-18.608789569076684245
0.321000000000000174,-18.492662897684446932
0.322000000000000175,-18.376770212897497458
0.323000000000000176,-18.261062656316404684
0.324000000000000177,-18.145492578186885879
0.325000000000000178,-18.030013714373154698
0.326000000000000179,-17.914581347797575717
0.327000000000000179,-17.799152454728993433
0.328000000000000180,-17.683685836334028352
0.329000000000000181,-17.568142235933940754
0.330000000000000182,-17.452484442432670164
0.331000000000000183,-17.336677380403056503
0.332000000000000184,-17.220688187333813346
0.333000000000000185,-17.104486278554144718
0.334000000000000186,-16.988043400362684565
0.335000000000000187,-16.871333671895165196
0.336000000000000187,-16.754333616270074003
0.337000000000000188,-16.637022181553511757
0.338000000000000189,-16.519380752085151443
0.339000000000000190,-16.401393150704528523
0.340000000000000191,-16.283045632413053028
0.341000000000000192,-16.164326870002081904
0.342000000000000193,-16.045227932168721452
0.343000000000000194,-15.925742254633959760
0.344000000000000195,-15.805865604766216492
0.345000000000000195,-15.685596040203410695
0.346000000000000196,-15.564933861953800687
0.347000000000000197,-15.443881562443300126
0.348000000000000198,-15.322443768962951793
0.349000000000000199,-15.200627182956008454
0.350000000000000200,-15.078440515569360159
0.351000000000000201,-14.955894419878291046
0.352000000000000202,-14.833001420178339558
0.353000000000000203,-14.709775838721995456
0.354000000000000203,-14.586233720261821745
0.355000000000000204,-14.462392754745536649
0.356000000000000205,-14.338272198492447274
0.357000000000000206,-14.213892794164545208
0.358000000000000207,-14.089276689829167921
0.359000000000000208,-13.964447357394849547
0.360000000000000209,-13.839429510685786084
0.361000000000000210,-13.714249023405056249
0.362000000000000210,-13.588932847221503408
0.363000000000000211,-13.463508930200418945
0.364000000000000212,-13.338006135783421868
0.365000000000000213,-13.212454162508844746
0.366000000000000214,-13.086883464650043152
0.367000000000000215,-12.961325173935680510
0.368000000000000216,-12.835811022503094136
0.369000000000000217,-12.710373267223015858
0.370000000000000218,-12.585044615522081202
0.371000000000000218,-12.459858152817654187
0.372000000000000219,-12.334847271668266444
0.373000000000000220,-12.210045602732318315
0.374000000000000221,-12.085486947617123832
0.375000000000000222,-11.961205213690625726
0.376000000000000223,-11.837234350918651060
0.377000000000000224,-11.713608290781539978
0.378000000000000225,-11.590360887315501515
0.379000000000000226,-11.467525860315772590
0.380000000000000226,-11.345136740731335934
0.381000000000000227,-11.223226818273094096
0.382000000000000228,-11.101829091251277148
0.383000000000000229,-10.980976218650845055
0.384000000000000230,-10.860700474447735786
0.385000000000000231,-10.741033704163537976
0.386000000000000232,-10.622007283650187759
0.387000000000000233,-10.503652080092020782
0.388000000000000234,-10.385998415207469137
0.389000000000000234,-10.269076030628841778
0.390000000000000235,-10.152914055434241192
0.391000000000000236,-10.037540975802714982
0.392000000000000237,-9.922984606759692738
0.393000000000000238,-9.809272065977543420
0.394000000000000239,-9.696429749592649472
0.395000000000000240,-9.584483309998486078
0.396000000000000241,-9.473457635571708835
0.397000000000000242,-9.363376832286267160
0.398000000000000242,-9.254264207169160983
0.399000000000000243,-9.146142253549493617
0.400000000000000244,-9.039032638051434532
0.401000000000000245,-8.932956189280755410
0.402000000000000246,-8.827932888153373625
0.403000000000000247,-8.723981859813603634
0.404000000000000248,-8.621121367089701337
0.405000000000000249,-8.519368805433318315
0.406000000000000250,-8.418740699289497087
0.407000000000000250,-8.319252699843744381
0.408000000000000251,-8.220919584092500898
0.409000000000000252,-8.123755255183787938
0.410000000000000253,-8.027772743974622927
0.411000000000000254,-7.932984211752545534
0.412000000000000255,-7.839400954068677763
0.413000000000000256,-7.747033405630610048
0.414000000000000257,-7.655891146203549269
0.415000000000000258,-7.565982907469416041
0.416000000000000258,-7.477316580793778478
0.417000000000000259,-7.389899225851661591
0.418000000000000260,-7.303737080064062859
0.419000000000000261,-7.218835568797727475
0.420000000000000262,-7.135199316282043291
0.421000000000000263,-7.052832157197611807
0.422000000000000264,-6.971737148892140468
0.423000000000000265,-6.891916584180497907
0.424000000000000266,-6.813372004686803152
0.425000000000000266,-6.736104214687392400
0.426000000000000267,-6.660113295414778811
0.427000000000000268,-6.585398619783910945
0.428000000000000269,-6.511958867502980475
0.429000000000000270,-6.439792040532434036
0.430000000000000271,-6.368895478856776649
0.431000000000000272,-6.299265876535121933
0.432000000000000273,-6.230899297997481767
0.433000000000000274,-6.163791194555014563
0.434000000000000274,-6.097936421093569592
0.435000000000000275,-6.033329252921022956
0.436000000000000276,-5.969963402740149583
0.437000000000000277,-5.907832037719626506
0.438000000000000278,-5.846927796637242380
0.439000000000000279,-5.787242807070247963
0.440000000000000280,-5.728768702608896923
0.441000000000000281,-5.671496640070348150
0.442000000000000282,-5.615417316691243776
0.443000000000000282,-5.560520987278026794
0.444000000000000283,-5.506797481295429897
0.445000000000000284,-5.454236219874296410
0.446000000000000285,-5.402826232720927990
0.447000000000000286,-5.352556174911307529
0.448000000000000287,-5.303414343554046617
0.449000000000000288,-5.255388694307327135
0.450000000000000289,-5.208466857735551514
0.451000000000000290,-5.162636155492539736
0.452000000000000290,-5.117883616318845696
0.453000000000000291,-5.074195991841596864
0.454000000000000292,-5.031559772166065869
0.455000000000000293,-4.989961201248879874
0.456000000000000294,-4.949386292043651991
0.457000000000000295,-4.909820841410356351
0.458000000000000296,-4.871250444780629074
0.459000000000000297,-4.833660510571747615
0.460000000000000298,-4.797036274342707074
0.461000000000000298,-4.761362812686435575
0.462000000000000299,-4.726625056852888918
0.463000000000000300,-4.692807806098082679
0.464000000000000301,-4.659895740755037430
0.465000000000000302,-4.627873435022834769
0.466000000000000303,-4.596725369470676448
0.467000000000000304,-4.566435943254215424
0.468000000000000305,-4.536989486042047659
0.469000000000000306,-4.508370269650524342
0.470000000000000306,-4.480562519385625997
0.471000000000000307,-4.453550425090922360
0.472000000000000308,-4.427318151901202370
0.473000000000000309,-4.401849850701512246
0.474000000000000310,-4.377129668291884990
0.475000000000000311,-4.353141757258300437
0.476000000000000312,-4.329870285550745379
0.477000000000000313,-4.307299445769499968
0.478000000000000314,-4.285413464161158537
0.479000000000000314,-4.264196609326129206
0.480000000000000315,-4.243633200639496117
0.481000000000000316,-4.223707616387608610
0.482000000000000317,-4.204404301622719942
0.483000000000000318,-4.185707775738426228
0.484000000000000319,-4.167602639768696271
0.485000000000000320,-4.150073583413596445
0.486000000000000321,-4.133105391794904548
0.487000000000000322,-4.116682951944957480
0.488000000000000322,-4.100791259032286362
0.489000000000000323,-4.085415422327708157
0.490000000000000324,-4.070540670914628123
0.491000000000000325,-4.056152359147498387
0.492000000000000326,-4.042235971862355726
0.493000000000000327,-4.028777129343627195
0.494000000000000328,-4.015761592051328321
0.495000000000000329,-4.003175265112939307
0.496000000000000330,-3.991004202584270466
0.497000000000000330,-3.979234611483712492
0.498000000000000331,-3.967852855604308893
0.499000000000000332,-3.956845459108104368
0.500000000000000333,-3.946199109907341462
0.501000000000000334,-3.935900662836988140
0.502000000000000335,-3.925937142623195708
0.503000000000000336,-3.916295746652279863
0.504000000000000337,-3.906963847544796753
0.505000000000000338,-3.897928995539313490
0.506000000000000338,-3.889178920690498309
0.507000000000000339,-3.880701534886083603
0.508000000000000340,-3.872484933687317721
0.509000000000000341,-3.864517397997444981
0.510000000000000342,-3.856787395562776943
0.511000000000000343,-3.849283582310869090
0.512000000000000344,-3.841994803530292213
0.513000000000000345,-3.834910094896454957
0.514000000000000346,-3.828018683347965467
0.515000000000000346,-3.821309987817817166
0.516000000000000347,-3.814773619823809359
0.517000000000000348,-3.808399383922569825
0.518000000000000349,-3.802177278031273033
0.519000000000000350,-3.796097493621420682
0.520000000000000351,-3.790150415788794191
0.521000000000000352,-3.784326623203637663
0.522000000000000353,-3.778616887945185798
0.523000000000000353,-3.773012175224499831
0.524000000000000354,-3.767503642999562086
0.525000000000000355,-3.762082641486502954
0.526000000000000356,-3.756740712570748819
0.527000000000000357,-3.751469589121907866
0.528000000000000358,-3.746261194216038426
0.529000000000000359,-3.741107640268897860
0.530000000000000360,-3.736001228083834835
0.531000000000000361,-3.730934445817720047
0.532000000000000361,-3.725899967868405493
0.533000000000000362,-3.720890653687045191
0.534000000000000363,-3.715899546518623087
0.535000000000000364,-3.710919872073854542
0.536000000000000365,-3.705945037135664588
0.537000000000000366,-3.700968628103371572
0.538000000000000367,-3.695984409477497401
0.539000000000000368,-3.690986322288320132
0.540000000000000369,-3.685968482470919128
0.541000000000000369,-3.680925179189634910
0.542000000000000370,-3.675850873114672623
0.543000000000000371,-3.670740194653530519
0.544000000000000372,-3.665587942139924227
0.545000000000000373,-3.660389079982721228
0.546000000000000374,-3.655138736777428843
0.547000000000000375,-3.649832203382607165
0.548000000000000376,-3.644464930963687177
0.549000000000000377,-3.639032529006375860
0.550000000000000377,-3.633530763301949573
0.551000000000000378,-3.627955553906651254
0.552000000000000379,-3.622302973077235144
0.553000000000000380,-3.616569243184788895
0.554000000000000381,-3.610750734608756396
0.555000000000000382,-3.604843963613224567
0.556000000000000383,-3.598845590207173650
0.557000000000000384,-3.592752415990707160
0.558000000000000385,-3.586561381988887298
0.559000000000000385,-3.580269566474964194
0.560000000000000386,-3.573874182784607001
0.561000000000000387,-3.567372577122788435
0.562000000000000388,-3.560762226364828198
0.563000000000000389,-3.554040735853113198
0.564000000000000390,-3.547205837190931188
0.565000000000000391,-3.540255386034823371
0.566000000000000392,-3.533187359886789558
0.567000000000000393,-3.525999855887662626
0.568000000000000393,-3.518691088612847295
0.569000000000000394,-3.511259387871704885
0.570000000000000395,-3.503703196511692930
0.571000000000000396,-3.496021068228334805
0.572000000000000397,-3.488211665382199733
0.573000000000000398,-3.480273756823785813
0.574000000000000399,-3.472206215727384748
0.575000000000000400,-3.464008017434822673
0.576000000000000401,-3.455678237309991463
0.577000000000000401,-3.447216048605034278
0.578000000000000402,-3.438620720339008674
0.579000000000000403,-3.429891615189796905
0.580000000000000404,-3.421028187400046328
0.581000000000000405,-3.412029980697828702
0.582000000000000406,-3.402896626232686739
0.583000000000000407,-3.393627840527746464
0.584000000000000408,-3.384223423448493584
0.585000000000000409,-3.374683256188770741
0.586000000000000409,-3.365007299274579200
0.587000000000000410,-3.355195590586187215
0.588000000000000411,-3.345248243399017607
0.589000000000000412,-3.335165444443823901
0.590000000000000413,-3.324947451986505431
0.591000000000000414,-3.314594593928053001
0.592000000000000415,-3.304107265924947079
0.593000000000000416,-3.293485929530366896
0.594000000000000417,-3.282731110356554183
0.595000000000000417,-3.271843396258643732
0.596000000000000418,-3.260823435540171289
0.597000000000000419,-3.249671935180632687
0.598000000000000420,-3.238389659085200378
0.599000000000000421,-3.226977426356916201
0.600000000000000422,-3.215436109591476743
0.601000000000000423,-3.203766633194831570
0.602000000000000424,-3.191969971723720878
0.603000000000000425,-3.180047148249309785
0.604000000000000425,-3.167999232743993865
0.605000000000000426,-3.155827340491520250
0.606000000000000427,-3.143532630520503357
0.607000000000000428,-3.131116304061321465
0.608000000000000429,-3.118579603026589098
