# AuFCC100-Ablate5_THR-AC
# h[nm],U(h)[kJ/mol]
0.149999999999999994,169.937931369700322648
0.150999999999999995,163.151788776692086458
0.151999999999999996,158.726212727505696876
0.152999999999999997,154.799493317227245370
0.153999999999999998,150.731113952253565458
0.154999999999999999,146.433095219442321877
0.156000000000000000,142.018197197682496835
0.157000000000000001,137.631106120709773677
0.158000000000000002,133.380365645117962003
0.159000000000000002,129.321923416624485981
0.160000000000000003,125.466024700694703142
0.161000000000000004,121.792040104840936010
0.162000000000000005,118.263510769743646733
0.163000000000000006,114.840123750893695842
0.164000000000000007,111.485735828452945384
0.165000000000000008,108.172751513811206792
0.166000000000000009,104.883644217685585431
0.167000000000000010,101.610508907173638704
0.168000000000000010,98.353444563650782584
0.169000000000000011,95.118398858424001219
0.170000000000000012,91.914928224817757041
0.171000000000000013,88.754165213717811866
0.172000000000000014,85.647154488312096987
0.173000000000000015,82.603621499613240076
0.174000000000000016,79.631170925971403562
0.175000000000000017,76.734870203715857429
0.176000000000000018,73.917151209437619741
0.177000000000000018,71.177955024689822494
0.178000000000000019,68.515046151846632938
0.179000000000000020,65.924429901780825958
0.180000000000000021,63.400817173715630304
0.181000000000000022,60.938092509780233286
0.182000000000000023,58.529752790611482283
0.183000000000000024,56.169294408743418501
0.184000000000000025,53.850535758057233693
0.185000000000000026,51.567869226913686020
0.186000000000000026,49.316442581492033526
0.187000000000000027,47.092273793347686706
0.188000000000000028,44.892306186826758108
0.189000000000000029,42.714412473275061188
0.190000000000000030,40.557357020304877437
0.191000000000000031,38.420725784610645803
0.192000000000000032,36.304832903687916712
0.193000000000000033,34.210612157053148508
0.194000000000000034,32.139500505475439240
0.195000000000000034,30.093319804872759704
0.196000000000000035,28.074161652890211371
0.197000000000000036,26.084279222048138536
0.198000000000000037,24.125988906521012467
0.199000000000000038,22.201583687595896066
0.200000000000000039,20.313259320936708718
0.201000000000000040,18.463053772715550593
0.202000000000000041,16.652799780142181874
0.203000000000000042,14.884089978531921616
0.204000000000000042,13.158253712011676484
0.205000000000000043,11.476344416454717035
0.206000000000000044,9.839136318433187256
0.207000000000000045,8.247129119890344029
0.208000000000000046,6.700559322245875471
0.209000000000000047,5.199416873950365670
0.210000000000000048,3.743465891342405261
0.211000000000000049,2.332268294487598759
0.212000000000000050,0.965209309196571441
0.213000000000000050,-0.358476093393177542
0.214000000000000051,-1.639676623270803546
0.215000000000000052,-2.879378642499818231
0.216000000000000053,-4.078641237553856769
0.217000000000000054,-5.238572834741249906
0.218000000000000055,-6.360309693608474646
0.219000000000000056,-7.444996516125375940
0.220000000000000057,-8.493769322881570716
0.221000000000000058,-9.507740671774179475
0.222000000000000058,-10.487987229718557458
0.223000000000000059,-11.435539653419713346
0.224000000000000060,-12.351374690675868351
0.225000000000000061,-13.236409378345920018
0.226000000000000062,-14.091497186206714431
0.227000000000000063,-14.917425936601642178
0.228000000000000064,-15.714917317160416843
0.229000000000000065,-16.484627797083117429
0.230000000000000066,-17.227150755676532867
0.231000000000000066,-17.943019634209790070
0.232000000000000067,-18.632711927961096876
0.233000000000000068,-19.296653843870867462
0.234000000000000069,-19.935225459870643760
0.235000000000000070,-20.548766234162549438
0.236000000000000071,-21.137580725987810126
0.237000000000000072,-21.701944403318965016
0.238000000000000073,-22.242109427070491989
0.239000000000000073,-22.758310315538555102
0.240000000000000074,-23.250769406603875922
0.241000000000000075,-23.719702048549148543
0.242000000000000076,-24.165321462999958868
0.243000000000000077,-24.587843235371941830
0.244000000000000078,-24.987489399210769392
0.245000000000000079,-25.364492090888170139
0.246000000000000080,-25.719096760237015076
0.247000000000000081,-26.051564930862962655
0.248000000000000081,-26.362176511066440554
0.249000000000000082,-26.651231662572495651
0.250000000000000111,-26.919052239633838752
0.251000000000000112,-27.165982815586044552
0.252000000000000113,-27.392391317650179872
0.253000000000000114,-27.598669293746333153
0.254000000000000115,-27.785231837370201191
0.255000000000000115,-27.952517198245846686
0.256000000000000116,-28.100986107569390526
0.257000000000000117,-28.231120847257379580
0.258000000000000118,-28.343424092768874090
0.259000000000000119,-28.438417558840438204
0.260000000000000120,-28.516640476911042867
0.261000000000000121,-28.578647932167775991
0.262000000000000122,-28.625009087065222957
0.263000000000000123,-28.656305316899995717
0.264000000000000123,-28.673128281600988032
0.265000000000000124,-28.676077956358948740
0.266000000000000125,-28.665760642102121381
0.267000000000000126,-28.642786975152045414
0.268000000000000127,-28.607769953697562926
0.269000000000000128,-28.561322997021722614
0.270000000000000129,-28.504058051730559953
0.271000000000000130,-28.436583757577704290
0.272000000000000131,-28.359503683871132296
0.273000000000000131,-28.273414645897908315
0.274000000000000132,-28.178905109320147915
0.275000000000000133,-28.076553689088221688
0.276000000000000134,-27.966927748089879913
0.277000000000000135,-27.850582099511807854
0.278000000000000136,-27.728057815735347447
0.279000000000000137,-27.599881145521472092
0.280000000000000138,-27.466562540262845715
0.281000000000000139,-27.328595789191332699
0.282000000000000139,-27.186457262626248621
0.283000000000000140,-27.040605261630663136
0.284000000000000141,-26.891479471805460832
0.285000000000000142,-26.739500518392937067
0.286000000000000143,-26.585069619377254213
0.287000000000000144,-26.428568332856023915
0.288000000000000145,-26.270358394611207586
0.289000000000000146,-26.110781641523203689
0.290000000000000147,-25.950160016246684336
0.291000000000000147,-25.788795648394607696
0.292000000000000148,-25.626971007355329846
0.293000000000000149,-25.464949121790567688
0.294000000000000150,-25.302973860826785568
0.295000000000000151,-25.141270271955200144
0.296000000000000152,-24.980044970689984751
0.297000000000000153,-24.819486577101066871
0.298000000000000154,-24.659766194428193842
0.299000000000000155,-24.501037925098781756
0.300000000000000155,-24.343439419605694241
0.301000000000000156,-24.187092453853168195
0.302000000000000157,-24.032103530744226561
0.303000000000000158,-23.878564501960561017
0.304000000000000159,-23.726553206072157565
0.305000000000000160,-23.576134119307489811
0.306000000000000161,-23.427359015514102936
0.307000000000000162,-23.280267632041386605
0.308000000000000163,-23.134888338480891434
0.309000000000000163,-22.991238805403959589
0.310000000000000164,-22.849326670439097597
0.311000000000000165,-22.709150199232141176
0.312000000000000166,-22.570698939030030772
0.313000000000000167,-22.433954362821797446
0.314000000000000168,-22.298890502159139260
0.315000000000000169,-22.165474566961218983
0.316000000000000170,-22.033667550785462907
0.317000000000000171,-21.903424820215565916
0.318000000000000171,-21.774696687181258170
0.319000000000000172,-21.647428963180235684
0.320000000000000173,-21.521563494520581372
0.321000000000000174,-21.397038677843209342
0.322000000000000175,-21.273789955316551925
0.323000000000000176,-21.151750289021300944
0.324000000000000177,-21.030850614160478074
0.325000000000000178,-20.911020270840303681
0.326000000000000179,-20.792187414269982071
0.327000000000000179,-20.674279403323335913
0.328000000000000180,-20.557223167493610561
0.329000000000000181,-20.440945552353706915
0.330000000000000182,-20.325373643707781213
0.331000000000000183,-20.210435070688625103
0.332000000000000184,-20.096058288115635548
0.333000000000000185,-19.982172838484025590
0.334000000000000186,-19.868709594005135699
0.335000000000000187,-19.755600979161378916
0.336000000000000187,-19.642781174278344025
0.337000000000000188,-19.530186300649784670
0.338000000000000189,-19.417754587780400755
0.339000000000000190,-19.305426523335668776
0.340000000000000191,-19.193144986407823183
0.341000000000000192,-19.080855364724499168
0.342000000000000193,-18.968505656437574913
0.343000000000000194,-18.856046557140771824
0.344000000000000195,-18.743431532769132986
0.345000000000000195,-18.630616879037848577
0.346000000000000196,-18.517561768077563045
0.347000000000000197,-18.404228282921732074
0.348000000000000198,-18.290581440497273746
0.349000000000000199,-18.176589203763207081
0.350000000000000200,-18.062222483634279513
0.351000000000000201,-17.947455131316168320
0.352000000000000202,-17.832263921667887985
0.353000000000000203,-17.716628528194409142
0.354000000000000203,-17.600531490258145340
0.355000000000000204,-17.483958173083763654
0.356000000000000205,-17.366896721114414959
0.357000000000000206,-17.249338005261570572
0.358000000000000207,-17.131275564572732151
0.359000000000000208,-17.012705542824512861
0.360000000000000209,-16.893626620529879290
0.361000000000000210,-16.774039942830150096
0.362000000000000210,-16.653949043723947909
0.363000000000000211,-16.533359767066304613
0.364000000000000212,-16.412280184752585654
0.365000000000000213,-16.290720512482913307
0.366000000000000214,-16.168693023484369320
0.367000000000000215,-16.046211960549392472
0.368000000000000216,-15.923293446730880873
0.369000000000000217,-15.799955395015881976
0.370000000000000218,-15.676217417282511946
0.371000000000000218,-15.552100732826815488
0.372000000000000219,-15.427628076729288154
0.373000000000000220,-15.302823608314332304
0.374000000000000221,-15.177712819939122468
0.375000000000000222,-15.052322446332699002
0.376000000000000223,-14.926680374690894482
0.377000000000000224,-14.800815555717282024
0.378000000000000225,-14.674757915786292628
0.379000000000000226,-14.548538270390235283
0.380000000000000226,-14.422188239019096301
0.381000000000000227,-14.295740161608097907
0.382000000000000228,-14.169227016676529729
0.383000000000000229,-14.042682341268633905
0.384000000000000230,-13.916140152796137031
0.385000000000000231,-13.789634872871298299
0.386000000000000232,-13.663201253208342223
0.387000000000000233,-13.536874303661775798
0.388000000000000234,-13.410689222460055348
0.389000000000000234,-13.284681328684687429
0.390000000000000235,-13.158885997035500992
0.391000000000000236,-13.033338594915786501
0.392000000000000237,-12.908074421862291814
0.393000000000000238,-12.783128651338847348
0.394000000000000239,-12.658536274904889751
0.395000000000000240,-12.534332048764369461
0.396000000000000241,-12.410550442694276541
0.397000000000000242,-12.287225591346507159
0.398000000000000242,-12.164391247911854776
0.399000000000000243,-12.042080740129875949
0.400000000000000244,-11.920326928623861562
0.401000000000000245,-11.799162167536570323
0.402000000000000246,-11.678618267437892442
0.403000000000000247,-11.558726460472573905
0.404000000000000248,-11.439517367712969786
0.405000000000000249,-11.321020968678791263
0.406000000000000250,-11.203266572983137550
0.407000000000000250,-11.086282794062075396
0.408000000000000251,-10.970097524942493905
0.409000000000000252,-10.854737916001614195
0.410000000000000253,-10.740230354669392909
0.411000000000000254,-10.626600447024134866
0.412000000000000255,-10.513873001229974591
0.413000000000000256,-10.402072012764318032
0.414000000000000257,-10.291220651381971507
0.415000000000000258,-10.181341249762626333
0.416000000000000258,-10.072455293787346164
0.417000000000000259,-9.964583414389613480
0.418000000000000260,-9.857745380926306922
0.419000000000000261,-9.751960096013664980
0.420000000000000262,-9.647245591773652151
0.421000000000000263,-9.543619027436136548
0.422000000000000264,-9.441096688242414103
0.423000000000000265,-9.339693985596300152
0.424000000000000266,-9.239425458409309400
0.425000000000000266,-9.140304775586857389
0.426000000000000267,-9.042344739603278114
0.427000000000000268,-8.945557291113990672
0.428000000000000269,-8.849953514553957845
0.429000000000000270,-8.755543644672396653
0.430000000000000271,-8.662337073954519795
0.431000000000000272,-8.570342360882113653
0.432000000000000273,-8.479567238985541877
0.433000000000000274,-8.390018626641019495
0.434000000000000274,-8.301702637567695220
0.435000000000000275,-8.214624591980463464
0.436000000000000276,-8.128789028355363655
0.437000000000000277,-8.044199715765376624
0.438000000000000278,-7.960859666745911056
0.439000000000000279,-7.878771150650095478
0.440000000000000280,-7.797935707455224019
0.441000000000000281,-7.718354161982880157
0.442000000000000282,-7.640026638496505207
0.443000000000000282,-7.562952575641057607
0.444000000000000283,-7.487130741690921631
0.445000000000000284,-7.412559250073130102
0.446000000000000285,-7.339235575134071432
0.447000000000000286,-7.267156568119403914
0.448000000000000287,-7.196318473337339761
0.449000000000000288,-7.126716944477346161
0.450000000000000289,-7.058347061056759131
0.451000000000000290,-6.991203344969403766
0.452000000000000290,-6.925279777111003732
0.453000000000000291,-6.860569814057527083
0.454000000000000292,-6.797066404773502768
0.455000000000000293,-6.734762007328336963
0.456000000000000294,-6.673648605599855621
0.457000000000000295,-6.613717725945052806
0.458000000000000296,-6.554960453819172805
0.459000000000000297,-6.497367450325134186
0.460000000000000298,-6.440928968676215227
0.461000000000000298,-6.385634870555813691
0.462000000000000299,-6.331474642359137484
0.463000000000000300,-6.278437411302196125
0.464000000000000301,-6.226511961384732174
0.465000000000000302,-6.175686749194212233
0.466000000000000303,-6.125949919538935973
0.467000000000000304,-6.077289320899022407
0.468000000000000305,-6.029692520684923451
0.469000000000000306,-5.983146820293610446
0.470000000000000306,-5.937639269953519872
0.471000000000000307,-5.893156683349763725
0.472000000000000308,-5.849685652022087012
0.473000000000000309,-5.807212559528322160
0.474000000000000310,-5.765723595367023613
0.475000000000000311,-5.725204768653330945
0.476000000000000312,-5.685641921542887722
0.477000000000000313,-5.647020742398842330
0.478000000000000314,-5.609326778697947269
0.479000000000000314,-5.572545449671909346
0.480000000000000315,-5.536662058680727583
0.481000000000000316,-5.501661805315366749
0.482000000000000317,-5.467529797227319577
0.483000000000000318,-5.434251061683236017
0.484000000000000319,-5.401810556843061661
0.485000000000000320,-5.370193182760678141
0.486000000000000321,-5.339383792106225712
0.487000000000000322,-5.309367200609772297
0.488000000000000322,-5.280128197226237496
0.489000000000000323,-5.251651554021973034
0.490000000000000324,-5.223922035783442830
0.491000000000000325,-5.196924409348977925
0.492000000000000326,-5.170643452664670292
0.493000000000000327,-5.145063963565907450
0.494000000000000328,-5.120170768286099516
0.495000000000000329,-5.095948729694562473
0.496000000000000330,-5.072382755265582688
0.497000000000000330,-5.049457804781022574
0.498000000000000331,-5.027158897768918777
0.499000000000000332,-5.005471120680737407
0.500000000000000333,-4.984379633810193333
0.501000000000000334,-4.963869677956513016
0.502000000000000335,-4.943926580835350748
0.503000000000000336,-4.924535763240634800
0.504000000000000337,-4.905682744960692787
0.505000000000000338,-4.887353150452166339
0.506000000000000338,-4.869532714275353058
0.507000000000000339,-4.852207286294667909
0.508000000000000340,-4.835362836647975726
0.509000000000000341,-4.818985460488735661
0.510000000000000342,-4.803061382504806964
0.511000000000000343,-4.787576961217982152
0.512000000000000344,-4.772518693068251494
0.513000000000000345,-4.757873216286898632
0.514000000000000346,-4.743627314562632868
0.515000000000000346,-4.729767920504809098
0.516000000000000347,-4.716282118907995091
0.517000000000000348,-4.703157149822185801
0.518000000000000349,-4.690380411432697016
0.519000000000000350,-4.677939462754165056
0.520000000000000351,-4.665822026142849133
0.521000000000000352,-4.654015989631417938
0.522000000000000353,-4.642509409090544992
0.523000000000000353,-4.631290510221499623
0.524000000000000354,-4.620347690383997730
0.525000000000000355,-4.609669520263460107
0.526000000000000356,-4.599244745381898092
0.527000000000000357,-4.589062287456596501
0.528000000000000358,-4.579111245610691938
0.529000000000000359,-4.569380897439754285
0.530000000000000360,-4.559860699938473871
0.531000000000000361,-4.550540290291436918
0.532000000000000361,-4.541409486532014483
0.533000000000000362,-4.532458288073301311
0.534000000000000363,-4.523676876115037437
0.535000000000000364,-4.515055613930323730
0.536000000000000365,-4.506585047036004710
0.537000000000000366,-4.498255903250476528
0.538000000000000367,-4.490059092642561644
0.539000000000000368,-4.481985707375259587
0.540000000000000369,-4.474027021447827046
0.541000000000000369,-4.466174490339872349
0.542000000000000370,-4.458419750560890904
0.543000000000000371,-4.450754619108689525
0.544000000000000372,-4.443171092840167091
0.545000000000000373,-4.435661347757660522
0.546000000000000374,-4.428217738214229371
0.547000000000000375,-4.420832796041016088
0.548000000000000376,-4.413499229599925577
0.549000000000000377,-4.406209922764613651
0.550000000000000377,-4.398957933832877032
0.551000000000000378,-4.391736494373416733
0.552000000000000379,-4.384539008009856076
0.553000000000000380,-4.377359049144901704
0.554000000000000381,-4.370190361627385833
0.555000000000000382,-4.363026857365003508
0.556000000000000383,-4.355862614885291251
0.557000000000000384,-4.348691877847572940
0.558000000000000385,-4.341509053508355365
0.559000000000000385,-4.334308711142680792
0.560000000000000386,-4.327085580423842615
0.561000000000000387,-4.319834549763888809
0.562000000000000388,-4.312550664617153195
0.563000000000000389,-4.305229125749127306
0.564000000000000390,-4.297865287472813378
0.565000000000000391,-4.290454655854748722
0.566000000000000392,-4.282992886892749596
0.567000000000000393,-4.275475784667413848
0.568000000000000393,-4.267899299469313235
0.569000000000000394,-4.260259525903866695
0.570000000000000395,-4.252552700975693156
0.571000000000000396,-4.244775202154228211
0.572000000000000397,-4.236923545422479620
0.573000000000000398,-4.228994383310457295
0.574000000000000399,-4.220984502915064773
0.575000000000000400,-4.212890823907995852
0.576000000000000401,-4.204710396533156036
0.577000000000000401,-4.196440399595197768
0.578000000000000402,-4.188078138440543441
0.579000000000000403,-4.179621042932309294
0.580000000000000404,-4.171066665420561037
0.581000000000000405,-4.162412678709131342
0.582000000000000406,-4.153656874020297707
0.583000000000000407,-4.144797158958567707
0.584000000000000408,-4.135831555474721810
0.585000000000000409,-4.126758197831270181
0.586000000000000409,-4.117575330570398151
0.587000000000000410,-4.108281306485522144
0.588000000000000411,-4.098874584597353099
0.589000000000000412,-4.089353728135593613
0.590000000000000413,-4.079717402527059278
0.591000000000000414,-4.069964373391254497
0.592000000000000415,-4.060093504544182608
0.593000000000000416,-4.050103756011244727
0.594000000000000417,-4.039994182050028471
0.595000000000000417,-4.029763929183770799
0.596000000000000418,-4.019412234246122928
0.597000000000000419,-4.008938422438068194
0.598000000000000420,-3.998341905397487128
0.599000000000000421,-3.987622179282135360
0.600000000000000422,-3.976778822866549490
0.601000000000000423,-3.965811495653487562
0.602000000000000424,-3.954719936000441916
0.603000000000000425,-3.943503959261746239
0.604000000000000425,-3.932163455946724895
0.605000000000000426,-3.920698389894389013
0.606000000000000427,-3.909108796465126545
0.607000000000000428,-3.897394780749675824
0.608000000000000429,-3.885556515795971499
