# AuFCC100-Ablate5_ASP-AC
# h[nm],U(h)[kJ/mol]
0.149999999999999994,191.130480197886754468
0.150999999999999995,185.849007478184745423
0.151999999999999996,181.770909005285744797
0.152999999999999997,177.932292881115444061
0.153999999999999998,174.014485297900733940
0.154999999999999999,169.987248813448559304
0.156000000000000000,165.921750770322802282
0.157000000000000001,161.901514752443375755
0.158000000000000002,157.987232566895556829
0.159000000000000002,154.209064439584551565
0.160000000000000003,150.571252894308884152
0.161000000000000004,147.060784633045415148
0.162000000000000005,143.655975479015580731
0.163000000000000006,140.333238370503011083
0.164000000000000007,137.071589810674652199
0.165000000000000008,133.855088780146530780
0.166000000000000009,130.673660244724885615
0.167000000000000010,127.522805832870247400
0.168000000000000010,124.402652098865559083
0.169000000000000011,121.316693525579282209
0.170000000000000012,118.270487046500903716
0.171000000000000013,115.270464458850668166
0.172000000000000014,112.322955701235088100
0.173000000000000015,109.433460973405175309
0.174000000000000016,106.606171554947579239
0.175000000000000017,103.843715133062715950
0.176000000000000018,101.147088349532850771
0.177000000000000018,98.515734176751109885
0.178000000000000019,95.947722102617802875
0.179000000000000020,93.439992908944034866
0.180000000000000021,90.988635515766077333
0.181000000000000022,88.589169810776439817
0.182000000000000023,86.236815820633268004
0.183000000000000024,83.926735521951599139
0.184000000000000025,81.654238759632690403
0.185000000000000026,79.414949018080278620
0.186000000000000026,77.204928162013302995
0.187000000000000027,75.020761781718391603
0.188000000000000028,72.859608536502776133
0.189000000000000029,70.719218003121113725
0.190000000000000030,68.597922121483549063
0.191000000000000031,66.494605502069617842
0.192000000000000032,64.408659722078141385
0.193000000000000033,62.339926381095175145
0.194000000000000034,60.288633188225752235
0.195000000000000034,58.255326773172932064
0.196000000000000035,56.240805302294575085
0.197000000000000036,54.246053373926784502
0.198000000000000037,52.272181091634308814
0.199000000000000038,50.320368687327224677
0.200000000000000039,48.391817599159409724
0.201000000000000040,46.487708507067026176
0.202000000000000041,44.609166492775941038
0.203000000000000042,42.757233219079544995
0.204000000000000042,40.932845810983927493
0.205000000000000043,39.136821963381201783
0.206000000000000044,37.369850689900765417
0.207000000000000045,35.632488058862762159
0.208000000000000046,33.925157228208703941
0.209000000000000047,32.248152085599578243
0.210000000000000048,30.601643816697237099
0.211000000000000049,28.985689758697098739
0.212000000000000050,27.400243942783227169
0.213000000000000050,25.845168784311006505
0.214000000000000051,24.320247439764429487
0.215000000000000052,22.825196412075442254
0.216000000000000053,21.359678048453066168
0.217000000000000054,19.923312635667492998
0.218000000000000055,18.515689855420980336
0.219000000000000056,17.136379416045393498
0.220000000000000057,15.784940725635326686
0.221000000000000058,14.460931515491452615
0.222000000000000058,13.163915361225994261
0.223000000000000059,11.893468082107094830
0.224000000000000060,10.649183027323788409
0.225000000000000061,9.430675281100985075
0.226000000000000062,8.237584837307462493
0.227000000000000063,7.069578808755241361
0.228000000000000064,5.926352747193289083
0.229000000000000065,4.807631157463907456
0.230000000000000066,3.713167293841201033
0.231000000000000066,2.642742328603637780
0.232000000000000067,1.596163982802139669
0.233000000000000068,0.573264707327259315
0.234000000000000069,-0.426100500907768354
0.235000000000000070,-1.402056567264458486
0.236000000000000071,-2.354711017018446206
0.237000000000000072,-3.284156793080396763
0.238000000000000073,-4.190475150814071625
0.239000000000000073,-5.073738573459831258
0.240000000000000074,-5.934013658231654276
0.241000000000000075,-6.771363929644508062
0.242000000000000076,-7.585852542949129251
0.243000000000000077,-8.377544846615329277
0.244000000000000078,-9.146510778546904419
0.245000000000000079,-9.892827076084524052
0.246000000000000080,-10.616579284821167306
0.247000000000000081,-11.317863555800764530
0.248000000000000081,-11.996788224779162846
0.249000000000000082,-12.653475170899806557
0.250000000000000111,-13.288060955380164074
0.251000000000000112,-13.900697743629780945
0.252000000000000113,-14.491554016647125280
0.253000000000000114,-15.060815079585244902
0.254000000000000115,-15.608683377068064857
0.255000000000000115,-16.135378626195041818
0.256000000000000116,-16.641137779227729965
0.257000000000000117,-17.126214828728244299
0.258000000000000118,-17.590880468445774909
0.259000000000000119,-18.035421623551339820
0.260000000000000120,-18.460140863926731924
0.261000000000000121,-18.865355714145188415
0.262000000000000122,-19.251397873565920804
0.263000000000000123,-19.618612359619522323
0.264000000000000123,-19.967356586911702010
0.265000000000000124,-20.297999394233968928
0.266000000000000125,-20.610920030962518013
0.267000000000000126,-20.906507113663810316
0.268000000000000127,-21.185157563024439753
0.269000000000000128,-21.447275530493396190
0.270000000000000129,-21.693271323281212659
0.271000000000000130,-21.923560335611050220
0.272000000000000131,-22.138561993370618808
0.273000000000000131,-22.338698718578221758
0.274000000000000132,-22.524394919358311284
0.275000000000000133,-22.696076010426025960
0.276000000000000134,-22.854167468411539232
0.277000000000000135,-22.999093925715904163
0.278000000000000136,-23.131278305985148336
0.279000000000000137,-23.251141003718409195
0.280000000000000138,-23.359099109991504406
0.281000000000000139,-23.455565685780733531
0.282000000000000139,-23.540949083911691275
0.283000000000000140,-23.615652320235987816
0.284000000000000141,-23.680072494253234794
0.285000000000000142,-23.734600259047017090
0.286000000000000143,-23.779619340089414692
0.287000000000000144,-23.815506102188443549
0.288000000000000145,-23.842629163606318343
0.289000000000000146,-23.861349056158736914
0.290000000000000147,-23.872017929919717716
0.291000000000000147,-23.874979300996201914
0.292000000000000148,-23.870567840704193685
0.293000000000000149,-23.859109204368500912
0.294000000000000150,-23.840919897881796885
0.295000000000000151,-23.816307180092994855
0.296000000000000152,-23.785568999047647765
0.297000000000000153,-23.748993960074120224
0.298000000000000154,-23.706861323694958799
0.299000000000000155,-23.659441031343682482
0.300000000000000155,-23.606993756880324753
0.301000000000000156,-23.549770981923110469
0.302000000000000157,-23.488015093048456805
0.303000000000000158,-23.421959498954205259
0.304000000000000159,-23.351828765731774240
0.305000000000000160,-23.277838768449292672
0.306000000000000161,-23.200196857310817933
0.307000000000000162,-23.119102036722786409
0.308000000000000163,-23.034745155669153149
0.309000000000000163,-22.947309107869664047
0.310000000000000164,-22.856969040270627147
0.311000000000000165,-22.763892568493282909
0.312000000000000166,-22.668239997942425390
0.313000000000000167,-22.570164549354263528
0.314000000000000168,-22.469812587639680146
0.315000000000000169,-22.367323852954623220
0.316000000000000170,-22.262831693004628164
0.317000000000000171,-22.156463295663336055
0.318000000000000171,-22.048339921056662405
0.319000000000000172,-21.938577132333950459
0.320000000000000173,-21.827285024414891268
0.321000000000000174,-21.714568450065634408
0.322000000000000175,-21.600527242720602317
0.323000000000000176,-21.485256435526093099
0.324000000000000177,-21.368846476139275126
0.325000000000000178,-21.251383436870195709
0.326000000000000179,-21.132949219807073860
0.327000000000000179,-21.013621756613083846
0.328000000000000180,-20.893475202729678841
0.329000000000000181,-20.772580125765053083
0.330000000000000182,-20.651003687886184679
0.331000000000000183,-20.528809822072176416
0.332000000000000184,-20.406059402120913404
0.333000000000000185,-20.282810406334665032
0.334000000000000186,-20.159118074840332469
0.335000000000000187,-20.035035060528045392
0.336000000000000187,-19.910611573617767789
0.337000000000000188,-19.785895519886430804
0.338000000000000189,-19.660932632610375492
0.339000000000000190,-19.535766598296241625
0.340000000000000191,-19.410439176291276908
0.341000000000000192,-19.284990312379697741
0.342000000000000193,-19.159458246484891930
0.343000000000000194,-19.033879614610206943
0.344000000000000195,-18.908289545160524625
0.345000000000000195,-18.782721749797143929
0.346000000000000196,-18.657208608985104803
0.347000000000000197,-18.531781252399110116
0.348000000000000198,-18.406469634359346799
0.349000000000000199,-18.281302604472294604
0.350000000000000200,-18.156307973655295029
0.351000000000000201,-18.031512575724903513
0.352000000000000202,-17.906942324731179639
0.353000000000000203,-17.782622268219931527
0.354000000000000203,-17.658576636604738752
0.355000000000000204,-17.534828888829729010
0.356000000000000205,-17.411401754502371375
0.357000000000000206,-17.288317272673634051
0.358000000000000207,-17.165596827439756566
0.359000000000000208,-17.043261180537470523
0.360000000000000209,-16.921330501100619870
0.361000000000000210,-16.799824392742358725
0.362000000000000210,-16.678761918123395702
0.363000000000000211,-16.558161621161868737
0.364000000000000212,-16.438041547036469581
0.365000000000000213,-16.318419260129267911
0.366000000000000214,-16.199311860050109146
0.367000000000000215,-16.080735995879201994
0.368000000000000216,-15.962707878759900382
0.369000000000000217,-15.845243292968007154
0.370000000000000218,-15.728357605579287082
0.371000000000000218,-15.612065774851279443
0.372000000000000219,-15.496382357430729115
0.373000000000000220,-15.381321514492594105
0.374000000000000221,-15.266897016911602947
0.375000000000000222,-15.153122249562159141
0.376000000000000223,-15.040010214837787217
0.377000000000000224,-14.927573535476057032
0.378000000000000225,-14.815824456770428696
0.379000000000000226,-14.704774848245614649
0.380000000000000226,-14.594436204868767248
0.381000000000000227,-14.484819647863952596
0.382000000000000228,-14.375935925193482845
0.383000000000000229,-14.267795411765382241
0.384000000000000230,-14.160408109421842582
0.385000000000000231,-14.053783646760379611
0.386000000000000232,-13.947931278834863278
0.387000000000000233,-13.842859886780468415
0.388000000000000234,-13.738577977402755437
0.389000000000000234,-13.635093682768276935
0.390000000000000235,-13.532414759830095008
0.391000000000000236,-13.430548590119489205
0.392000000000000237,-13.329502179531193207
0.393000000000000238,-13.229282158227784194
0.394000000000000239,-13.129894780685201994
0.395000000000000240,-13.031345925899596949
0.396000000000000241,-12.933641097772953898
0.397000000000000242,-12.836785425692742280
0.398000000000000242,-12.740783665318820894
0.399000000000000243,-12.645640199588774166
0.400000000000000244,-12.551359039950728658
0.401000000000000245,-12.457943827831552852
0.402000000000000246,-12.365397836345852767
0.403000000000000247,-12.273723972250355274
0.404000000000000248,-12.182924778146361433
0.405000000000000249,-12.093002434931902300
0.406000000000000250,-12.003958764503781964
0.407000000000000250,-11.915795232708632057
0.408000000000000251,-11.828512952541020198
0.409000000000000252,-11.742112687585777309
0.410000000000000253,-11.656594855700614488
0.411000000000000254,-11.571959532934490866
0.412000000000000255,-11.488206457676293226
0.413000000000000256,-11.405335035027967194
0.414000000000000257,-11.323344341395186419
0.415000000000000258,-11.242233129288784710
0.416000000000000258,-11.161999832328948656
0.417000000000000259,-11.082642570444438235
0.418000000000000260,-11.004159155258282254
0.419000000000000261,-10.926547095651269359
0.420000000000000262,-10.849803603494319049
0.421000000000000263,-10.773925599540637776
0.422000000000000264,-10.698909719468145951
0.423000000000000265,-10.624752320062853528
0.424000000000000266,-10.551449485533732187
0.425000000000000266,-10.478997033949260853
0.426000000000000267,-10.407390523786219205
0.427000000000000268,-10.336625260581064012
0.428000000000000269,-10.266696303674299529
0.429000000000000270,-10.197598473038418376
0.430000000000000271,-10.129326356179916502
0.431000000000000272,-10.061874315106161148
0.432000000000000273,-9.995236493347880113
0.433000000000000274,-9.929406823028347873
0.434000000000000274,-9.864379031970287315
0.435000000000000275,-9.800146650831937478
0.436000000000000276,-9.736703020263798081
0.437000000000000277,-9.674041298077664663
0.438000000000000278,-9.612154466420058441
0.439000000000000279,-9.551035338942178043
0.440000000000000280,-9.490676567958702847
0.441000000000000281,-9.431070651588175480
0.442000000000000282,-9.372209940867932687
0.443000000000000282,-9.314086646836509331
0.444000000000000283,-9.256692847577175698
0.445000000000000284,-9.200020495216154615
0.446000000000000285,-9.144061422869276257
0.447000000000000286,-9.088807351531718481
0.448000000000000287,-9.034249896904658073
0.449000000000000288,-8.980380576154111338
0.450000000000000289,-8.927190814596553281
0.451000000000000290,-8.874671952306686151
0.452000000000000290,-8.822815250642873863
0.453000000000000291,-8.771611898685861775
0.454000000000000292,-8.721053019586893384
0.455000000000000293,-8.671129676821367482
0.456000000000000294,-8.621832880344568295
0.457000000000000295,-8.573153592646194809
0.458000000000000296,-8.525082734700564657
0.459000000000000297,-8.477611191809815594
0.460000000000000298,-8.430729819337376085
0.461000000000000298,-8.384429448329443701
0.462000000000000299,-8.338700891022272188
0.463000000000000300,-8.293534946233318550
0.464000000000000301,-8.248922404634553729
0.465000000000000302,-8.204854053906352362
0.466000000000000303,-8.161320683770673767
0.467000000000000304,-8.118313090902287144
0.468000000000000305,-8.075822083717170585
0.469000000000000306,-8.033838487037169074
0.470000000000000306,-7.992353146630426508
0.471000000000000307,-7.951356933626906098
0.472000000000000308,-7.910840748808912970
0.473000000000000309,-7.870795526776300122
0.474000000000000310,-7.831212239986365731
0.475000000000000311,-7.792081902668608784
0.476000000000000312,-7.753395574614602381
0.477000000000000313,-7.715144364843235181
0.478000000000000314,-7.677319435141974679
0.479000000000000314,-7.639912003484714553
0.480000000000000315,-7.602913347326852644
0.481000000000000316,-7.566314806778602353
0.482000000000000317,-7.530107787657250640
0.483000000000000318,-7.494283764419582106
0.484000000000000319,-7.458834282975422170
0.485000000000000320,-7.423750963383635160
0.486000000000000321,-7.389025502431738168
0.487000000000000322,-7.354649676100526889
0.488000000000000322,-7.320615341915107877
0.489000000000000323,-7.286914441183850677
0.490000000000000324,-7.253539001126787511
0.491000000000000325,-7.220481136895036123
0.492000000000000326,-7.187733053482872947
0.493000000000000327,-7.155287047534247158
0.494000000000000328,-7.123135509045343206
0.495000000000000329,-7.091270922965096091
0.496000000000000330,-7.059685870695337151
0.497000000000000330,-7.028373031492582079
0.498000000000000331,-6.997325183773112300
0.499000000000000332,-6.966535206323513307
0.500000000000000333,-6.935996079418356608
0.501000000000000334,-6.905700885847093851
0.502000000000000335,-6.875642811852083369
0.503000000000000336,-6.845815147979730675
0.504000000000000337,-6.816211289846710208
0.505000000000000338,-6.786824738823239223
0.506000000000000338,-6.757649102635444827
0.507000000000000339,-6.728678095888783517
0.508000000000000340,-6.699905540514467184
0.509000000000000341,-6.671325366141050317
0.510000000000000342,-6.642931610392947661
0.511000000000000343,-6.614718419118053916
0.512000000000000344,-6.586680046546312894
0.513000000000000345,-6.558810855381286942
0.514000000000000346,-6.531105316826701923
0.515000000000000346,-6.503558010549790325
0.516000000000000347,-6.476163624583468170
0.517000000000000348,-6.448916955169299747
0.518000000000000349,-6.421812906542984756
0.519000000000000350,-6.394846490664406247
0.520000000000000351,-6.368012826894052125
0.521000000000000352,-6.341307141617610554
0.522000000000000353,-6.314724767820615980
0.523000000000000353,-6.288261144614881282
0.524000000000000354,-6.261911816718593649
0.525000000000000355,-6.235672433891692457
0.526000000000000356,-6.209538750328340129
0.527000000000000357,-6.183506624008201058
0.528000000000000358,-6.157572016008109550
0.529000000000000359,-6.131730989775880936
0.530000000000000360,-6.105979710367806845
0.531000000000000361,-6.080314443651467116
0.532000000000000361,-6.054731555475427740
0.533000000000000362,-6.029227510807312562
0.534000000000000363,-6.003798872841833223
0.535000000000000364,-5.978442302080174464
0.536000000000000365,-5.953154555382235813
0.537000000000000366,-5.927932484993172935
0.538000000000000367,-5.902773037545490098
0.539000000000000368,-5.877673253038298462
0.540000000000000369,-5.852630263794770471
0.541000000000000369,-5.827641293399350886
0.542000000000000370,-5.802703655615834677
0.543000000000000371,-5.777814753287612071
0.544000000000000372,-5.752972077221299330
0.545000000000000373,-5.728173205054945427
0.546000000000000374,-5.703415800111907963
0.547000000000000375,-5.678697610241579596
0.548000000000000376,-5.654016466648089434
0.549000000000000377,-5.629370282707969686
0.550000000000000377,-5.604757052777841864
0.551000000000000378,-5.580174850993190105
0.552000000000000379,-5.555621830059156885
0.553000000000000380,-5.531096220034308786
0.554000000000000381,-5.506596327108304934
0.555000000000000382,-5.482120532374437083
0.556000000000000383,-5.457667290597744802
0.557000000000000384,-5.433235128979771567
0.558000000000000385,-5.408822645920574601
0.559000000000000385,-5.384428509778937055
0.560000000000000386,-5.360051457631445970
0.561000000000000387,-5.335690294031245173
0.562000000000000388,-5.311343889767131010
0.563000000000000389,-5.287011180623729878
0.564000000000000390,-5.262691166143376620
0.565000000000000391,-5.238382908390379455
0.566000000000000392,-5.214085530718278960
0.567000000000000393,-5.189798216540697062
0.568000000000000393,-5.165520208106338274
0.569000000000000394,-5.141250805278710700
0.570000000000000395,-5.116989364321157474
0.571000000000000396,-5.092735296687541435
0.572000000000000397,-5.068488067819298060
0.573000000000000398,-5.044247195949127516
0.574000000000000399,-5.020012250911913831
0.575000000000000400,-4.995782852963207787
0.576000000000000401,-4.971558671605725621
0.577000000000000401,-4.947339424424293419
0.578000000000000402,-4.923124875929520528
0.579000000000000403,-4.898914836410602547
0.580000000000000404,-4.874709160797655372
0.581000000000000405,-4.850507747533777447
0.582000000000000406,-4.826310537457235483
0.583000000000000407,-4.802117512694020540
0.584000000000000408,-4.777928695561084460
0.585000000000000409,-4.753744147480450266
0.586000000000000409,-4.729563967904499400
0.587000000000000410,-4.705388293252644516
0.588000000000000411,-4.681217295859546823
0.589000000000000412,-4.657051182935205702
0.590000000000000413,-4.632890195536918831
0.591000000000000414,-4.608734607553460094
0.592000000000000415,-4.584584724701551650
0.593000000000000416,-4.560440883534745637
0.594000000000000417,-4.536303450464901132
0.595000000000000417,-4.512172820796441997
0.596000000000000418,-4.488049417773265937
0.597000000000000419,-4.463933691638756862
0.598000000000000420,-4.439826118708650071
0.599000000000000421,-4.415727200457066459
0.600000000000000422,-4.391637462615653575
0.601000000000000423,-4.367557454285954321
0.602000000000000424,-4.343487747065029048
0.603000000000000425,-4.319428934184374569
0.604000000000000425,-4.295381629662170297
0.605000000000000426,-4.271346467468857711
0.606000000000000427,-4.247324100706167727
0.607000000000000428,-4.223315200799353519
0.608000000000000429,-4.199320456703018678
