# AuFCC100-Ablate5_PYRIMIDINE-AC
# h[nm],U(h)[kJ/mol]
0.149999999999999994,139.316012393428025007
0.150999999999999995,135.946589987007655509
0.151999999999999996,131.811296669020123318
0.152999999999999997,127.519064052701111223
0.153999999999999998,123.350387063635906770
0.154999999999999999,119.398839453429403079
0.156000000000000000,115.662197824048547545
0.157000000000000001,112.098119851315232154
0.158000000000000002,108.655745298237292218
0.159000000000000002,105.291595305885991252
0.160000000000000003,101.975749552631086203
0.161000000000000004,98.692430183365104313
0.162000000000000005,95.437736102913262926
0.163000000000000006,92.216265042226979176
0.164000000000000007,89.037652445884390318
0.165000000000000008,85.913574675776331446
0.166000000000000009,82.855450286178239594
0.167000000000000010,79.872880012770465896
0.168000000000000010,76.972757044900248502
0.169000000000000011,74.158926526212226804
0.170000000000000012,71.432256800073631098
0.171000000000000013,68.790990224304778167
0.172000000000000014,66.231258419543081573
0.173000000000000015,63.747668919048052771
0.174000000000000016,61.333893124880106029
0.175000000000000017,58.983206750216048420
0.176000000000000018,56.688952240261372140
0.177000000000000018,54.444907509475207519
0.178000000000000019,52.245556707065205160
0.179000000000000020,50.086266916010089290
0.180000000000000021,47.963380143463282934
0.181000000000000022,45.874233167191164284
0.182000000000000023,43.817119252976780786
0.183000000000000024,41.791205899859029671
0.184000000000000025,39.796421992661535683
0.185000000000000026,37.833326367651423539
0.186000000000000026,35.902968085424816991
0.187000000000000027,34.006746853327072699
0.188000000000000028,32.146280193335272202
0.189000000000000029,30.323282211456426438
0.190000000000000030,28.539457256286091535
0.191000000000000031,26.796410393927544646
0.192000000000000032,25.095575488842154499
0.193000000000000033,23.438160764410142178
0.194000000000000034,21.825111011081162360
0.195000000000000034,20.257085094930538105
0.196000000000000035,18.734447072133015411
0.197000000000000036,17.257269010500930762
0.198000000000000037,15.825343532957063530
0.199000000000000038,14.438204105915474429
0.200000000000000039,13.095151176235299673
0.201000000000000040,11.795282394271101367
0.202000000000000041,10.537525330732869122
0.203000000000000042,9.320671287370350555
0.204000000000000042,8.143409004212220026
0.205000000000000043,7.004357269881895220
0.206000000000000044,5.902095639149900208
0.207000000000000045,4.835192648024017714
0.208000000000000046,3.802231087575806523
0.209000000000000047,2.801830050972181851
0.210000000000000048,1.832663602548763704
0.211000000000000049,0.893476032851056923
0.212000000000000050,-0.016906240307186949
0.213000000000000050,-0.899565986713580790
0.214000000000000051,-1.755489495402166256
0.215000000000000052,-2.585563678257319253
0.216000000000000053,-3.390575668913034857
0.217000000000000054,-4.171214620571054077
0.218000000000000055,-4.928075397095101451
0.219000000000000056,-5.661663851281896420
0.220000000000000057,-6.372403391015819096
0.221000000000000058,-7.060642546633407513
0.222000000000000058,-7.726663269956253188
0.223000000000000059,-8.370689715906650008
0.224000000000000060,-8.992897280372693203
0.225000000000000061,-9.593421692134219469
0.226000000000000062,-10.172367981433646733
0.227000000000000063,-10.729819172536080529
0.228000000000000064,-11.265844571846164612
0.229000000000000065,-11.780507546418828468
0.230000000000000066,-12.273872709691428184
0.231000000000000066,-12.746012451741034255
0.232000000000000067,-13.197012770164793238
0.233000000000000068,-13.626978374694147078
0.234000000000000069,-14.036037053836389887
0.235000000000000070,-14.424343305186445363
0.236000000000000071,-14.792081242601636148
0.237000000000000072,-15.139466803245468896
0.238000000000000073,-15.466749285667273028
0.239000000000000073,-15.774212256694323031
0.240000000000000074,-16.062173870088731320
0.241000000000000075,-16.330986643778675926
0.242000000000000076,-16.581036745142554878
0.243000000000000077,-16.812742835427705757
0.244000000000000078,-17.026554525048972266
0.245000000000000079,-17.222950491355010882
0.246000000000000080,-17.402436309589216279
0.247000000000000081,-17.565542046315915314
0.248000000000000081,-17.712819662632544038
0.249000000000000082,-17.844840272139958159
0.250000000000000111,-17.962191295982613326
0.251000000000000112,-18.065473554374477771
0.252000000000000113,-18.155298330969191767
0.253000000000000114,-18.232284443270785346
0.254000000000000115,-18.297055349076316588
0.255000000000000115,-18.350236315734388626
0.256000000000000116,-18.392451675840252534
0.257000000000000117,-18.424322189900134816
0.258000000000000118,-18.446462533513763304
0.259000000000000119,-18.459478923769317760
0.260000000000000120,-18.463966896836122800
0.261000000000000121,-18.460509246190895283
0.262000000000000122,-18.449674128535640705
0.263000000000000123,-18.432013342262244748
0.264000000000000123,-18.408060781297585606
0.265000000000000124,-18.378331065321436455
0.266000000000000125,-18.343318345688267357
0.267000000000000126,-18.303495284898051665
0.268000000000000127,-18.259312206147548352
0.269000000000000128,-18.211196408343553799
0.270000000000000129,-18.159551640968317088
0.271000000000000130,-18.104757732344932464
0.272000000000000131,-18.047170364149437205
0.273000000000000131,-17.987120984446544725
0.274000000000000132,-17.924916851079114366
0.275000000000000133,-17.860841196907436768
0.276000000000000134,-17.795153508163735978
0.277000000000000135,-17.728089907051401752
0.278000000000000136,-17.659863629667277962
0.279000000000000137,-17.590665590350887726
0.280000000000000138,-17.520665023657702619
0.281000000000000139,-17.450010195306511207
0.282000000000000139,-17.378829173656431095
0.283000000000000140,-17.307230653518473673
0.284000000000000141,-17.235304824395068835
0.285000000000000142,-17.163124275560239340
0.286000000000000143,-17.090744930738473784
0.287000000000000144,-17.018207005506056362
0.288000000000000145,-16.945535980919807173
0.289000000000000146,-16.872743587269759757
0.290000000000000147,-16.799828792251233267
0.291000000000000147,-16.726778788253120922
0.292000000000000148,-16.653569973861053199
0.293000000000000149,-16.580168925071863129
0.294000000000000150,-16.506533352108647250
0.295000000000000151,-16.432613038110357451
0.296000000000000152,-16.358350756344158583
0.297000000000000153,-16.283683162952510060
0.298000000000000154,-16.208541662596857691
0.299000000000000155,-16.132853244696267581
0.300000000000000155,-16.056541288280996582
0.301000000000000156,-15.979526333786500558
0.302000000000000157,-15.901726820403620621
0.303000000000000158,-15.823059787873782867
0.304000000000000159,-15.743441541875345280
0.305000000000000160,-15.662788282387001715
0.306000000000000161,-15.581016694638330833
0.307000000000000162,-15.498044502464917827
0.308000000000000163,-15.413790984076445767
0.309000000000000163,-15.328177450422405315
0.310000000000000164,-15.241127686499885030
0.311000000000000165,-15.152568356093638613
0.312000000000000166,-15.062429370569796916
0.313000000000000167,-14.970644222462240691
0.314000000000000168,-14.877150284694616644
0.315000000000000169,-14.781889076373200709
0.316000000000000170,-14.684806496165540679
0.317000000000000171,-14.585853024348413243
0.318000000000000171,-14.484983894666688897
0.319000000000000172,-14.382159237192919221
0.320000000000000173,-14.277344193415810736
0.321000000000000174,-14.170509004816034704
0.322000000000000175,-14.061629076209488431
0.323000000000000176,-13.950685015152682666
0.324000000000000177,-13.837662648712196756
0.325000000000000178,-13.722553018901203714
0.326000000000000179,-13.605352358081805875
0.327000000000000179,-13.486062045621295624
0.328000000000000180,-13.364688547076031711
0.329000000000000181,-13.241243337158000060
0.330000000000000182,-13.115742807715056628
0.331000000000000183,-12.988208161931126483
0.332000000000000184,-12.858665295921946736
0.333000000000000185,-12.727144668871034128
0.334000000000000186,-12.593681162815958174
0.335000000000000187,-12.458313933159125497
0.336000000000000187,-12.321086250939888629
0.337000000000000188,-12.182045337865446299
0.338000000000000189,-12.041242195058769582
0.339000000000000190,-11.898731426440733117
0.340000000000000191,-11.754571057622426267
0.341000000000000192,-11.608822351142947582
0.342000000000000193,-11.461549618845277010
0.343000000000000194,-11.312820032142624882
0.344000000000000195,-11.162703430885448697
0.345000000000000195,-11.011272131499369564
0.346000000000000196,-10.858600735023204109
0.347000000000000197,-10.704765935637372110
0.348000000000000198,-10.549846330233659586
0.349000000000000199,-10.393922229539318991
0.350000000000000200,-10.237075471271747773
0.351000000000000201,-10.079389235763310140
0.352000000000000202,-9.920947864461375332
0.353000000000000203,-9.761836681674317617
0.354000000000000203,-9.602141819901591546
0.355000000000000204,-9.441950049054245397
0.356000000000000205,-9.281348609842005715
0.357000000000000206,-9.120425051573663566
0.358000000000000207,-8.959267074589430280
0.359000000000000208,-8.797962377517558608
0.360000000000000209,-8.636598509521551392
0.361000000000000210,-8.475262727680304309
0.362000000000000210,-8.314041859620289188
0.363000000000000211,-8.153022171497049442
0.364000000000000212,-7.992289241402765754
0.365000000000000213,-7.831927838256772745
0.366000000000000214,-7.672021806217969697
0.367000000000000215,-7.512653954640482468
0.368000000000000216,-7.353905953578028232
0.369000000000000217,-7.195858234827160693
0.370000000000000218,-7.038589898485694718
0.371000000000000218,-6.882178624989398585
0.372000000000000219,-6.726700592578086280
0.373000000000000220,-6.572230400131061856
0.374000000000000221,-6.418840995301652086
0.375000000000000222,-6.266603607871125803
0.376000000000000223,-6.115587688233845576
0.377000000000000224,-5.965860850917708902
0.378000000000000225,-5.817488823037037626
0.379000000000000226,-5.670535397568674973
0.380000000000000226,-5.525062391336765799
0.381000000000000227,-5.381129607586472297
0.382000000000000228,-5.238794803022951641
0.383000000000000229,-5.098113659188115321
0.384000000000000230,-4.959139758044416979
0.385000000000000231,-4.821924561632824791
0.386000000000000232,-4.686517395669564046
0.387000000000000233,-4.552965436944949928
0.388000000000000234,-4.421313704386323984
0.389000000000000234,-4.291605053646619261
0.390000000000000235,-4.163880175079280654
0.391000000000000236,-4.038177594960938421
0.392000000000000237,-3.914533679822876255
0.393000000000000238,-3.792982643753691097
0.394000000000000239,-3.673556558535927330
0.395000000000000240,-3.556285366481118704
0.396000000000000241,-3.441196895828908531
0.397000000000000242,-3.328316878577653348
0.398000000000000242,-3.217668970615955804
0.399000000000000243,-3.109274774026491883
0.400000000000000244,-3.003153861435675420
0.401000000000000245,-2.899323802285571627
0.402000000000000246,-2.797800190906407636
0.403000000000000247,-2.698596676271010519
0.404000000000000248,-2.601724993315327694
0.405000000000000249,-2.507194995711857555
0.406000000000000250,-2.415014689985791385
0.407000000000000250,-2.325190270866776210
0.408000000000000251,-2.237726157772044644
0.409000000000000252,-2.152625032320044873
0.410000000000000253,-2.069887876776467905
0.411000000000000254,-1.989514013338068210
0.412000000000000255,-1.911501144162542687
0.413000000000000256,-1.835845392056160819
0.414000000000000257,-1.762541341733689482
0.415000000000000258,-1.691582081568684170
0.416000000000000258,-1.622959245755019264
0.417000000000000259,-1.556663056803845091
0.418000000000000260,-1.492682368303242857
0.419000000000000261,-1.431004707870723092
0.420000000000000262,-1.371616320232039499
0.421000000000000263,-1.314502210362494816
0.422000000000000264,-1.259646186629973741
0.423000000000000265,-1.207030903881771700
0.424000000000000266,-1.156637906420282302
0.425000000000000266,-1.108447670815105202
0.426000000000000267,-1.062439648502065737
0.427000000000000268,-1.018592308122293399
0.428000000000000269,-0.976883177556997828
0.429000000000000270,-0.937288885616186063
0.430000000000000271,-0.899785203342090667
0.431000000000000272,-0.864347084890356721
0.432000000000000273,-0.830948707954515919
0.433000000000000274,-0.799563513701463280
0.434000000000000274,-0.770164246187919566
0.435000000000000275,-0.742722991229940233
0.436000000000000276,-0.717211214699704502
0.437000000000000277,-0.693599800225710217
0.438000000000000278,-0.671859086274542383
0.439000000000000279,-0.651958902594222178
0.440000000000000280,-0.633868606000923096
0.441000000000000281,-0.617557115492586739
0.442000000000000282,-0.602992946674782648
0.443000000000000282,-0.590144245485472396
0.444000000000000283,-0.578978821207271066
0.445000000000000284,-0.569464178756956874
0.446000000000000285,-0.561567550243529778
0.447000000000000286,-0.555255925787633275
0.448000000000000287,-0.550496083596123564
0.449000000000000288,-0.547254619287166344
0.450000000000000289,-0.545497974462204160
0.451000000000000290,-0.545192464522352371
0.452000000000000290,-0.546304305727857376
0.453000000000000291,-0.548799641500276825
0.454000000000000292,-0.552644567968020306
0.455000000000000293,-0.557805158756768393
0.456000000000000294,-0.564247489027258520
0.457000000000000295,-0.571937658763605361
0.458000000000000296,-0.580841815316309185
0.459000000000000297,-0.590926175204577131
0.460000000000000298,-0.602157045183582151
0.461000000000000298,-0.614500842582583084
0.462000000000000299,-0.627924114920807241
0.463000000000000300,-0.642393558808231346
0.464000000000000301,-0.657876038139166175
0.465000000000000302,-0.674338601586872199
0.466000000000000303,-0.691748499408075923
0.467000000000000304,-0.710073199566407576
0.468000000000000305,-0.729280403184498383
0.469000000000000306,-0.749338059334543671
0.470000000000000306,-0.770214379177622588
0.471000000000000307,-0.791877849462321093
0.472000000000000308,-0.814297245393478919
0.473000000000000309,-0.837441642882092885
0.474000000000000310,-0.861280430187609580
0.475000000000000311,-0.885783318964200483
0.476000000000000312,-0.910920354722420278
0.477000000000000313,-0.936661926718230120
0.478000000000000314,-0.962978777281096709
0.479000000000000314,-0.989842010593268595
0.480000000000000315,-1.017223100932200142
0.481000000000000316,-1.045093900388313513
0.482000000000000317,-1.073426646070215318
0.483000000000000318,-1.102193966809582149
0.484000000000000319,-1.131368889377894593
0.485000000000000320,-1.160924844227245289
0.486000000000000321,-1.190835670767358634
0.487000000000000322,-1.221075622190980869
0.488000000000000322,-1.251619369859740649
0.489000000000000323,-1.282442007262474482
0.490000000000000324,-1.313519053558041438
0.491000000000000325,-1.344826456714469654
0.492000000000000326,-1.376340596256224957
0.493000000000000327,-1.408038285631306508
0.494000000000000328,-1.439896774209762809
0.495000000000000329,-1.471893748925064305
0.496000000000000330,-1.504007335569691461
0.497000000000000330,-1.536216099756156472
0.498000000000000331,-1.568499047554520853
0.499000000000000332,-1.600835625817288221
0.500000000000000333,-1.633205722202547561
0.501000000000000334,-1.665589664905913647
0.502000000000000335,-1.697968222111742254
0.503000000000000336,-1.730322601173923003
0.504000000000000337,-1.762634447536407745
0.505000000000000338,-1.794885843403389414
0.506000000000000338,-1.827059306168952402
0.507000000000000339,-1.859137786615813637
0.508000000000000340,-1.891104666892580610
0.509000000000000341,-1.922943758278750748
0.510000000000000342,-1.954639298746591036
0.511000000000000343,-1.986175950328739948
0.512000000000000344,-2.017538796300268888
0.513000000000000345,-2.048713338183684840
0.514000000000000346,-2.079685492585306772
0.515000000000000346,-2.110441587871048519
0.516000000000000347,-2.140968360689672778
0.517000000000000348,-2.171252952351278687
0.518000000000000349,-2.201282905068603579
0.519000000000000350,-2.231046158068556995
0.520000000000000351,-2.260531043581293531
0.521000000000000352,-2.289726282713767436
0.522000000000000353,-2.318620981214714938
0.523000000000000353,-2.347204625137778500
0.524000000000000354,-2.375467076409198519
0.525000000000000355,-2.403398568306536198
0.526000000000000356,-2.430989700854470748
0.527000000000000357,-2.458231436143742954
0.528000000000000358,-2.485115093579100876
0.529000000000000359,-2.511632345061742377
0.530000000000000360,-2.537775210111952617
0.531000000000000361,-2.563536050937083477
0.532000000000000361,-2.588907567450164482
0.533000000000000362,-2.613882792244027975
0.534000000000000363,-2.638455085525905019
0.535000000000000364,-2.662618130017091911
0.536000000000000365,-2.686365925822267631
0.537000000000000366,-2.709692785272827642
0.538000000000000367,-2.732593327748481293
0.539000000000000368,-2.755062474481184687
0.540000000000000369,-2.777095443345396042
0.541000000000000369,-2.798687743638399450
0.542000000000000370,-2.819835170854438910
0.543000000000000371,-2.840533801456126550
0.544000000000000372,-2.860779987646609790
0.545000000000000373,-2.880570352145668256
0.546000000000000374,-2.899901782973008046
0.547000000000000375,-2.918771428241657695
0.548000000000000376,-2.937176690964473202
0.549000000000000377,-2.955115223876444652
0.550000000000000377,-2.972584924275545770
0.551000000000000378,-2.989583928884619546
0.552000000000000379,-3.006110608736794365
0.553000000000000380,-3.022163564086717713
0.554000000000000381,-3.037741619349868749
0.555000000000000382,-3.052843818072083160
0.556000000000000383,-3.067469417931254050
0.557000000000000384,-3.081617885773229482
0.558000000000000385,-3.095288892683643045
0.559000000000000385,-3.108482309097510665
0.560000000000000386,-3.121198199948141738
0.561000000000000387,-3.133436819857016609
0.562000000000000388,-3.145198608366038151
0.563000000000000389,-3.156484185213607851
0.564000000000000390,-3.167294345655758292
0.565000000000000391,-3.177630055833660094
0.566000000000000392,-3.187492448188602445
0.567000000000000393,-3.196882816925547210
0.568000000000000393,-3.205802613526250067
0.569000000000000394,-3.214253442312922093
0.570000000000000395,-3.222237056063272043
0.571000000000000396,-3.229755351677733977
0.572000000000000397,-3.236810365899658315
0.573000000000000398,-3.243404271089109780
0.574000000000000399,-3.249539371050897074
0.575000000000000400,-3.255218096917440906
0.576000000000000401,-3.260443003086913372
0.577000000000000401,-3.265216763217183349
0.578000000000000402,-3.269542166275920980
0.579000000000000403,-3.273422112647215609
0.580000000000000404,-3.276859610295040248
0.581000000000000405,-3.279857770983785947
0.582000000000000406,-3.282419806556110764
0.583000000000000407,-3.284549025268225453
0.584000000000000408,-3.286248828182824155
0.585000000000000409,-3.287522705619637886
0.586000000000000409,-3.288374233663748925
0.587000000000000410,-3.288807070731661675
0.588000000000000411,-3.288824954195042949
0.589000000000000412,-3.288431697062173420
0.590000000000000413,-3.287631184716920618
0.591000000000000414,-3.286427371715180179
0.592000000000000415,-3.284824278638613038
0.593000000000000416,-3.282825989005459633
0.594000000000000417,-3.280436646238288123
0.595000000000000417,-3.277660450688396399
0.596000000000000418,-3.274501656716585440
0.597000000000000419,-3.270964569830115742
0.598000000000000420,-3.267053543875398702
0.599000000000000421,-3.262772978286224479
0.600000000000000422,-3.258127315387094658
0.601000000000000423,-3.253121037751306233
0.602000000000000424,-3.247758665613425855
0.603000000000000425,-3.242044754335738244
0.604000000000000425,-3.235983891928192691
0.605000000000000426,-3.229580696621491054
0.606000000000000427,-3.222839814492831856
0.607000000000000428,-3.215765917143784236
0.608000000000000429,-3.208363699429936045
0.609000000000000430,-3.200637877241673035
