# AuFCC100-Ablate5_PHOSPHORICACID-AC
# h[nm],U(h)[kJ/mol]
0.149999999999999994,143.651466825043513609
0.150999999999999995,140.578699787836882251
0.151999999999999996,136.586765785166392106
0.152999999999999997,132.425267581873185918
0.153999999999999998,128.409310700622029344
0.154999999999999999,124.626625232609583804
0.156000000000000000,121.059869229336158014
0.157000000000000001,117.654880200330609341
0.158000000000000002,114.355524931433251368
0.159000000000000002,111.118749644496546125
0.160000000000000003,107.918583161268799131
0.161000000000000004,104.744558016979709691
0.162000000000000005,101.597824622240366921
0.163000000000000006,98.486806623469647093
0.164000000000000007,95.423341642418535002
0.165000000000000008,92.419700346360656340
0.166000000000000009,89.486558794410242967
0.167000000000000010,86.631831338679120336
0.168000000000000010,83.860197383051826137
0.169000000000000011,81.173136976997056991
0.170000000000000012,78.569302561344670721
0.171000000000000013,76.045081243166805507
0.172000000000000014,73.595233980380754701
0.173000000000000015,71.213529353225879959
0.174000000000000016,68.893317235678395605
0.175000000000000017,66.628010407484481448
0.176000000000000018,64.411459750280414482
0.177000000000000018,62.238221513069994728
0.178000000000000019,60.103723863876567179
0.179000000000000020,58.004345318787159158
0.180000000000000021,55.937420402101338368
0.181000000000000022,53.901188718539785327
0.182000000000000023,51.894703090084611574
0.183000000000000024,49.917711000318526260
0.184000000000000025,47.970521670811386628
0.185000000000000026,46.053868948475653156
0.186000000000000026,44.168778012922260245
0.187000000000000027,42.316441857304845087
0.188000000000000028,40.498111642296194645
0.189000000000000029,38.715003418649807543
0.190000000000000030,36.968222377979770954
0.191000000000000031,35.258704721881244382
0.192000000000000032,33.587176420275326905
0.193000000000000033,31.954127536195699122
0.194000000000000034,30.359800396846509329
0.195000000000000034,28.804189658697019638
0.196000000000000035,27.287052217165001622
0.197000000000000036,25.807924920448478190
0.198000000000000037,24.366148136399168322
0.199000000000000038,22.960893368275772985
0.200000000000000039,21.591193300398067834
0.201000000000000040,20.255972862064215434
0.202000000000000041,18.954080114613073960
0.203000000000000042,17.684315982060546446
0.204000000000000042,16.445462052653326168
0.205000000000000043,15.236305871476535145
0.206000000000000044,14.055663319238401954
0.207000000000000045,12.902397827366888450
0.208000000000000046,11.775436313611924888
0.209000000000000047,10.673781835427444520
0.210000000000000048,9.596523051190173348
0.211000000000000049,8.542840653000149942
0.212000000000000050,7.512010990947326050
0.213000000000000050,6.503407149094266870
0.214000000000000051,5.516497759884850360
0.215000000000000052,4.550843858146308207
0.216000000000000053,3.606094080160468618
0.217000000000000054,2.681978509204673067
0.218000000000000055,1.778301458146303471
0.219000000000000056,0.894933463616361613
0.220000000000000057,0.031802746322014561
0.221000000000000058,-0.811113630623194526
0.222000000000000058,-1.633798697863152682
0.223000000000000059,-2.436204428185946735
0.224000000000000060,-3.218260340194311730
0.225000000000000061,-3.979881725171748652
0.226000000000000062,-4.720977388959385124
0.227000000000000063,-5.441456823255188091
0.228000000000000064,-6.141236741769668050
0.229000000000000065,-6.820246935943927724
0.230000000000000066,-7.478435422340149685
0.231000000000000066,-8.115772869307232185
0.232000000000000067,-8.732256304097727906
0.233000000000000068,-9.327912113309867692
0.234000000000000069,-9.902798359416639329
0.235000000000000070,-10.457006444319125293
0.236000000000000071,-10.990662157432991464
0.237000000000000072,-11.503926150912082704
0.238000000000000073,-11.996993888359062552
0.239000000000000073,-12.470095115905731831
0.240000000000000074,-12.923492906002087111
0.241000000000000075,-13.357482324760386661
0.242000000000000076,-13.772388773390110472
0.243000000000000077,-14.168566053251529624
0.244000000000000078,-14.546394202463494238
0.245000000000000079,-14.906277149930687642
0.246000000000000080,-15.248640230205094070
0.247000000000000081,-15.573927599853869097
0.248000000000000081,-15.882599593050054310
0.249000000000000082,-16.175130051005133680
0.250000000000000111,-16.452003656686084554
0.251000000000000112,-16.713713303056795922
0.252000000000000113,-16.960757519904312574
0.253000000000000114,-17.193637981188764741
0.254000000000000115,-17.412857111831382184
0.255000000000000115,-17.618915809947907292
0.256000000000000116,-17.812311297771532992
0.257000000000000117,-17.993535111903447898
0.258000000000000118,-18.163071241092616503
0.259000000000000119,-18.321394417488676254
0.260000000000000120,-18.468968565236714596
0.261000000000000121,-18.606245408390375218
0.262000000000000122,-18.733663238412535890
0.263000000000000123,-18.851645840003850907
0.264000000000000123,-18.960601572647654223
0.265000000000000124,-19.060922604074853837
0.266000000000000125,-19.152984290831525982
0.267000000000000126,-19.237144700261623598
0.268000000000000127,-19.313744267493675011
0.269000000000000128,-19.383105580429269565
0.270000000000000129,-19.445533285266989765
0.271000000000000130,-19.501314104745116396
0.272000000000000131,-19.550716961042571285
0.273000000000000131,-19.593993195128462048
0.274000000000000132,-19.631376874288584133
0.275000000000000133,-19.663085179571833550
0.276000000000000134,-19.689318864982556789
0.277000000000000135,-19.710262780387722614
0.278000000000000136,-19.726086450302933173
0.279000000000000137,-19.736944700960663113
0.280000000000000138,-19.742978328340946348
0.281000000000000139,-19.744314800153034639
0.282000000000000139,-19.741068985089384569
0.283000000000000140,-19.733343903025861721
0.284000000000000141,-19.721231490209376602
0.285000000000000142,-19.704813373850811331
0.286000000000000143,-19.684161650924480114
0.287000000000000144,-19.659339666359581855
0.288000000000000145,-19.630402786194039777
0.289000000000000146,-19.597399161640105092
0.290000000000000147,-19.560370480385238068
0.291000000000000147,-19.519352701816210072
0.292000000000000148,-19.474376773209005620
0.293000000000000149,-19.425469324269322158
0.294000000000000150,-19.372653337737148149
0.295000000000000151,-19.315948794084327744
0.296000000000000152,-19.255373288632746664
0.297000000000000153,-19.190942619705232630
0.298000000000000154,-19.122671346688598248
0.299000000000000155,-19.050573317139882334
0.300000000000000155,-18.974662162301502377
0.301000000000000156,-18.894951760609707492
0.302000000000000157,-18.811456668982902585
0.303000000000000158,-18.724192521862601524
0.304000000000000159,-18.633176398150695263
0.305000000000000160,-18.538427156341416691
0.306000000000000161,-18.439965738287835251
0.307000000000000162,-18.337815442168601265
0.308000000000000163,-18.232002165333309307
0.309000000000000163,-18.122554617805043620
0.310000000000000164,-18.009504507305564402
0.311000000000000165,-17.892886696744021435
0.312000000000000166,-17.772739335174737363
0.313000000000000167,-17.649103963283376828
0.314000000000000168,-17.522025594504668788
0.315000000000000169,-17.391552772909985691
0.316000000000000170,-17.257737609029479842
0.317000000000000171,-17.120635794791756013
0.318000000000000171,-16.980306598775211313
0.319000000000000172,-16.836812842970083182
0.320000000000000173,-16.690220862248033029
0.321000000000000174,-16.540600447729275402
0.322000000000000175,-16.388024775225005669
0.323000000000000176,-16.232570319916057144
0.324000000000000177,-16.074316758407871220
0.325000000000000178,-15.913346859277643475
0.326000000000000179,-15.749746363202003607
0.327000000000000179,-15.583603853723179355
0.328000000000000180,-15.415010619678957582
0.329000000000000181,-15.244060510287772203
0.330000000000000182,-15.070849783842870551
0.331000000000000183,-14.895476950933110416
0.332000000000000184,-14.718042613068533342
0.333000000000000185,-14.538649297549735451
0.334000000000000186,-14.357401289380074871
0.335000000000000187,-14.174404460979463494
0.336000000000000187,-13.989766100418208339
0.337000000000000188,-13.803594738848909529
0.338000000000000189,-13.615999977774745133
0.339000000000000190,-13.427092316752581524
0.340000000000000191,-13.236982982090216510
0.341000000000000192,-13.045783757059364660
0.342000000000000193,-12.853606814107266132
0.343000000000000194,-12.660564549514322863
0.344000000000000195,-12.466769420908320853
0.345000000000000195,-12.272333788011923872
0.346000000000000196,-12.077369756965818937
0.347000000000000197,-11.881989028537731201
0.348000000000000198,-11.686302750496256664
0.349000000000000199,-11.490421374397861598
0.350000000000000200,-11.294454517007142869
0.351000000000000201,-11.098510826542142382
0.352000000000000202,-10.902697853910561676
0.353000000000000203,-10.707121929077347389
0.354000000000000203,-10.511888042680222810
0.355000000000000204,-10.317099732987085048
0.356000000000000205,-10.122858978267899488
0.357000000000000206,-9.929266094633254269
0.358000000000000207,-9.736419639372886792
0.359000000000000208,-9.544416319809673865
0.360000000000000209,-9.353350907667707048
0.361000000000000210,-9.163316158937726996
0.362000000000000210,-8.974402739208429125
0.363000000000000211,-8.786699154418974089
0.364000000000000212,-8.600291686975474192
0.365000000000000213,-8.415264337162779995
0.366000000000000214,-8.231698769772631152
0.367000000000000215,-8.049674265859334099
0.368000000000000216,-7.869267679525885129
0.369000000000000217,-7.690553399635244425
0.370000000000000218,-7.513603316334753757
0.371000000000000218,-7.338486792275214832
0.372000000000000219,-7.165270638400862424
0.373000000000000220,-6.994019094181420648
0.374000000000000221,-6.824793812153602701
0.375000000000000222,-6.657653846635516182
0.376000000000000223,-6.492655646474885245
0.377000000000000224,-6.329853051689406485
0.378000000000000225,-6.169297293855819042
0.379000000000000226,-6.011037000102971817
0.380000000000000226,-5.855118200563222963
0.381000000000000227,-5.701584339136097412
0.382000000000000228,-5.550476287418183219
0.383000000000000229,-5.401832361653521986
0.384000000000000230,-5.255688342559352577
0.385000000000000231,-5.112077497883416477
0.386000000000000232,-4.971030607549952407
0.387000000000000233,-4.832575991253382774
0.388000000000000234,-4.696739538360384714
0.389000000000000234,-4.563544739983337095
0.390000000000000235,-4.433012723089959195
0.391000000000000236,-4.305162286517114190
0.392000000000000237,-4.180009938758573185
0.393000000000000238,-4.057569937400087312
0.394000000000000239,-3.937854330077430909
0.395000000000000240,-3.820872996836489399
0.396000000000000241,-3.706633693777389826
0.397000000000000242,-3.595142097867955133
0.398000000000000242,-3.486401852815095737
0.399000000000000243,-3.380414615885984908
0.400000000000000244,-3.277180105574201807
0.401000000000000245,-3.176696150009828745
0.402000000000000246,-3.078958736015367847
0.403000000000000247,-2.983962058713152565
0.404000000000000248,-2.891698571593420919
0.405000000000000249,-2.802159036955454763
0.406000000000000250,-2.715332576637772721
0.407000000000000250,-2.631206722956803468
0.408000000000000251,-2.549767469776722528
0.409000000000000252,-2.470999323636738243
0.410000000000000253,-2.394885354865112781
0.411000000000000254,-2.321407248612850527
0.412000000000000255,-2.250545355742861631
0.413000000000000256,-2.182278743513934582
0.414000000000000257,-2.116585246001600584
0.415000000000000258,-2.053441514201433726
0.416000000000000258,-1.992823065762963086
0.417000000000000259,-1.934704334305587192
0.418000000000000260,-1.879058718270604000
0.419000000000000261,-1.825858629266229327
0.420000000000000262,-1.775075539865391239
0.421000000000000263,-1.726680030818547706
0.422000000000000264,-1.680641837646416947
0.423000000000000265,-1.636929896579997656
0.424000000000000266,-1.595512389817859589
0.425000000000000266,-1.556356790072668250
0.426000000000000267,-1.519429904381548679
0.427000000000000268,-1.484697917156913238
0.428000000000000269,-1.452126432456518623
0.429000000000000270,-1.421680515453584093
0.430000000000000271,-1.393324733089811307
0.431000000000000272,-1.367023193895980260
0.432000000000000273,-1.342739586966653853
0.433000000000000274,-1.320437220077305129
0.434000000000000274,-1.300079056933820976
0.435000000000000275,-1.281627753545956150
0.436000000000000276,-1.265045693717878006
0.437000000000000277,-1.250295023650383364
0.438000000000000278,-1.237337685650787167
0.439000000000000279,-1.226135450947864136
0.440000000000000280,-1.216649951610419444
0.441000000000000281,-1.208842711569305228
0.442000000000000282,-1.202675176743993601
0.443000000000000282,-1.198108744275562909
0.444000000000000283,-1.195104790869468081
0.445000000000000284,-1.193624700251979531
0.446000000000000285,-1.193629889745367212
0.447000000000000286,-1.195081835967778838
0.448000000000000287,-1.197942099664379922
0.449000000000000288,-1.202172349677310459
0.450000000000000289,-1.207734386062607079
0.451000000000000290,-1.214590162362900516
0.452000000000000290,-1.222701807045412314
0.453000000000000291,-1.232031644115239688
0.454000000000000292,-1.242542212914559796
0.455000000000000293,-1.254196287118789055
0.456000000000000294,-1.266956892941260238
0.457000000000000295,-1.280787326558316952
0.458000000000000296,-1.295651170767230242
0.459000000000000297,-1.311512310889497268
0.460000000000000298,-1.328334949932654663
0.461000000000000298,-1.346083623023670350
0.462000000000000299,-1.364723211127631952
0.463000000000000300,-1.384218954065275176
0.464000000000000301,-1.404536462843394506
0.465000000000000302,-1.425641731312093707
0.466000000000000303,-1.447501147163236634
0.467000000000000304,-1.470081502284209307
0.468000000000000305,-1.493350002481618199
0.469000000000000306,-1.517274276589235082
0.470000000000000306,-1.541822384974764315
0.471000000000000307,-1.566962827459970509
0.472000000000000308,-1.592664550668689838
0.473000000000000309,-1.618896954817274025
0.474000000000000310,-1.645629899961874143
0.475000000000000311,-1.672833711717198302
0.476000000000000312,-1.700479186460864822
0.477000000000000313,-1.728537596037902135
0.478000000000000314,-1.756980691979432407
0.479000000000000314,-1.785780709249765952
0.480000000000000315,-1.814910369535796431
0.481000000000000316,-1.844342884092694757
0.482000000000000317,-1.874051956159478394
0.483000000000000318,-1.904011782958185961
0.484000000000000319,-1.934197057289980703
0.485000000000000320,-1.964582968741522162
0.486000000000000321,-1.995145204514654269
0.487000000000000322,-2.025859949892358625
0.488000000000000322,-2.056703888353690779
0.489000000000000323,-2.087654201350235716
0.490000000000000324,-2.118688567756477514
0.491000000000000325,-2.149785163006177946
0.492000000000000326,-2.180922657926744002
0.493000000000000327,-2.212080217283310279
0.494000000000000328,-2.243237498044079015
0.495000000000000329,-2.274374647378216263
0.496000000000000330,-2.305472300397403806
0.497000000000000330,-2.336511577651957605
0.498000000000000331,-2.367474082392148738
0.499000000000000332,-2.398341897605124728
0.500000000000000333,-2.429097582837773217
0.501000000000000334,-2.459724170815397404
0.502000000000000335,-2.490205163866053173
0.503000000000000336,-2.520524530160057175
0.504000000000000337,-2.550666699774048585
0.505000000000000338,-2.580616560588647967
0.506000000000000338,-2.610359454028636783
0.507000000000000339,-2.639881170654340803
0.508000000000000340,-2.669167945612620052
0.509000000000000341,-2.698206453955720896
0.510000000000000342,-2.726983805836005192
0.511000000000000343,-2.755487541584354272
0.512000000000000344,-2.783705626679823020
0.513000000000000345,-2.811626446617909725
0.514000000000000346,-2.839238801684692781
0.515000000000000346,-2.866531901643657232
0.516000000000000347,-2.893495360342070555
0.517000000000000348,-2.920119190243464224
0.518000000000000349,-2.946393796892529338
0.519000000000000350,-2.972309973318592036
0.520000000000000351,-2.997858894383724326
0.521000000000000352,-3.023032111081158213
0.522000000000000353,-3.047821544789646175
0.523000000000000353,-3.072219481489209425
0.524000000000000354,-3.096218565943444023
0.525000000000000355,-3.119811795853484337
0.526000000000000356,-3.142992515988439983
0.527000000000000357,-3.165754412297073106
0.528000000000000358,-3.188091506005259923
0.529000000000000359,-3.209998147703483795
0.530000000000000360,-3.231469011428746541
0.531000000000000361,-3.252499088744797096
0.532000000000000361,-3.273083682824682317
0.533000000000000362,-3.293218402539270784
0.534000000000000363,-3.312899156555412894
0.535000000000000364,-3.332122147447153626
0.536000000000000365,-3.350883865823300223
0.537000000000000366,-3.369181084474533350
0.538000000000000367,-3.387010852543048678
0.539000000000000368,-3.404370489717698511
0.540000000000000369,-3.421257580457321978
0.541000000000000369,-3.437669968244966068
0.542000000000000370,-3.453605749875481301
0.543000000000000371,-3.469063269778902558
0.544000000000000372,-3.484041114381906112
0.545000000000000373,-3.498538106509491374
0.546000000000000374,-3.512553299828963027
0.547000000000000375,-3.526085973338128898
0.548000000000000376,-3.539135625899635151
0.549000000000000377,-3.551701970823064158
0.550000000000000377,-3.563784930496546988
0.551000000000000378,-3.575384631069367547
0.552000000000000379,-3.586501397187048301
0.553000000000000380,-3.597135746780255605
0.554000000000000381,-3.607288385908801409
0.555000000000000382,-3.616960203661979456
0.556000000000000383,-3.626152267116228956
0.557000000000000384,-3.634865816351290135
0.558000000000000385,-3.643102259525672793
0.559000000000000385,-3.650863168012422388
0.560000000000000386,-3.658150271595872027
0.561000000000000387,-3.664965453730211209
0.562000000000000388,-3.671310746860451779
0.563000000000000389,-3.677188327806462098
0.564000000000000390,-3.682600513210502413
0.565000000000000391,-3.687549755048849853
0.566000000000000392,-3.692038636207819025
0.567000000000000393,-3.696069866124611192
0.568000000000000393,-3.699646276493223418
0.569000000000000394,-3.702770817035718753
0.570000000000000395,-3.705446551339048877
0.571000000000000396,-3.707676652757501135
0.572000000000000397,-3.709464400380996008
0.573000000000000398,-3.710813175069180403
0.574000000000000399,-3.711726455551362935
0.575000000000000400,-3.712207814592286326
0.576000000000000401,-3.712260915223610791
0.577000000000000401,-3.711889507041076008
0.578000000000000402,-3.711097422567096515
0.579000000000000403,-3.709888573678699064
0.580000000000000404,-3.708266948100535476
0.581000000000000405,-3.706236605962734298
0.582000000000000406,-3.703801676423339018
0.583000000000000407,-3.700966354354947807
0.584000000000000408,-3.697734897095353634
0.585000000000000409,-3.694111621261669143
0.586000000000000409,-3.690100899627670294
0.587000000000000410,-3.685707158063890265
0.588000000000000411,-3.680934872540027047
0.589000000000000412,-3.675788566189262419
0.590000000000000413,-3.670272806433935386
0.591000000000000414,-3.664392202172138902
0.592000000000000415,-3.658151401024734017
0.593000000000000416,-3.651555086642172654
0.594000000000000417,-3.644607976070681765
0.595000000000000417,-3.637314817177198734
0.596000000000000418,-3.629680386132444703
0.597000000000000419,-3.621709484951673996
0.598000000000000420,-3.613406939092326464
0.599000000000000421,-3.604777595108134669
0.600000000000000422,-3.595826318358950946
0.601000000000000423,-3.586557990775717908
0.602000000000000424,-3.576977508679922035
0.603000000000000425,-3.567089780656918840
0.604000000000000425,-3.556899725482383978
0.605000000000000426,-3.546412270101340969
0.606000000000000427,-3.535632347659034114
0.607000000000000428,-3.524564895582935176
0.608000000000000429,-3.513214853715340702
0.609000000000000430,-3.501587162495673589
