# AuFCC100-Ablate5_OXIDOLAMBDA4SULFANE-AC
# h[nm],U(h)[kJ/mol]
0.149999999999999994,133.350837018344094531
0.150999999999999995,131.926532572695975887
0.151999999999999996,128.384792048665303810
0.152999999999999997,124.400950578121339163
0.153999999999999998,120.639445282538787296
0.154999999999999999,117.260711063840489032
0.156000000000000000,114.207926364153905752
0.157000000000000001,111.359034653136092174
0.158000000000000002,108.599127420511507580
0.159000000000000002,105.847986398652352591
0.160000000000000003,103.064192843733124505
0.161000000000000004,100.238514543679713142
0.162000000000000005,97.383743771775698406
0.163000000000000006,94.524723387643348360
0.164000000000000007,91.690239022189885532
0.165000000000000008,88.907281225500497612
0.166000000000000009,86.197562963010426529
0.167000000000000010,83.575896880436985725
0.168000000000000010,81.049951563283542555
0.169000000000000011,78.620926429627900234
0.170000000000000012,76.284755222266127817
0.171000000000000013,74.033535291651190846
0.172000000000000014,71.856965598750065283
0.173000000000000015,69.743651432705803472
0.174000000000000016,67.682194634873241057
0.175000000000000017,65.662034272514560485
0.176000000000000018,63.674035542465482251
0.177000000000000018,61.710846301686274273
0.178000000000000019,59.767053314046847845
0.179000000000000020,57.839176254983065917
0.180000000000000021,55.925538642935897826
0.181000000000000022,54.026052755255726368
0.182000000000000023,52.141951491522362971
0.183000000000000024,50.275495020298286875
0.184000000000000025,48.429674575926028979
0.185000000000000026,46.607930434588539015
0.186000000000000026,44.813896197532116616
0.187000000000000027,43.051177217954162302
0.188000000000000028,41.323167404576068407
0.189000000000000029,39.632905729729245081
0.190000000000000030,37.982971528076099332
0.191000000000000031,36.375416031214520274
0.192000000000000032,34.811726465810153286
0.193000000000000033,33.292818365439451611
0.194000000000000034,31.819051426808947269
0.195000000000000034,30.390264202370513402
0.196000000000000035,29.005823094197943135
0.197000000000000036,27.664681437887377768
0.198000000000000037,26.365444889086482760
0.199000000000000038,25.106439807045628498
0.200000000000000039,23.885781835795039996
0.201000000000000040,22.701442388288217700
0.202000000000000041,21.551311222881420093
0.203000000000000042,20.433253751280997079
0.204000000000000042,19.345162123732148274
0.205000000000000043,18.284999495720875018
0.206000000000000044,17.250837188796246835
0.207000000000000045,16.240884716598394277
0.208000000000000046,15.253512857799705671
0.209000000000000047,14.287270123640919195
0.210000000000000048,13.340893093055555596
0.211000000000000049,12.413311177461528345
0.212000000000000050,11.503646434770912421
0.213000000000000050,10.611209082631354761
0.214000000000000051,9.735489368791458986
0.215000000000000052,8.876146445939991025
0.216000000000000053,8.032994873222859766
0.217000000000000054,7.205989330327756015
0.218000000000000055,6.395208085583378832
0.219000000000000056,5.600835709586271527
0.220000000000000057,4.823145472689775559
0.221000000000000058,4.062481810158173445
0.222000000000000058,3.319243184437280725
0.223000000000000059,2.593865621068824900
0.224000000000000060,1.886807144230290501
0.225000000000000061,1.198533290437271415
0.226000000000000062,0.529503835107556831
0.227000000000000063,-0.119839173218469014
0.228000000000000064,-0.749082011998570940
0.229000000000000065,-1.357848489779838186
0.230000000000000066,-1.945807757404084626
0.231000000000000066,-2.512680749002499159
0.232000000000000067,-3.058245296186499651
0.233000000000000068,-3.582339975012083677
0.234000000000000069,-4.084866758165667022
0.235000000000000070,-4.565792554676297854
0.236000000000000071,-5.025149726594017707
0.237000000000000072,-5.463035676784637751
0.238000000000000073,-5.879611604565522676
0.239000000000000073,-6.275100526626017583
0.240000000000000074,-6.649784659810808130
0.241000000000000075,-7.004002260140589797
0.242000000000000076,-7.338144009139567103
0.243000000000000077,-7.652649034345870405
0.244000000000000078,-7.948000645993428925
0.245000000000000079,-8.224721866446659035
0.246000000000000080,-8.483370823198422173
0.247000000000000081,-8.724536070243534169
0.248000000000000081,-8.948831896532507102
0.249000000000000082,-9.156893674096121316
0.250000000000000111,-9.349373292396730761
0.251000000000000112,-9.526934719578388666
0.252000000000000113,-9.690249725614780374
0.253000000000000114,-9.839993796935717185
0.254000000000000115,-9.976842266989882191
0.255000000000000115,-10.101466682395198404
0.256000000000000116,-10.214531419861497596
0.257000000000000117,-10.316690564950809161
0.258000000000000118,-10.408585059974615916
0.259000000000000119,-10.490840124914305065
0.260000000000000120,-10.564062952185651056
0.261000000000000121,-10.628840673340375744
0.262000000000000122,-10.685738593398284024
0.263000000000000123,-10.735298686415035263
0.264000000000000123,-10.778038344100188795
0.265000000000000124,-10.814449367787222656
0.266000000000000125,-10.844997192806960840
0.267000000000000126,-10.870120333305626659
0.268000000000000127,-10.890230034763343170
0.269000000000000128,-10.905710120885798275
0.270000000000000129,-10.916917021145090771
0.271000000000000130,-10.924179965015294869
0.272000000000000131,-10.927801328867568387
0.273000000000000131,-10.928057121540669883
0.274000000000000132,-10.925197594770834186
0.275000000000000133,-10.919447964933393536
0.276000000000000134,-10.911009232904159916
0.277000000000000135,-10.900059089277419844
0.278000000000000136,-10.886752892667704629
0.279000000000000137,-10.871224709361909433
0.280000000000000138,-10.853588403167879761
0.281000000000000139,-10.833938764914233133
0.282000000000000139,-10.812352671686555894
0.283000000000000140,-10.788890266528810002
0.284000000000000141,-10.763596149989188788
0.285000000000000142,-10.736500575540727453
0.286000000000000143,-10.707620641553141638
0.287000000000000144,-10.676961473128873337
0.288000000000000145,-10.644517387740172865
0.289000000000000146,-10.610273039209687340
0.290000000000000147,-10.574204535164414054
0.291000000000000147,-10.536280523656781583
0.292000000000000148,-10.496463245187765523
0.293000000000000149,-10.454709546881611359
0.294000000000000150,-10.410971856050370121
0.295000000000000151,-10.365199110847965969
0.296000000000000152,-10.317337646146430785
0.297000000000000153,-10.267332033173103056
0.298000000000000154,-10.215125871824593418
0.299000000000000155,-10.160662534923778466
0.300000000000000155,-10.103885864008711692
0.301000000000000156,-10.044740816538510586
0.302000000000000157,-9.983174064671771930
0.303000000000000158,-9.919134546018213427
0.304000000000000159,-9.852573966985696430
0.305000000000000160,-9.783447259542356278
0.306000000000000161,-9.711712992390044263
0.307000000000000162,-9.637333737699965042
0.308000000000000163,-9.560276394696211710
0.309000000000000163,-9.480512471489628723
0.310000000000000164,-9.398018326662594291
0.311000000000000165,-9.312775372187413581
0.312000000000000166,-9.224770239327831689
0.313000000000000167,-9.133994909225210179
0.314000000000000168,-9.040446809909933990
0.315000000000000169,-8.944128881505452711
0.316000000000000170,-8.845049611407926449
0.317000000000000171,-8.743223041229544634
0.318000000000000171,-8.638668747289733219
0.319000000000000172,-8.531411796425926397
0.320000000000000173,-8.421482678875578998
0.321000000000000174,-8.308917219954146560
0.322000000000000175,-8.193756472221156884
0.323000000000000176,-8.076046589788294483
0.324000000000000177,-7.955838686380708680
0.325000000000000178,-7.833188678716058284
0.326000000000000179,-7.708157116716068735
0.327000000000000179,-7.580809002012168563
0.328000000000000180,-7.451213596151708529
0.329000000000000181,-7.319444219854854161
0.330000000000000182,-7.185578044612844550
0.331000000000000183,-7.049695877860204796
0.332000000000000184,-6.911881942892582842
0.333000000000000185,-6.772223654642329116
0.334000000000000186,-6.630811392363438195
0.335000000000000187,-6.487738270217683123
0.336000000000000187,-6.343099906694622092
0.337000000000000188,-6.196994193739268297
0.338000000000000189,-6.049521066404087932
0.339000000000000190,-5.900782273785256216
0.340000000000000191,-5.750881151947901060
0.341000000000000192,-5.599922399491899405
0.342000000000000193,-5.448011856356705707
0.343000000000000194,-5.295256286414157465
0.344000000000000195,-5.141763164348412296
0.345000000000000195,-4.987640467275825884
0.346000000000000196,-4.832996471511824765
0.347000000000000197,-4.677939554848563830
0.348000000000000198,-4.522578004665714246
0.349000000000000199,-4.367019832156739945
0.350000000000000200,-4.211372592915662239
0.351000000000000201,-4.055743214092904836
0.352000000000000202,-3.900237828295205045
0.353000000000000203,-3.744961614372210423
0.354000000000000203,-3.590018645201849434
0.355000000000000204,-3.435511742558310821
0.356000000000000205,-3.281542339119439156
0.357000000000000206,-3.128210347645238976
0.358000000000000207,-2.975614037335813755
0.359000000000000208,-2.823849917355271355
0.360000000000000209,-2.673012627487808768
0.361000000000000210,-2.523194835873540320
0.362000000000000210,-2.374487143754348661
0.363000000000000211,-2.226977997144255816
0.364000000000000212,-2.080753605324350275
0.365000000000000213,-1.935897866049056004
0.366000000000000214,-1.792492297338775575
0.367000000000000215,-1.650615975723082496
0.368000000000000216,-1.510345480789183847
0.369000000000000217,-1.371754845881787421
0.370000000000000218,-1.234915514793151647
0.371000000000000218,-1.099896304275476577
0.372000000000000219,-0.966763372202417814
0.373000000000000220,-0.835580191201597322
0.374000000000000221,-0.706407527576405569
0.375000000000000222,-0.579303425331950783
0.376000000000000223,-0.454323195117959044
0.377000000000000224,-0.331519407899502905
0.378000000000000225,-0.210941893165558669
0.379000000000000226,-0.092637741484759478
0.380000000000000226,0.023348688782056159
0.381000000000000227,0.136975760802474034
0.382000000000000228,0.248204544815106509
0.383000000000000229,0.356998800081463674
0.384000000000000230,0.463324953432749875
0.385000000000000231,0.567152074594600042
0.386000000000000232,0.668451848470563714
0.387000000000000233,0.767198544562114559
0.388000000000000234,0.863368983699837500
0.389000000000000234,0.956942502257013716
0.390000000000000235,1.047900914013485840
0.391000000000000236,1.136228469833446608
0.392000000000000237,1.221911815317437533
0.393000000000000238,1.304939946584170229
0.394000000000000239,1.385304164334040466
0.395000000000000240,1.462998026341617575
0.396000000000000241,1.538017298520117482
0.397000000000000242,1.610359904696380129
0.398000000000000242,1.680025875230346299
0.399000000000000243,1.747017294608483651
0.400000000000000244,1.811338248136240114
0.401000000000000245,1.872994767849538889
0.402000000000000246,1.931994777761398385
0.403000000000000247,1.988348038554755393
0.404000000000000248,2.042066091828209196
0.405000000000000249,2.093162203996889570
0.406000000000000250,2.141651309946269066
0.407000000000000250,2.187549956532230055
0.408000000000000251,2.230876246016533226
0.409000000000000252,2.271649779522327606
0.410000000000000253,2.309891600590478156
0.411000000000000254,2.345624138912987711
0.412000000000000255,2.378871154316137826
0.413000000000000256,2.409657681061665890
0.414000000000000257,2.438009972530756908
0.415000000000000258,2.463955446351573819
0.416000000000000258,2.487522630027636517
0.417000000000000259,2.508741107120530334
0.418000000000000260,2.527641464037166941
0.419000000000000261,2.544255237468300290
0.420000000000000262,2.558614862521762845
0.421000000000000263,2.570753621590695204
0.422000000000000264,2.580705593994038427
0.423000000000000265,2.588505606423500360
0.424000000000000266,2.594189184228304246
0.425000000000000266,2.597792503566417111
0.426000000000000267,2.599352344448143448
0.427000000000000268,2.598906044695409978
0.428000000000000269,2.596491454837685620
0.429000000000000270,2.592146893963058307
0.430000000000000271,2.585911106540635718
0.431000000000000272,2.577823220228441237
0.432000000000000273,2.567922704678710311
0.433000000000000274,2.556249331350623599
0.434000000000000274,2.542843134338490074
0.435000000000000275,2.527744372221749636
0.436000000000000276,2.510993490941268114
0.437000000000000277,2.492631087704832993
0.438000000000000278,2.472697875923228317
0.439000000000000279,2.451234651176720902
0.440000000000000280,2.428282258210408440
0.441000000000000281,2.403881558955647701
0.442000000000000282,2.378073401573316481
0.443000000000000282,2.350898590513800457
0.444000000000000283,2.322397857587134240
0.445000000000000284,2.292611834035992224
0.446000000000000285,2.261581023603099094
0.447000000000000286,2.229345776583692817
0.448000000000000287,2.195946264852953966
0.449000000000000288,2.161422457857423485
0.450000000000000289,2.125814099558692938
0.451000000000000290,2.089160686317088178
0.452000000000000290,2.051501445702313742
0.453000000000000291,2.012875316217521693
0.454000000000000292,1.973320927922753487
0.455000000000000293,1.932876583943169635
0.456000000000000294,1.891580242847127336
0.457000000000000295,1.849469501878758804
0.458000000000000296,1.806581581029249151
0.459000000000000297,1.762953307930955615
0.460000000000000298,1.718621103557889551
0.461000000000000298,1.673620968716286628
0.462000000000000299,1.627988471308307039
0.463000000000000300,1.581758734352194384
0.464000000000000301,1.534966424741755153
0.465000000000000302,1.487645742728162412
0.466000000000000303,1.439830412106746449
0.467000000000000304,1.391553671091733335
0.468000000000000305,1.342848263861497582
0.469000000000000306,1.293746432757178599
0.470000000000000306,1.244279911117422532
0.471000000000000307,1.194479916732012814
0.472000000000000308,1.144377145897315540
0.473000000000000309,1.094001768056469537
0.474000000000000310,1.043383421007465284
0.475000000000000311,0.992551206662091068
0.476000000000000312,0.941533687339391911
0.477000000000000313,0.890358882576734012
0.478000000000000314,0.839054266442395891
0.479000000000000314,0.787646765333307353
0.480000000000000315,0.736162756242000005
0.481000000000000316,0.684628065476904690
0.482000000000000317,0.633067967820415300
0.483000000000000318,0.581507186109286534
0.484000000000000319,0.529969891222202949
0.485000000000000320,0.478479702459564227
0.486000000000000321,0.427059688300765739
0.487000000000000322,0.375732367524527322
0.488000000000000322,0.324519710677994400
0.489000000000000323,0.273443141880739315
0.490000000000000324,0.222523540949826876
0.491000000000000325,0.171781245832591301
0.492000000000000326,0.121236055333872272
0.493000000000000327,0.070907232124838820
0.494000000000000328,0.020813506020692606
0.495000000000000329,-0.029026922485093910
0.496000000000000330,-0.078596378442132436
0.497000000000000330,-0.127877708431930748
0.498000000000000331,-0.176854276335710436
0.499000000000000332,-0.225509958892486179
0.500000000000000333,-0.273829141058554604
0.501000000000000334,-0.321796711179033745
0.502000000000000335,-0.369398055981999041
0.503000000000000336,-0.416619055405393623
0.504000000000000337,-0.463446077266738699
0.505000000000000338,-0.509865971785229855
0.506000000000000338,-0.555866065965718747
0.507000000000000339,-0.601434157853729667
0.508000000000000340,-0.646558510670385944
0.509000000000000341,-0.691227846835906656
0.510000000000000342,-0.735431341890084189
0.511000000000000343,-0.779158618317872920
0.512000000000000344,-0.822399739287993037
0.513000000000000345,-0.865145202312165518
0.514000000000000346,-0.907385932832492026
0.515000000000000346,-0.949113277744020101
0.516000000000000347,-0.990318998859537225
0.517000000000000348,-1.030995266323272430
0.518000000000000349,-1.071134651980003571
0.519000000000000350,-1.110730122705785083
0.520000000000000351,-1.149775033706445848
0.521000000000000352,-1.188263121789583376
0.522000000000000353,-1.226188498615713440
0.523000000000000353,-1.263545643934048446
0.524000000000000354,-1.300329398807999581
0.525000000000000355,-1.336534958835552844
0.526000000000000356,-1.372157867369207418
0.527000000000000357,-1.407194008740194402
0.528000000000000358,-1.441639601491451206
0.529000000000000359,-1.475491191623448106
0.530000000000000360,-1.508745645857157980
0.531000000000000361,-1.541400144917934867
0.532000000000000361,-1.573452176844126971
0.533000000000000362,-1.604899530323920187
0.534000000000000363,-1.635740288063911807
0.535000000000000364,-1.665972820192612058
0.536000000000000365,-1.695595777701990770
0.537000000000000366,-1.724608085930032120
0.538000000000000367,-1.753008938087084356
0.539000000000000368,-1.780797788828699879
0.540000000000000369,-1.807974347877460364
0.541000000000000369,-1.834538573696201436
0.542000000000000370,-1.860490667214881544
0.543000000000000371,-1.885831065613242874
0.544000000000000372,-1.910560436161285125
0.545000000000000373,-1.934679670119397787
0.546000000000000374,-1.958189876699998111
0.547000000000000375,-1.981092377092260604
0.548000000000000376,-2.003388698551564318
0.549000000000000377,-2.025080568555031935
0.550000000000000377,-2.046169909024586175
0.551000000000000378,-2.066658830618680831
0.552000000000000379,-2.086549627093939652
0.553000000000000380,-2.105844769737692079
0.554000000000000381,-2.124546901872407911
0.555000000000000382,-2.142658833432921739
0.556000000000000383,-2.160183535617183459
0.557000000000000384,-2.177124135611324451
0.558000000000000385,-2.193483911389611407
0.559000000000000385,-2.209266286589900652
0.560000000000000386,-2.224474825465024175
0.561000000000000387,-2.239113227910588311
0.562000000000000388,-2.253185324569463521
0.563000000000000389,-2.266695072013339640
0.564000000000000390,-2.279646548001461159
0.565000000000000391,-2.292043946816801014
0.566000000000000392,-2.303891574679729715
0.567000000000000393,-2.315193845239232218
0.568000000000000393,-2.325955275141669887
0.569000000000000394,-2.336180479677049782
0.570000000000000395,-2.345874168502692925
0.571000000000000396,-2.355041141444101704
0.572000000000000397,-2.363686284372931823
0.573000000000000398,-2.371814565161743715
0.574000000000000399,-2.379431029715273649
0.575000000000000400,-2.386540798077954051
0.576000000000000401,-2.393149060617259405
0.577000000000000401,-2.399261074282554862
0.578000000000000402,-2.404882158938974168
0.579000000000000403,-2.410017693775900138
0.580000000000000404,-2.414673113789556957
0.581000000000000405,-2.418853906339194726
0.582000000000000406,-2.422565607776344887
0.583000000000000407,-2.425813800146533250
0.584000000000000408,-2.428604107962947012
0.585000000000000409,-2.430942195051332799
0.586000000000000409,-2.432833761465581723
0.587000000000000410,-2.434284540473320657
0.588000000000000411,-2.435300295610787646
0.589000000000000412,-2.435886817806400373
0.590000000000000413,-2.436049922572199211
0.591000000000000414,-2.435795447262516511
0.592000000000000415,-2.435129248399136248
0.593000000000000416,-2.434057199062122478
0.594000000000000417,-2.432585186345646466
0.595000000000000417,-2.430719108877987811
0.596000000000000418,-2.428464874404906215
0.597000000000000419,-2.425828397435674244
0.598000000000000420,-2.422815596950866457
0.599000000000000421,-2.419432394171180167
0.600000000000000422,-2.415684710386428069
0.601000000000000423,-2.411578464843894487
0.602000000000000424,-2.407119572695230580
0.603000000000000425,-2.402313943001084251
0.604000000000000425,-2.397167476792559704
0.605000000000000426,-2.391686065188753929
0.606000000000000427,-2.385875587569502798
0.607000000000000428,-2.379741909802439270
0.608000000000000429,-2.373290882523651835
0.609000000000000430,-2.366528339470936881
0.610000000000000431,-2.359460095868977536
0.611000000000000432,-2.352091946865459082
0.612000000000000433,-2.344429666017366465
0.613000000000000433,-2.336479003826630318
0.614000000000000434,-2.328245686324236896
