# AuFCC100-Ablate5_TRIFLUOROMETHANE
# h[nm],U(h)[kJ/mol]
0.149999999999999994,133.326347827573897575
0.150999999999999995,132.853565659744162986
0.151999999999999996,129.547684267190049923
0.152999999999999997,125.650755308150110068
0.153999999999999998,122.033188073231528392
0.154999999999999999,118.892172053176366830
0.156000000000000000,116.141798799233399109
0.157000000000000001,113.616563428489897092
0.158000000000000002,111.165942816074490906
0.159000000000000002,108.688602311657035671
0.160000000000000003,106.135733427664717965
0.161000000000000004,103.500782169958625900
0.162000000000000005,100.805124449065175440
0.163000000000000006,98.084530092079347696
0.164000000000000007,95.378477963279578944
0.165000000000000008,92.722834778342885897
0.166000000000000009,90.145620380047333242
0.167000000000000010,87.665245949344381415
0.168000000000000010,85.290532140800308980
0.169000000000000011,83.021868252444036784
0.170000000000000012,80.852986587061366208
0.171000000000000013,78.772954948673103104
0.172000000000000014,76.768111561035595969
0.173000000000000015,74.823769753951822281
0.174000000000000016,72.925601009496617166
0.175000000000000017,71.060664935792090091
0.176000000000000018,69.218096015468603355
0.177000000000000018,67.389482929707369863
0.178000000000000019,65.568990338194993228
0.179000000000000020,63.753278353107042165
0.180000000000000021,61.941274263615028417
0.181000000000000022,60.133846510729881629
0.182000000000000023,58.333424149418362958
0.183000000000000024,56.543597296695352838
0.184000000000000025,54.768726214944670971
0.185000000000000026,53.013579289013776474
0.186000000000000026,51.283013566431442598
0.187000000000000027,49.581705916155058844
0.188000000000000028,47.913938275606106743
0.189000000000000029,46.283436869511774603
0.190000000000000030,44.693262616471919557
0.191000000000000031,43.145748080205535757
0.192000000000000032,41.642475149266722667
0.193000000000000033,40.184287017460142977
0.194000000000000034,38.771327869265221011
0.195000000000000034,37.403103843163101772
0.196000000000000035,36.078559257036879160
0.197000000000000036,34.796162654144119131
0.198000000000000037,33.553997899928923232
0.199000000000000038,32.349856276681535405
0.200000000000000039,31.181326244171248874
0.201000000000000040,30.045878229667760451
0.202000000000000041,28.940942458870047460
0.203000000000000042,27.863978426173400038
0.204000000000000042,26.812535120357409824
0.205000000000000043,25.784301566801911321
0.206000000000000044,24.777147619932858191
0.207000000000000045,23.789155242612434193
0.208000000000000046,22.818640747297649796
0.209000000000000047,21.864168652880643151
0.210000000000000048,20.924557937745991154
0.211000000000000049,19.998881550562266796
0.212000000000000050,19.086460082452916254
0.213000000000000050,18.186850513994553324
0.214000000000000051,17.299830934070580923
0.215000000000000052,16.425382090550847636
0.216000000000000053,15.563666580079043911
0.217000000000000054,14.715006420327600978
0.218000000000000055,13.879859676728907303
0.219000000000000056,13.058796740133598036
0.220000000000000057,12.252476774755155731
0.221000000000000058,11.461624779320603196
0.222000000000000058,10.687009630272706673
0.223000000000000059,9.929423405492665111
0.224000000000000060,9.189662221296899247
0.225000000000000061,8.468508755079060535
0.226000000000000062,7.766716571329956409
0.227000000000000063,7.084996320071418552
0.228000000000000064,6.424003834012320446
0.229000000000000065,5.784330113856706923
0.230000000000000066,5.166493159948261749
0.231000000000000066,4.570931582512127278
0.232000000000000067,3.997999901796801314
0.233000000000000068,3.447965433021211279
0.234000000000000069,2.921006638774966913
0.235000000000000070,2.417212822970312036
0.236000000000000071,1.936585035174933633
0.237000000000000072,1.479038051745695803
0.238000000000000073,1.044403300236213195
0.239000000000000073,0.632432595687383414
0.240000000000000074,0.242802561274795936
0.241000000000000075,-0.124880388939607331
0.242000000000000076,-0.471074621021540019
0.243000000000000077,-0.796297514585727395
0.244000000000000078,-1.101119459430357495
0.245000000000000079,-1.386157707954541518
0.246000000000000080,-1.652070167475411910
0.247000000000000081,-1.899549208047040638
0.248000000000000081,-2.129315552939235356
0.249000000000000082,-2.342112310671703224
0.250000000000000111,-2.538699199509045989
0.251000000000000112,-2.719847007675498141
0.252000000000000113,-2.886332325303407664
0.253000000000000114,-3.038932577325178297
0.254000000000000115,-3.178421380187497203
0.255000000000000115,-3.305564239422941419
0.256000000000000116,-3.421114599769919273
0.257000000000000117,-3.525810254685104894
0.258000000000000118,-3.620370117737530702
0.259000000000000119,-3.705491354498986478
0.260000000000000120,-3.781846870134113026
0.261000000000000121,-3.850083144925062761
0.262000000000000122,-3.910818407418510390
0.263000000000000123,-3.964641132730320372
0.264000000000000123,-4.012108851761035488
0.265000000000000124,-4.053747255634692515
0.266000000000000125,-4.090049578548790699
0.267000000000000126,-4.121476241385403583
0.268000000000000127,-4.148454737857485419
0.269000000000000128,-4.171379744622405461
0.270000000000000129,-4.190613436663030100
0.271000000000000130,-4.206485989289769023
0.272000000000000131,-4.219296248333050059
0.273000000000000131,-4.229312550451984620
0.274000000000000132,-4.236773675962356656
0.275000000000000133,-4.241889917165816648
0.276000000000000134,-4.244844245825110107
0.277000000000000135,-4.245793564161509437
0.278000000000000136,-4.244870024535439157
0.279000000000000137,-4.242182403796185497
0.280000000000000138,-4.237817519140230083
0.281000000000000139,-4.231841673188358577
0.282000000000000139,-4.224302116870907398
0.283000000000000140,-4.215228519588906764
0.284000000000000141,-4.204634436989722168
0.285000000000000142,-4.192518767552493308
0.286000000000000143,-4.178867190015847832
0.287000000000000144,-4.163653574492996334
0.288000000000000145,-4.146841360904744533
0.289000000000000146,-4.128384899114108109
0.290000000000000147,-4.108230745866990219
0.291000000000000147,-4.086318914327522478
0.292000000000000148,-4.062584072644910727
0.293000000000000149,-4.036956688598428045
0.294000000000000150,-4.009364117938971184
0.295000000000000151,-3.979731634579374511
0.296000000000000152,-3.947983401280482418
0.297000000000000153,-3.914043379938132894
0.298000000000000154,-3.877836180996439452
0.299000000000000155,-3.839287851897715598
0.300000000000000155,-3.798326604828958786
0.301000000000000156,-3.754883484340845623
0.302000000000000157,-3.708892975698804939
0.303000000000000158,-3.660293555078414585
0.304000000000000159,-3.609028182940748231
0.305000000000000160,-3.555044742118210532
0.306000000000000161,-3.498296422310807507
0.307000000000000162,-3.438742052836695873
0.308000000000000163,-3.376346385601641575
0.309000000000000163,-3.311080330351681589
0.310000000000000164,-3.242921144352087559
0.311000000000000165,-3.171852578696241043
0.312000000000000166,-3.097864983491635638
0.313000000000000167,-3.020955374197518140
0.314000000000000168,-2.941127461402032850
0.315000000000000169,-2.858391646326784663
0.316000000000000170,-2.772764984335168936
0.317000000000000171,-2.684271118698412728
0.318000000000000171,-2.592940186841468098
0.319000000000000172,-2.498808701250776032
0.320000000000000173,-2.401919407178379817
0.321000000000000174,-2.302321119222616286
0.322000000000000175,-2.200068538806287499
0.323000000000000176,-2.095222054508840248
0.324000000000000177,-1.987847527140741644
0.325000000000000178,-1.878016061376886370
0.326000000000000179,-1.765803765691929872
0.327000000000000179,-1.651291502264335520
0.328000000000000180,-1.534564628438431111
0.329000000000000181,-1.415712731256226320
0.330000000000000182,-1.294829356490956540
0.331000000000000183,-1.172011733536929778
0.332000000000000184,-1.047360497430994464
0.333000000000000185,-0.920979409204057076
0.334000000000000186,-0.792975075684304143
0.335000000000000187,-0.663456669798634158
0.336000000000000187,-0.532535652345209387
0.337000000000000188,-0.400325496137962145
0.338000000000000189,-0.266941413354070067
0.339000000000000190,-0.132500086847279958
0.340000000000000191,0.002880593875872206
0.341000000000000192,0.139081791382987235
0.342000000000000193,0.275983973173761110
0.343000000000000194,0.413467158154737835
0.344000000000000195,0.551411156273624359
0.345000000000000195,0.689695800909035150
0.346000000000000196,0.828201173663185686
0.347000000000000197,0.966807821253573119
0.348000000000000198,1.105396964245794811
0.349000000000000199,1.243850697413653839
0.350000000000000200,1.382052181553525383
0.351000000000000201,1.519885826619303826
0.352000000000000202,1.657237466080267563
0.353000000000000203,1.793994522438548289
0.354000000000000203,1.930046163874898024
0.355000000000000204,2.065283452020847843
0.356000000000000205,2.199599480883087210
0.357000000000000206,2.332889506971390858
0.358000000000000207,2.465051070704788128
0.359000000000000208,2.595984109192348566
0.360000000000000209,2.725591060504572560
0.361000000000000210,2.853776959569421567
0.362000000000000210,2.980449525843194891
0.363000000000000211,3.105519242921120249
0.364000000000000212,3.228899430265564696
0.365000000000000213,3.350506307241480464
0.366000000000000214,3.470259049658785067
0.367000000000000215,3.588079839030393625
0.368000000000000216,3.703893904762162403
0.369000000000000217,3.817629559497550673
0.370000000000000218,3.929218227845114875
0.371000000000000218,4.038594468721295350
0.372000000000000219,4.145695991544238623
0.373000000000000220,4.250463666516948180
0.374000000000000221,4.352841529239391605
0.375000000000000222,4.452776779890273318
0.376000000000000223,4.550219777218975636
0.377000000000000224,4.645124027587686832
0.378000000000000225,4.737446169302357291
0.379000000000000226,4.827145952469408030
0.380000000000000226,4.914186214612608516
0.381000000000000227,4.998532852281842409
0.382000000000000228,5.080154788882066619
0.383000000000000229,5.159023938947081334
0.384000000000000230,5.235115169078893516
0.385000000000000231,5.308406255768765902
0.386000000000000232,5.378877840311670155
0.387000000000000233,5.446513381020918310
0.388000000000000234,5.511299102944557049
0.389000000000000234,5.573223945279845104
0.390000000000000235,5.632279506676885816
0.391000000000000236,5.688459988616456187
0.392000000000000237,5.741762137041983571
0.393000000000000238,5.792185182419322231
0.394000000000000239,5.839730778392445920
0.395000000000000240,5.884402939197276083
0.396000000000000241,5.926207975989858490
0.397000000000000242,5.965154432239302196
0.398000000000000242,6.001253018329983036
0.399000000000000243,6.034516545511593222
0.400000000000000244,6.064959859330015135
0.401000000000000245,6.092599772665769464
0.402000000000000246,6.117454998501665742
0.403000000000000247,6.139546082535180638
0.404000000000000248,6.158895335745752320
0.405000000000000249,6.175526767021660035
0.406000000000000250,6.189466015945816579
0.407000000000000250,6.200740285834497101
0.408000000000000251,6.209378277117970413
0.409000000000000252,6.215410121146762279
0.410000000000000253,6.218867314502685595
0.411000000000000254,6.219782653888591639
0.412000000000000255,6.218190171666519994
0.413000000000000256,6.214125072109019321
0.414000000000000257,6.207623668424351315
0.415000000000000258,6.198723320611675192
0.416000000000000258,6.187462374198537951
0.417000000000000259,6.173880099908596542
0.418000000000000260,6.158016634303974612
0.419000000000000261,6.139912921442709504
0.420000000000000262,6.119610655588205717
0.421000000000000263,6.097152225004132120
0.422000000000000264,6.072580656864902338
0.423000000000000265,6.045939563308659004
0.424000000000000266,6.017273088656487801
0.425000000000000266,5.986625857818869356
0.426000000000000267,5.954042925907359951
0.427000000000000268,5.919569729066854968
0.428000000000000269,5.883252036541248842
0.429000000000000270,5.845135903982838776
0.430000000000000271,5.805267628013362824
0.431000000000000272,5.763693702042559153
0.432000000000000273,5.720460773347835648
0.433000000000000274,5.675615601416688527
0.434000000000000274,5.629205017551606183
0.435000000000000275,5.581275885735473175
0.436000000000000276,5.531875064753689841
0.437000000000000277,5.481049371567630502
0.438000000000000278,5.428845545932693639
0.439000000000000279,5.375310216252636053
0.440000000000000280,5.320489866660574663
0.441000000000000281,5.264430805316024475
0.442000000000000282,5.207179133905756707
0.443000000000000282,5.148780718335737916
0.444000000000000283,5.089281160599876230
0.445000000000000284,5.028725771810808709
0.446000000000000285,4.967159546376875845
0.447000000000000286,4.904627137308704476
0.448000000000000287,4.841172832638170220
0.449000000000000288,4.776840532931785788
0.450000000000000289,4.711673729879991335
0.451000000000000290,4.645715485943346934
0.452000000000000290,4.579008415036085466
0.453000000000000291,4.511594664227104090
0.454000000000000292,4.443515896438105628
0.455000000000000293,4.374813274118223738
0.456000000000000294,4.305527443874311189
0.457000000000000295,4.235698522035738378
0.458000000000000296,4.165366081132337861
0.459000000000000297,4.094569137264191916
0.460000000000000298,4.023346138341468148
0.461000000000000298,3.951734953172947762
0.462000000000000299,3.879772861381304949
0.463000000000000300,3.807496544123628812
0.464000000000000301,3.734942075595441224
0.465000000000000302,3.662144915296690950
0.466000000000000303,3.589139901038021829
0.467000000000000304,3.515961242666096886
0.468000000000000305,3.442642516486525750
0.469000000000000306,3.369216660363270499
0.470000000000000306,3.295715969473628437
0.471000000000000307,3.222172092697859647
0.472000000000000308,3.148616029622997026
0.473000000000000309,3.075078128140346756
0.474000000000000310,3.001588082616728492
0.475000000000000311,2.928174932619272752
0.476000000000000312,2.854867062174597514
0.477000000000000313,2.781692199542545652
0.478000000000000314,2.708677417485811922
0.479000000000000314,2.635849134016494677
0.480000000000000315,2.563233113601203428
0.481000000000000316,2.490854468806555033
0.482000000000000317,2.418737662367261620
0.483000000000000318,2.346906509659308249
0.484000000000000319,2.275384181561056707
0.485000000000000320,2.204193207685485767
0.486000000000000321,2.133355479967022905
0.487000000000000322,2.062892256586894568
0.488000000000000322,1.992824166221135895
0.489000000000000323,1.923171212595897739
0.490000000000000324,1.853952779334852252
0.491000000000000325,1.785187635084031665
0.492000000000000326,1.716893938899639149
0.493000000000000327,1.649089245884849841
0.494000000000000328,1.581790513061833048
0.495000000000000329,1.515014105465694261
0.496000000000000330,1.448775802447317629
0.497000000000000330,1.383090804172421251
0.498000000000000331,1.317973738304534681
0.499000000000000332,1.253438666859979289
0.500000000000000333,1.189499093223056914
0.501000000000000334,1.126167969310288175
0.502000000000000335,1.063457702872646404
0.503000000000000336,1.001380164925197436
0.504000000000000337,0.939946697293721600
0.505000000000000338,0.879168120268431275
0.506000000000000338,0.819054740355015909
0.507000000000000339,0.759616358113626378
0.508000000000000340,0.700862276076780533
0.509000000000000341,0.642801306737386891
0.510000000000000342,0.585441780598397243
0.511000000000000343,0.528791554275918729
0.512000000000000344,0.472858018647878187
0.513000000000000345,0.417648107040670513
0.514000000000000346,0.363168303446329888
0.515000000000000346,0.309424650763315268
0.516000000000000347,0.256422759053990201
0.517000000000000348,0.204167813812291460
0.518000000000000349,0.152664584235299078
0.519000000000000350,0.101917431492699828
0.520000000000000351,0.051930316988286540
0.521000000000000352,0.002706810607992472
0.522000000000000353,-0.045749901050833854
0.523000000000000353,-0.093437006474124118
0.524000000000000354,-0.140352061054451804
0.525000000000000355,-0.186492978947882054
0.526000000000000356,-0.231858024968598031
0.527000000000000357,-0.276445806525621673
0.528000000000000358,-0.320255265605706607
0.529000000000000359,-0.363285670806042460
0.530000000000000360,-0.405536609420639849
0.531000000000000361,-0.447007979583688819
0.532000000000000361,-0.487699982473271010
0.533000000000000362,-0.527613114578419196
0.534000000000000363,-0.566748160032541470
0.535000000000000364,-0.605106183015933441
0.536000000000000365,-0.642688520229953819
0.537000000000000366,-0.679496773445349644
0.538000000000000367,-0.715532802126976342
0.539000000000000368,-0.750798716137097477
0.540000000000000369,-0.785296868519223978
0.541000000000000369,-0.819029848364387192
0.542000000000000370,-0.852000473761528432
0.543000000000000371,-0.884211784833658809
0.544000000000000372,-0.915667036861210759
0.545000000000000373,-0.946369693493945952
0.546000000000000374,-0.976323420052684576
0.547000000000000375,-1.005532076921904050
0.548000000000000376,-1.033999713034307488
0.549000000000000377,-1.061730559448168520
0.550000000000000377,-1.088729023018359499
0.551000000000000378,-1.114999680161663953
0.552000000000000379,-1.140547270717073625
0.553000000000000380,-1.165376691901527151
0.554000000000000381,-1.189492992361543822
0.555000000000000382,-1.212901366321132990
0.556000000000000383,-1.235607147826171426
0.557000000000000384,-1.257615805085525507
0.558000000000000385,-1.278932934908955987
0.559000000000000385,-1.299564257241914600
0.560000000000000386,-1.319515609797157873
0.561000000000000387,-1.338792942783122220
0.562000000000000388,-1.357402313728874210
0.563000000000000389,-1.375349882405491497
0.564000000000000390,-1.392641905843490013
0.565000000000000391,-1.409284733446099169
0.566000000000000392,-1.425284802197930301
0.567000000000000393,-1.440648631968625137
0.568000000000000393,-1.455382820911029551
0.569000000000000394,-1.469494040953362557
0.570000000000000395,-1.482989033384835453
0.571000000000000396,-1.495874604534072505
0.572000000000000397,-1.508157621539768511
0.573000000000000398,-1.519845008212858950
0.574000000000000399,-1.530943740989477941
0.575000000000000400,-1.541460844974020805
0.576000000000000401,-1.551403390071478539
0.577000000000000401,-1.560778487208294596
0.578000000000000402,-1.569593284640871333
0.579000000000000403,-1.577854964350906997
0.580000000000000404,-1.585570738526674406
0.581000000000000405,-1.592747846129332512
0.582000000000000406,-1.599393549543391302
0.583000000000000407,-1.605515131310317090
0.584000000000000408,-1.611119890944438637
0.585000000000000409,-1.616215141830053215
0.586000000000000409,-1.620808208198846412
0.587000000000000410,-1.624906422186610966
0.588000000000000411,-1.628517120968172138
0.589000000000000412,-1.631647643969647010
0.590000000000000413,-1.634305330156849534
0.591000000000000414,-1.636497515398908531
0.592000000000000415,-1.638231529906030826
0.593000000000000416,-1.639514695740300620
0.594000000000000417,-1.640354324398529240
0.595000000000000417,-1.640757714466063888
0.596000000000000418,-1.640732149340441426
0.597000000000000419,-1.640284895023922385
0.598000000000000420,-1.639423197983706171
0.599000000000000421,-1.638154283078863127
0.600000000000000422,-1.636485351552841250
0.601000000000000423,-1.634423579090492407
0.602000000000000424,-1.631976113938557571
0.603000000000000425,-1.629150075088556138
0.604000000000000425,-1.625952550520924023
0.605000000000000426,-1.622390595509455524
0.606000000000000427,-1.618471230984917408
0.607000000000000428,-1.614201441956748750
0.608000000000000429,-1.609588175991901737
0.609000000000000430,-1.604638341749628383
0.610000000000000431,-1.599358807571331420
0.611000000000000432,-1.593756400124286543
0.612000000000000433,-1.587837903098317849
0.613000000000000433,-1.581610055954373317
0.614000000000000434,-1.575079552723960941
0.615000000000000435,-1.568253040858432756
0.616000000000000436,-1.561137120127175537
0.617000000000000437,-1.553738341563670744
