# Al2O3-001_PRO-AC
# h[nm],U(h)[kJ/mol]
0.149999999999999994,170.700199088492325927
0.150999999999999995,169.154769730520342819
0.151999999999999996,166.421590985778180993
0.152999999999999997,163.488091691099953096
0.153999999999999998,160.710288679056645833
0.154999999999999999,158.148148897339467567
0.156000000000000000,155.746835562900287186
0.157000000000000001,153.427051559442730877
0.158000000000000002,151.123987709332311624
0.159000000000000002,148.798960936678412281
0.160000000000000003,146.437950362906974533
0.161000000000000004,144.045036629994910982
0.162000000000000005,141.634951000257387932
0.163000000000000006,139.226691083497172485
0.164000000000000007,136.838889639944852661
0.165000000000000008,134.486956600145731500
0.166000000000000009,132.181708707405505265
0.167000000000000010,129.929100800696346596
0.168000000000000010,127.730681050458912296
0.169000000000000011,125.584451084814418209
0.170000000000000012,123.485887198681979271
0.171000000000000013,121.428952545956775566
0.172000000000000014,119.406993698566950002
0.173000000000000015,117.413465125632839658
0.174000000000000016,115.442462002526639253
0.175000000000000017,113.489066846325684423
0.176000000000000018,111.549530945448736929
0.177000000000000018,109.621319643406536670
0.178000000000000019,107.703053290402380071
0.179000000000000020,105.794374814795759221
0.180000000000000021,103.895771762246567960
0.181000000000000022,102.008376344835838267
0.182000000000000023,100.133762286983085232
0.183000000000000024,98.273752561880826306
0.184000000000000025,96.430247805408754402
0.185000000000000026,94.605081455611454544
0.186000000000000026,92.799904573069923686
0.187000000000000027,91.016100857780216415
0.188000000000000028,89.254730552070824956
0.189000000000000029,87.516500639953136442
0.190000000000000030,85.801757940978134798
0.191000000000000031,84.110501267377514978
0.192000000000000032,82.442408686025203224
0.193000000000000033,80.796876027435104106
0.194000000000000034,79.173063047538917658
0.195000000000000034,77.569944019212613284
0.196000000000000035,75.986359964238815223
0.197000000000000036,74.421070196761675675
0.198000000000000037,72.872801308917715346
0.199000000000000038,71.340292168173405685
0.200000000000000039,69.822333900167876664
0.201000000000000040,68.317804191849020867
0.202000000000000041,66.825695562809315220
0.203000000000000042,65.345137516543189804
0.204000000000000042,63.875412698799536315
0.205000000000000043,62.415967359932515990
0.206000000000000044,60.966416545932737847
0.207000000000000045,59.526544533107369261
0.208000000000000046,58.096301078971578136
0.209000000000000047,56.675794091663519225
0.210000000000000048,55.265279326826373563
0.211000000000000049,53.865147708856611075
0.212000000000000050,52.475910846768599072
0.213000000000000050,51.098185277335787191
0.214000000000000051,49.732675922831909077
0.215000000000000052,48.380159200381520179
0.216000000000000053,47.041466166956553252
0.217000000000000054,45.717466030342620797
0.218000000000000055,44.409050303486750977
0.219000000000000056,43.117117828734208729
0.220000000000000057,41.842560850464494138
0.221000000000000058,40.586252270206230719
0.222000000000000058,39.349034177856523797
0.223000000000000059,38.131707716412421405
0.224000000000000060,36.935024305713334059
0.225000000000000061,35.759678223073237291
0.226000000000000062,34.606300515212289781
0.227000000000000063,33.475454196383061856
0.228000000000000064,32.367630671771145501
0.229000000000000065,31.283247312839563392
0.230000000000000066,30.222646101977375110
0.231000000000000066,29.186093257273654444
0.232000000000000067,28.173779744155275750
0.233000000000000068,27.185822578678966011
0.234000000000000069,26.222266827154847135
0.235000000000000070,25.283088208213932546
0.236000000000000071,24.368196206149043803
0.237000000000000072,23.477437608110570011
0.238000000000000073,22.610600382305864997
0.239000000000000073,21.767417819533573464
0.240000000000000074,20.947572866000172098
0.241000000000000075,20.150702581268042479
0.242000000000000076,19.376402661231558966
0.243000000000000077,18.624231972096847443
0.244000000000000078,17.893717047357760919
0.245000000000000079,17.184356505631836143
0.246000000000000080,16.495625352884097481
0.247000000000000081,15.826979137968999467
0.248000000000000081,15.177857935526656519
0.249000000000000082,14.547690135047554705
0.250000000000000111,13.935896019352636444
0.251000000000000112,13.341891119812657962
0.252000000000000113,12.765089339346030073
0.253000000000000114,12.204905837594724360
0.254000000000000115,11.660759675682680125
0.255000000000000115,11.132076220628693619
0.256000000000000116,10.618289311823627230
0.257000000000000117,10.118843194009693676
0.258000000000000118,9.633194222933942896
0.259000000000000119,9.160812351307740187
0.260000000000000120,8.701182403908703122
0.261000000000000121,8.253805151632763071
0.262000000000000122,7.818198195059214761
0.263000000000000123,7.393896668653583859
0.264000000000000123,6.980453777118425407
0.265000000000000124,6.577441175631967951
0.266000000000000125,6.184449205804545713
0.267000000000000126,5.801086999151936041
0.268000000000000127,5.426982459746710674
0.269000000000000128,5.061782137481308119
0.270000000000000129,4.705151003070961124
0.271000000000000130,4.356772135554787262
0.272000000000000131,4.016346332631760774
0.273000000000000131,3.683591653703843782
0.274000000000000132,3.358242905002760459
0.275000000000000133,3.040051075656740487
0.276000000000000134,2.728782733018156215
0.277000000000000135,2.424219385029020124
0.278000000000000136,2.126156816853248976
0.279000000000000137,1.834404408460228897
0.280000000000000138,1.548784439306317040
0.281000000000000139,1.269131385733419437
0.282000000000000139,0.995291216191181882
0.283000000000000140,0.727120688892685552
0.284000000000000141,0.464486656036594614
0.285000000000000142,0.207265378271903028
0.286000000000000143,-0.044658147353132539
0.287000000000000144,-0.291390843127505739
0.288000000000000145,-0.533032187657761725
0.289000000000000146,-0.769674832013425125
0.290000000000000147,-1.001405193299953256
0.291000000000000147,-1.228304024236813285
0.292000000000000148,-1.450446957611668086
0.293000000000000149,-1.667905024750211185
0.294000000000000150,-1.880745147388922067
0.295000000000000151,-2.089030602562732319
0.296000000000000152,-2.292821460324005578
0.297000000000000153,-2.492174994293360868
0.298000000000000154,-2.687146065207875356
0.299000000000000155,-2.877787477779087943
0.300000000000000155,-3.064150311302895169
0.301000000000000156,-3.246284224576641009
0.302000000000000157,-3.424237735777603486
0.303000000000000158,-3.598058478040503161
0.304000000000000159,-3.767793431543302152
0.305000000000000160,-3.933489132968733148
0.306000000000000161,-4.095191863256928855
0.307000000000000162,-4.252947814601530929
0.308000000000000163,-4.406803237669178586
0.309000000000000163,-4.556804570041514957
0.310000000000000164,-4.702998546890048814
0.311000000000000165,-4.845432294898269099
0.312000000000000166,-4.984153410443461496
0.313000000000000167,-5.119210023042744417
0.314000000000000168,-5.250650845055107041
0.315000000000000169,-5.378525208614177266
0.316000000000000170,-5.502883090745461558
0.317000000000000171,-5.623775127597506085
0.318000000000000171,-5.741252618689320464
0.319000000000000172,-5.855367522047391304
0.320000000000000173,-5.966172441073804400
0.321000000000000174,-6.073720603954426700
0.322000000000000175,-6.178065836382048204
0.323000000000000176,-6.279262528334339954
0.324000000000000177,-6.377365595611054871
0.325000000000000178,-6.472430436798859432
0.326000000000000179,-6.564512886296595795
0.327000000000000179,-6.653669163997503411
0.328000000000000180,-6.739955822189611645
0.329000000000000181,-6.823429690200579323
0.330000000000000182,-6.904147817278266430
0.331000000000000183,-6.982167414165262542
0.332000000000000184,-7.057545793792075806
0.333000000000000185,-7.130340311481988991
0.334000000000000186,-7.200608305029573053
0.335000000000000187,-7.268407034984832649
0.336000000000000187,-7.333793625446323183
0.337000000000000188,-7.396825005638500095
0.338000000000000189,-7.457557852522638697
0.339000000000000190,-7.516048534665007885
0.340000000000000191,-7.572353057561757694
0.341000000000000192,-7.626527010597646594
0.342000000000000193,-7.678625515793437550
0.343000000000000194,-7.728703178476902913
0.344000000000000195,-7.776814039992403949
0.345000000000000195,-7.823011532546755298
0.346000000000000196,-7.867348436271181633
0.347000000000000197,-7.909876838563976165
0.348000000000000198,-7.950648095763304113
0.349000000000000199,-7.989712797185958948
0.350000000000000200,-8.027120731555173805
0.351000000000000201,-8.062920855828757283
0.352000000000000202,-8.097161266427985282
0.353000000000000203,-8.129889172857904356
0.354000000000000203,-8.161150873700565356
0.355000000000000204,-8.190991734954366166
0.356000000000000205,-8.219456170685456087
0.357000000000000206,-8.246587625950500211
0.358000000000000207,-8.272428561943726777
0.359000000000000208,-8.297020443316389660
0.360000000000000209,-8.320403727611864753
0.361000000000000210,-8.342617856755417449
0.362000000000000210,-8.363701250534475662
0.363000000000000211,-8.383691302001937018
0.364000000000000212,-8.402624374732903689
0.365000000000000213,-8.420535801862802927
0.366000000000000214,-8.437459886833718059
0.367000000000000215,-8.453429905774076047
0.368000000000000216,-8.468478111436514411
0.369000000000000217,-8.482635738617780419
0.370000000000000218,-8.495933010984749956
0.371000000000000218,-8.508399149230410075
0.372000000000000219,-8.520062380484350939
0.373000000000000220,-8.530949948902716073
0.374000000000000221,-8.541088127363495985
0.375000000000000222,-8.550502230193826492
0.376000000000000223,-8.559216626857798715
0.377000000000000224,-8.567254756533751348
0.378000000000000225,-8.574639143512282402
0.379000000000000226,-8.581391413347356334
0.380000000000000226,-8.587532309694978494
0.381000000000000227,-8.593081711775285569
0.382000000000000228,-8.598058652396266766
0.383000000000000229,-8.602481336478966512
0.384000000000000230,-8.606367160026065832
0.385000000000000231,-8.609732729478057678
0.386000000000000232,-8.612593881402890617
0.387000000000000233,-8.614965702467488384
0.388000000000000234,-8.616862549641284730
0.389000000000000234,-8.618298070584447856
0.390000000000000235,-8.619285224175118998
0.391000000000000236,-8.619836301132604461
0.392000000000000237,-8.619962944695069851
0.393000000000000238,-8.619676171312807611
0.394000000000000239,-8.618986391319813478
0.395000000000000240,-8.617903429548730898
0.396000000000000241,-8.616436545855986395
0.397000000000000242,-8.614594455526011885
0.398000000000000242,-8.612385349525361278
0.399000000000000243,-8.609816914579250025
0.400000000000000244,-8.606896353045007331
0.401000000000000245,-8.603630402558762214
0.402000000000000246,-8.600025355433015051
0.403000000000000247,-8.596087077784964947
0.404000000000000248,-8.591821028376633862
0.405000000000000249,-8.587232277149599469
0.406000000000000250,-8.582325523438576909
0.407000000000000250,-8.577105113849572859
0.408000000000000251,-8.571575059789763529
0.409000000000000252,-8.565739054637475647
0.410000000000000253,-8.559600490542063511
0.411000000000000254,-8.553162474844670626
0.412000000000000255,-8.546427846111910753
0.413000000000000256,-8.539399189775975785
0.414000000000000257,-8.532078853375214322
0.415000000000000258,-8.524468961390883948
0.416000000000000258,-8.516571429676144334
0.417000000000000259,-8.508387979474743901
0.418000000000000260,-8.499920151027470894
0.419000000000000261,-8.491169316765333264
0.420000000000000262,-8.482136694089232876
0.421000000000000263,-8.472823357736668726
0.422000000000000264,-8.463230251736497678
0.423000000000000265,-8.453358200953728030
0.424000000000000266,-8.443207922226745765
0.425000000000000266,-8.432780035099876059
0.426000000000000267,-8.422075072154886044
0.427000000000000268,-8.411093488945486030
0.428000000000000269,-8.399835673539127967
0.429000000000000270,-8.388301955671215282
0.430000000000000271,-8.376492615516777818
0.431000000000000272,-8.364407892085417018
0.432000000000000273,-8.352047991245354908
0.433000000000000274,-8.339413093382885833
0.434000000000000274,-8.326503360703725320
0.435000000000000275,-8.313318944182983117
0.436000000000000276,-8.299859990170777024
0.437000000000000277,-8.286126646660550321
0.438000000000000278,-8.272119069227434451
0.439000000000000279,-8.257837426644169199
0.440000000000000280,-8.243281906182046370
0.441000000000000281,-8.228452718604563287
0.442000000000000282,-8.213350102861681989
0.443000000000000282,-8.197974330492225903
0.444000000000000283,-8.182325709742585218
0.445000000000000284,-8.166404589409378190
0.446000000000000285,-8.150211362414028216
0.447000000000000286,-8.133746469117330236
0.448000000000000287,-8.117010400381563073
0.449000000000000288,-8.100003700388338501
0.450000000000000289,-8.082726969219802271
0.451000000000000290,-8.065180865211008410
0.452000000000000290,-8.047366107081282749
0.453000000000000291,-8.029283475852031060
0.454000000000000292,-8.010933816558779341
0.455000000000000293,-7.992318039764742643
0.456000000000000294,-7.973437122883444417
0.457000000000000295,-7.954292111317646352
0.458000000000000296,-7.934884119421710125
0.459000000000000297,-7.915214331294601280
0.460000000000000298,-7.895284001410376007
0.461000000000000298,-7.875094455093045731
0.462000000000000299,-7.854647088842573233
0.463000000000000300,-7.833943370518476002
0.464000000000000301,-7.812984839387640434
0.465000000000000302,-7.791773106042555241
0.466000000000000303,-7.770309852196200850
0.467000000000000304,-7.748596830359661958
0.468000000000000305,-7.726635863408290561
0.469000000000000306,-7.704428844042280566
0.470000000000000306,-7.681977734147274361
0.471000000000000307,-7.659284564060340195
0.472000000000000308,-7.636351431746869700
0.473000000000000309,-7.613180501893457297
0.474000000000000310,-7.589774004921791217
0.475000000000000311,-7.566134235928562823
0.476000000000000312,-7.542263553556106004
0.477000000000000313,-7.518164378798374514
0.478000000000000314,-7.493839193746739014
0.479000000000000314,-7.469290540280011825
0.480000000000000315,-7.444521018702782378
0.481000000000000316,-7.419533286336280398
0.482000000000000317,-7.394330056065538948
0.483000000000000318,-7.368914094846767959
0.484000000000000319,-7.343288222178552260
0.485000000000000320,-7.317455308540421477
0.486000000000000321,-7.291418273802184657
0.487000000000000322,-7.265180085607346072
0.488000000000000322,-7.238743757733639761
0.489000000000000323,-7.212112348433910469
0.490000000000000324,-7.185288958760066791
0.491000000000000325,-7.158276730873017968
0.492000000000000326,-7.131078846341189603
0.493000000000000327,-7.103698524430280159
0.494000000000000328,-7.076139020386607470
0.495000000000000329,-7.048403623716519739
0.496000000000000330,-7.020495656463945799
0.497000000000000330,-6.992418471488458742
0.498000000000000331,-6.964175450745583973
0.499000000000000332,-6.935770003571628095
0.500000000000000333,-6.907205564974644219
0.501000000000000334,-6.878485593933328701
0.502000000000000335,-6.849613571705587489
0.503000000000000336,-6.820593000148283735
0.504000000000000337,-6.791427400049696139
0.505000000000000338,-6.762120309476015834
0.506000000000000338,-6.732675282133341099
0.507000000000000339,-6.703095885746290783
0.508000000000000340,-6.673385700454426583
0.509000000000000341,-6.643548317227748967
0.510000000000000342,-6.613587336301994135
0.511000000000000343,-6.583506365634998581
0.512000000000000344,-6.553309019384784051
0.513000000000000345,-6.522998916410325698
0.514000000000000346,-6.492579678795787679
0.515000000000000346,-6.462054930398773323
0.516000000000000347,-6.431428295423406993
0.517000000000000348,-6.400703397018803642
0.518000000000000349,-6.369883855903343495
0.519000000000000350,-6.338973289015430446
0.520000000000000351,-6.307975308190974850
0.521000000000000352,-6.276893518868203792
0.522000000000000353,-6.245731518819904515
0.523000000000000353,-6.214492896913573539
0.524000000000000354,-6.183181231899719243
0.525000000000000355,-6.151800091228404099
0.526000000000000356,-6.120353029894325836
0.527000000000000357,-6.088843589310572568
0.528000000000000358,-6.057275296211050097
0.529000000000000359,-6.025651661581816754
0.530000000000000360,-5.993976179621173017
0.531000000000000361,-5.962252326728696872
0.532000000000000361,-5.930483560523061470
0.533000000000000362,-5.898673318888673300
0.534000000000000363,-5.866825019050988743
0.535000000000000364,-5.834942056680484157
0.536000000000000365,-5.803027805025045893
0.537000000000000366,-5.771085614070769587
0.538000000000000367,-5.739118809730807236
0.539000000000000368,-5.707130693062332227
0.540000000000000369,-5.675124539511108068
0.541000000000000369,-5.643103598183730085
0.542000000000000370,-5.611071091147027623
0.543000000000000371,-5.579030212754576112
0.544000000000000372,-5.546984128999918440
0.545000000000000373,-5.514935976896261138
0.546000000000000374,-5.482888863882304342
0.547000000000000375,-5.450845867253902632
0.548000000000000376,-5.418810033621288547
0.549000000000000377,-5.386784378391408445
0.550000000000000377,-5.354771885275136256
0.551000000000000378,-5.322775505818898800
0.552000000000000379,-5.290798158960489772
0.553000000000000380,-5.258842730608551008
0.554000000000000381,-5.226912073245421730
0.555000000000000382,-5.195009005553052894
0.556000000000000383,-5.163136312061347155
0.557000000000000384,-5.131296742818864054
0.558000000000000385,-5.099493013085192317
0.559000000000000385,-5.067727803044787649
0.560000000000000386,-5.036003757541786641
0.561000000000000387,-5.004323485835397989
0.562000000000000388,-4.972689561375466027
0.563000000000000389,-4.941104521597823762
0.564000000000000390,-4.909570867738972666
0.565000000000000391,-4.878091064669723309
0.566000000000000392,-4.846667540747350955
0.567000000000000393,-4.815302687685917071
0.568000000000000393,-4.783998860444228285
0.569000000000000394,-4.752758377131123702
0.570000000000000395,-4.721583518927710443
0.571000000000000396,-4.690476530025949664
0.572000000000000397,-4.659439617583458038
0.573000000000000398,-4.628474951693874573
0.574000000000000399,-4.597584665372574264
0.575000000000000400,-4.566770854557188564
0.576000000000000401,-4.536035578122628920
0.577000000000000401,-4.505380857910241232
0.578000000000000402,-4.474808678770564541
0.579000000000000403,-4.444320988619447022
0.580000000000000404,-4.413919698507119627
0.581000000000000405,-4.383606682699740631
0.582000000000000406,-4.353383778773196155
0.583000000000000407,-4.323252787718626422
0.584000000000000408,-4.293215474059471681
0.585000000000000409,-4.263273565979528890
0.586000000000000409,-4.233428755461744686
0.587000000000000410,-4.203682698437435583
0.588000000000000411,-4.174037014945417567
0.589000000000000412,-4.144493289300956285
0.590000000000000413,-4.115053070273923197
0.591000000000000414,-4.085717871276044022
0.592000000000000415,-4.056489170556850432
0.593000000000000416,-4.027368411407901583
0.594000000000000417,-3.998357002375104940
0.595000000000000417,-3.969456317478853968
0.596000000000000418,-3.940667696441374712
0.597000000000000419,-3.911992444921468692
0.598000000000000420,-3.883431834755849188
0.599000000000000421,-3.854987104207186377
0.600000000000000422,-3.826659458218304444
0.601000000000000423,-3.798450068672413416
0.602000000000000424,-3.770360074659008465
0.603000000000000425,-3.742390582745238170
0.604000000000000425,-3.714542667252390462
0.605000000000000426,-3.686817370537339933
0.606000000000000427,-3.659215703278663856
0.607000000000000428,-3.631738644767054325
0.608000000000000429,-3.604387143200104671
0.609000000000000430,-3.577162115980790702
0.610000000000000431,-3.550064450019871920
0.611000000000000432,-3.523095002041613188
0.612000000000000433,-3.496254598892815757
0.613000000000000433,-3.469544037854896512
