# Al2O3-001_HIESCA-JS
# h[nm],U(h)[kJ/mol]
0.200000000000000011,60.569411523531002217
0.201000000000000012,58.990989863010227623
0.202000000000000013,57.491030330317791197
0.203000000000000014,56.043639593960584477
0.204000000000000015,54.629461410534325694
0.205000000000000016,53.235324309469731929
0.206000000000000016,51.853317050531828158
0.207000000000000017,50.479651111208561076
0.208000000000000018,49.113524984542564766
0.209000000000000019,47.756107993204551576
0.210000000000000020,46.409697914907852123
0.211000000000000021,45.077066889858834031
0.212000000000000022,43.760986506726908374
0.213000000000000023,42.463910347374522303
0.214000000000000024,41.187786835471449365
0.215000000000000024,39.933974319806580411
0.216000000000000025,38.703232085910819649
0.217000000000000026,37.495764178087966911
0.218000000000000027,36.311296701809112619
0.219000000000000028,35.149173138832736640
0.220000000000000029,34.008455830052660929
0.221000000000000030,32.888024993828537390
0.222000000000000031,31.786669376554005595
0.223000000000000032,30.703164865618767010
0.224000000000000032,29.636339158757795786
0.225000000000000033,28.585121925278116350
0.226000000000000034,27.548580870915930774
0.227000000000000035,26.525944788692651599
0.228000000000000036,25.516615100525271487
0.229000000000000037,24.520167621062000762
0.230000000000000038,23.536346352572962815
0.231000000000000039,22.565051087322292034
0.232000000000000040,21.606320484640342272
0.233000000000000040,20.660312130663591290
0.234000000000000041,19.727280900598650248
0.235000000000000042,18.807556742721299514
0.236000000000000043,17.901522802321558459
0.237000000000000044,17.009594611194337688
0.238000000000000045,16.132200889979895209
0.239000000000000046,15.269766350376377417
0.240000000000000047,14.422696743920250029
0.241000000000000048,13.591366284285959054
0.242000000000000048,12.776107470536187449
0.243000000000000049,11.977203258414601095
0.244000000000000050,11.194881464119360359
0.245000000000000051,10.429311238242117810
0.246000000000000052,9.680601414803714277
0.247000000000000053,8.948800519616218807
0.248000000000000054,8.233898211666105027
0.249000000000000055,7.535827929056185148
0.250000000000000056,6.854470515616313264
0.251000000000000056,6.189658614106022583
0.252000000000000057,5.541181625667119803
0.253000000000000058,4.908791051694604946
0.254000000000000059,4.292206052596108989
0.255000000000000060,3.691119077182725583
0.256000000000000061,3.105201435997622106
0.257000000000000062,2.534108711198914232
0.258000000000000063,1.977485914241894793
0.259000000000000064,1.434972320229849885
0.260000000000000064,0.906205924188369649
0.261000000000000065,0.390827479509302245
0.262000000000000066,-0.111515907687530683
0.263000000000000067,-0.601167642550452852
0.264000000000000068,-1.078458967674124303
0.265000000000000069,-1.543706746319406076
0.266000000000000070,-1.997211689991782224
0.267000000000000071,-2.439257011494283311
0.268000000000000071,-2.870107479612256096
0.269000000000000072,-3.290008847768625344
0.270000000000000073,-3.699187626198058076
0.271000000000000074,-4.097851165316254374
0.272000000000000075,-4.486188016897193265
0.273000000000000076,-4.864368539308729922
0.274000000000000077,-5.232545713295659873
0.275000000000000078,-5.590856135542361827
0.276000000000000079,-5.939421158406158696
0.277000000000000079,-6.278348145707164818
0.278000000000000080,-6.607731816214256426
0.279000000000000081,-6.927655648416997103
0.280000000000000082,-7.238193322257640894
0.281000000000000083,-7.539410175666671599
0.282000000000000084,-7.831364655952953058
0.283000000000000085,-8.114109748308013792
0.284000000000000086,-8.387694365861328549
0.285000000000000087,-8.652164687840746993
0.286000000000000087,-8.907565434430413376
0.287000000000000088,-9.153941068857893271
0.288000000000000089,-9.391336919070713662
0.289000000000000090,-9.619800213070710981
0.290000000000000091,-9.839381023554423678
0.291000000000000092,-10.050133118958076039
0.292000000000000093,-10.252114719322422687
0.293000000000000094,-10.445389156578473333
0.294000000000000095,-10.630025439910951945
0.295000000000000095,-10.806098727787221137
0.296000000000000096,-10.973690709048449676
0.297000000000000097,-11.132889896154530618
0.298000000000000098,-11.283791834259329079
0.299000000000000099,-11.426499230276608188
0.300000000000000100,-11.561122006485042846
0.301000000000000101,-11.687777283522049032
0.302000000000000102,-11.806589297835945018
0.303000000000000103,-11.917689258814334607
0.304000000000000103,-12.021215150887519130
0.305000000000000104,-12.117311485928855319
0.306000000000000105,-12.206129011244579274
0.307000000000000106,-12.287824378370117984
0.308000000000000107,-12.362559777775178560
0.309000000000000108,-12.430502544430627410
0.310000000000000109,-12.491824739012733048
0.311000000000000110,-12.546702709318292790
0.312000000000000111,-12.595316636244081820
0.313000000000000111,-12.637850068447724183
0.314000000000000112,-12.674489449560507381
0.315000000000000113,-12.705423641567680448
0.316000000000000114,-12.730843447712629768
0.317000000000000115,-12.750941138019880938
0.318000000000000116,-12.765909980271061386
0.319000000000000117,-12.775943779010249912
0.320000000000000118,-12.781236424901161186
0.321000000000000119,-12.781981456511719131
0.322000000000000119,-12.778371636361416819
0.323000000000000120,-12.770598542835692513
0.324000000000000121,-12.758852179350046896
0.325000000000000122,-12.743320601934950531
0.326000000000000123,-12.724189566212313451
0.327000000000000124,-12.701642194544627174
0.328000000000000125,-12.675858663960443806
0.329000000000000126,-12.647015915293462029
0.330000000000000127,-12.615287383817873845
0.331000000000000127,-12.580842751520117773
0.332000000000000128,-12.543847721015399799
0.333000000000000129,-12.504463810997435758
0.334000000000000130,-12.462848173000327989
0.335000000000000131,-12.419153429153441337
0.336000000000000132,-12.373527530521240436
0.337000000000000133,-12.326113635541918967
0.338000000000000134,-12.277050008009545934
0.339000000000000135,-12.226469933984180471
0.340000000000000135,-12.174501656962949170
0.341000000000000136,-12.121268330601274954
0.342000000000000137,-12.066887988237455787
0.343000000000000138,-12.011473528444522429
0.344000000000000139,-11.955132715810865562
0.345000000000000140,-11.897968196134685925
0.346000000000000141,-11.840077525206243791
0.347000000000000142,-11.781553210346308092
0.348000000000000143,-11.722482763868196542
0.349000000000000143,-11.662948767633949387
0.350000000000000144,-11.603028947882533473
0.351000000000000145,-11.542796259518340207
0.352000000000000146,-11.482318979062284825
0.353000000000000147,-11.421660805484146195
0.354000000000000148,-11.360880968153828974
0.355000000000000149,-11.300034341170150043
0.356000000000000150,-11.239171563348890004
0.357000000000000151,-11.178339163175932569
0.358000000000000151,-11.117579688057228182
0.359000000000000152,-11.056931837223881843
0.360000000000000153,-10.996430597678303442
0.361000000000000154,-10.936107382595420034
0.362000000000000155,-10.875990171621428004
0.363000000000000156,-10.816103652541475100
0.364000000000000157,-10.756469363816306029
0.365000000000000158,-10.697105837516968307
0.366000000000000159,-10.638028742214997280
0.367000000000000159,-10.579251025413906717
0.368000000000000160,-10.520783055135762396
0.369000000000000161,-10.462632760303758772
0.370000000000000162,-10.404805769588644893
0.371000000000000163,-10.347305548413071818
0.372000000000000164,-10.290133533832928947
0.373000000000000165,-10.233289267039864967
0.374000000000000166,-10.176770523252665512
0.375000000000000167,-10.120573438788165177
0.376000000000000167,-10.064692635124670161
0.377000000000000168,-10.009121339791763106
0.378000000000000169,-9.953851503940841283
0.379000000000000170,-9.898873916470144252
0.380000000000000171,-9.844178314596176094
0.381000000000000172,-9.789753490781320622
0.382000000000000173,-9.735587395943635869
0.383000000000000174,-9.681667238890913296
0.384000000000000175,-9.627979581935386832
0.385000000000000175,-9.574510432659783632
0.386000000000000176,-9.521245331818192881
0.387000000000000177,-9.468169437367254915
0.388000000000000178,-9.415267604635030096
0.389000000000000179,-9.362524462644646661
0.390000000000000180,-9.309924486620298367
0.391000000000000181,-9.257452066711673311
0.392000000000000182,-9.205091572981306314
0.393000000000000183,-9.152827416706848851
0.394000000000000183,-9.100644108057142745
0.395000000000000184,-9.048526310207158474
0.396000000000000185,-8.996458889962420713
0.397000000000000186,-8.944426964968595684
0.398000000000000187,-8.892415947586300717
0.399000000000000188,-8.840411585515054682
0.400000000000000189,-8.788399999253723394
0.401000000000000190,-8.736367716487658086
0.402000000000000191,-8.684301703495169278
0.403000000000000191,-8.632189393667976773
0.404000000000000192,-8.580018713241912565
0.405000000000000193,-8.527778104335247633
0.406000000000000194,-8.475456545393026175
0.407000000000000195,-8.423043569136300590
0.408000000000000196,-8.370529278115153460
0.409000000000000197,-8.317904357964662765
0.410000000000000198,-8.265160088462451426
0.411000000000000199,-8.212288352485742848
0.412000000000000199,-8.159281642965360959
0.413000000000000200,-8.106133067932846714
0.414000000000000201,-8.052836353755751020
0.415000000000000202,-7.999385846654726961
0.416000000000000203,-7.945776512594679097
0.417000000000000204,-7.892003935640292234
0.418000000000000205,-7.838064314864714888
0.419000000000000206,-7.783954459898178690
0.420000000000000207,-7.729671785201178480
0.421000000000000207,-7.675214303145116546
0.422000000000000208,-7.620580615980685479
0.423000000000000209,-7.565769906772483289
0.424000000000000210,-7.510781929375776045
0.425000000000000211,-7.455616997529122436
0.426000000000000212,-7.400275973134296414
0.427000000000000213,-7.344760253792372851
0.428000000000000214,-7.289071759662745009
0.429000000000000214,-7.233212919709130162
0.430000000000000215,-7.177186657394497793
0.431000000000000216,-7.120996375884321772
0.432000000000000217,-7.064645942815194424
0.433000000000000218,-7.008139674683507181
0.434000000000000219,-6.951482320906573698
0.435000000000000220,-6.894679047606262046
0.436000000000000221,-6.837735421162828509
0.437000000000000222,-6.780657391584540505
0.438000000000000222,-6.723451275736364252
0.439000000000000223,-6.666123740468878900
0.440000000000000224,-6.608681785686394861
0.441000000000000225,-6.551132727391187238
0.442000000000000226,-6.493484180738863465
0.443000000000000227,-6.435744043137562542
0.444000000000000228,-6.377920477422142298
0.445000000000000229,-6.320021895132393652
0.446000000000000230,-6.262056939922433507
0.447000000000000230,-6.204034471126925965
0.448000000000000231,-6.145963547507789393
0.449000000000000232,-6.087853411203456133
0.450000000000000233,-6.029713471901265720
0.451000000000000234,-5.971553291251785467
0.452000000000000235,-5.913382567542600832
0.453000000000000236,-5.855211120647386913
0.454000000000000237,-5.797048877265018163
0.455000000000000238,-5.738905856461764543
0.456000000000000238,-5.680792155528658682
0.457000000000000239,-5.622717936164627339
0.458000000000000240,-5.564693410995060319
0.459000000000000241,-5.506728830433999633
0.460000000000000242,-5.448834469897514410
0.461000000000000243,-5.391020617374297608
0.462000000000000244,-5.333297561359048977
0.463000000000000245,-5.275675579152692585
0.464000000000000246,-5.218164925533228526
0.465000000000000246,-5.160775821799626684
0.466000000000000247,-5.103518445190702302
0.467000000000000248,-5.046402918679985028
0.468000000000000249,-4.989439301147045036
0.469000000000000250,-4.932637577924839256
0.470000000000000251,-4.876007651722261471
0.471000000000000252,-4.819559333920208744
0.472000000000000253,-4.763302336239254586
0.473000000000000254,-4.707246262776104473
0.474000000000000254,-4.651400602405906248
0.475000000000000255,-4.595774721546695751
0.476000000000000256,-4.540377857282097196
0.477000000000000257,-4.485219110837887158
0.478000000000000258,-4.430307441407604685
0.479000000000000259,-4.375651660322231962
0.480000000000000260,-4.321260425558540064
0.481000000000000261,-4.267142236580371062
0.482000000000000262,-4.213305429507068212
0.483000000000000262,-4.159758172602845860
0.484000000000000263,-4.106508462080737054
0.485000000000000264,-4.053564118214662670
0.486000000000000265,-4.000932781752878142
0.487000000000000266,-3.948621910625995213
0.488000000000000267,-3.896638776942588756
0.489000000000000268,-3.844990464265423125
0.490000000000000269,-3.793683865161025182
0.491000000000000270,-3.742725679015525664
0.492000000000000270,-3.692122410109379249
0.493000000000000271,-3.641880365943765518
0.494000000000000272,-3.592005655811278508
0.495000000000000273,-3.542504189603513876
0.496000000000000274,-3.493381676848373640
0.497000000000000275,-3.444643625969541656
0.498000000000000276,-3.396295343760982632
0.499000000000000277,-3.348341935069139019
0.500000000000000222,-3.300788302675530694
0.501000000000000334,-3.253639147372668017
0.502000000000000224,-3.206898968226138180
0.503000000000000336,-3.160572063015680833
0.504000000000000226,-3.114662528848541889
0.505000000000000338,-3.069174262937839348
0.506000000000000227,-3.024110963539560881
0.507000000000000339,-2.979476131041034037
0.508000000000000229,-2.935273069194643369
0.509000000000000341,-2.891504886489938642
0.510000000000000231,-2.848174497658079396
0.511000000000000343,-2.805284625301934121
0.512000000000000233,-2.762837801646019109
0.513000000000000345,-2.720836370399883908
0.514000000000000234,-2.679282488729358036
0.515000000000000346,-2.638178129329425303
0.516000000000000236,-2.597525082593437951
0.517000000000000348,-2.557324958872786880
0.518000000000000238,-2.517579190821813917
0.519000000000000350,-2.478289035822462516
0.520000000000000240,-2.439455578483681997
0.521000000000000352,-2.401079733210362832
0.522000000000000242,-2.363162246837027247
0.523000000000000353,-2.325703701321358619
0.524000000000000243,-2.288704516493048846
0.525000000000000355,-2.252164952853302093
0.526000000000000245,-2.216085114420766278
0.527000000000000357,-2.180464951619413672
0.528000000000000247,-2.145304264204499933
0.529000000000000359,-2.110602704222334314
0.530000000000000249,-2.076359779000205297
0.531000000000000361,-2.042574854162527043
0.532000000000000250,-2.009247156669774270
0.533000000000000362,-1.976375777876479223
0.534000000000000252,-1.943959676605134801
0.535000000000000364,-1.911997682232556617
0.536000000000000254,-1.880488497785741675
0.537000000000000366,-1.849430703043973834
0.538000000000000256,-1.818822757644567689
0.539000000000000368,-1.788663004189116279
0.540000000000000258,-1.758949671347908694
0.541000000000000369,-1.729680876959597713
0.542000000000000259,-1.700854631123985827
0.543000000000000371,-1.672468839285280229
0.544000000000000261,-1.644521305303771497
0.545000000000000373,-1.617009734513647601
0.546000000000000263,-1.589931736764995218
0.547000000000000375,-1.563284829447864066
0.548000000000000265,-1.537066440496786868
0.549000000000000377,-1.511273911373678613
0.550000000000000266,-1.485904500027700248
0.551000000000000378,-1.460955383830306431
0.552000000000000268,-1.436423662484091368
0.553000000000000380,-1.412306360903899272
0.554000000000000270,-1.388600432068993085
0.555000000000000382,-1.365302759844842395
0.556000000000000272,-1.342410161773549326
0.557000000000000384,-1.319919391831569477
0.558000000000000274,-1.297827143153936991
0.559000000000000385,-1.276130050723776721
0.560000000000000275,-1.254824694026430931
0.561000000000000387,-1.233907599667183996
0.562000000000000277,-1.213375243951938298
0.563000000000000389,-1.193224055430055053
0.564000000000000279,-1.173450417398783197
0.565000000000000391,-1.154050670368623743
0.566000000000000281,-1.135021114489136895
0.567000000000000393,-1.116358011934689420
0.568000000000000282,-1.098057589249775479
0.569000000000000394,-1.080116039653417070
0.570000000000000284,-1.062529525302475575
0.571000000000000396,-1.045294179513438282
0.572000000000000286,-1.028406108942611530
0.573000000000000398,-1.011861395724342527
0.574000000000000288,-0.995656099567294506
0.575000000000000400,-0.979786259808578031
0.576000000000000290,-0.964247897425677181
0.577000000000000401,-0.949037017006153283
0.578000000000000291,-0.934149608675144849
0.579000000000000403,-0.919581649980647287
0.580000000000000293,-0.905329107736723371
0.581000000000000405,-0.891387939824656583
0.582000000000000295,-0.877754096952268248
0.583000000000000407,-0.864423524371467855
0.584000000000000297,-0.851392163554304249
0.585000000000000409,-0.838655953827669109
0.586000000000000298,-0.826210833966932512
0.587000000000000410,-0.814052743748725049
0.588000000000000300,-0.802177625463209032
0.589000000000000412,-0.790581425386059355
0.590000000000000302,-0.779260095210554171
0.591000000000000414,-0.768209593440079219
0.592000000000000304,-0.757425886741391219
0.593000000000000416,-0.746904951259029559
0.594000000000000306,-0.736642773891289737
0.595000000000000417,-0.726635353528110484
0.596000000000000307,-0.716878702251322664
0.597000000000000419,-0.707368846497694936
0.598000000000000309,-0.698101828185218709
0.599000000000000421,-0.689073705803032288
0.600000000000000311,-0.680280555465542447
0.601000000000000423,-0.671718471931113004
0.602000000000000313,-0.663383569585896282
0.603000000000000425,-0.655271983393178159
0.604000000000000314,-0.647379869808888508
0.605000000000000426,-0.639703407663599122
0.606000000000000316,-0.632238799011681563
0.607000000000000428,-0.624982269947992997
0.608000000000000318,-0.617930071392728708
0.609000000000000430,-0.611078479844867961
0.610000000000000320,-0.604423798104788079
0.611000000000000432,-0.597962355966549119
0.612000000000000322,-0.591690510880389708
0.613000000000000433,-0.585604648585945964
0.614000000000000323,-0.579701183716746615
0.615000000000000435,-0.573976560376497025
0.616000000000000325,-0.568427252687682794
0.617000000000000437,-0.563049765313036965
0.618000000000000327,-0.557840633950398068
0.619000000000000439,-0.552796425801460933
0.620000000000000329,-0.547913740014998707
0.621000000000000441,-0.543189208105034238
0.622000000000000330,-0.538619494344515615
0.623000000000000442,-0.534201296134998893
0.624000000000000332,-0.529931344352864153
0.625000000000000444,-0.525806403672592793
0.626000000000000334,-0.521823272867590005
0.627000000000000446,-0.517978785089096005
0.628000000000000336,-0.514269808123661631
0.629000000000000448,-0.510693244629708332
0.630000000000000338,-0.507246032353671827
0.631000000000000449,-0.503925144326199392
0.632000000000000339,-0.500727589038926779
0.633000000000000451,-0.497650410602277826
0.634000000000000341,-0.494690688884794283
0.635000000000000453,-0.491845539634477524
0.636000000000000343,-0.489112114582550106
0.637000000000000455,-0.486487601530205704
0.638000000000000345,-0.483969224418692778
0.639000000000000457,-0.481554243383267022
0.640000000000000346,-0.479239954791416012
0.641000000000000458,-0.477023691265821004
0.642000000000000348,-0.474902821692466948
0.643000000000000460,-0.472874751214353961
0.644000000000000350,-0.470936921211222992
0.645000000000000462,-0.469086809265708282
0.646000000000000352,-0.467321929116336299
0.647000000000000464,-0.465639830597767812
0.648000000000000353,-0.464038099568697682
0.649000000000000465,-0.462514357827779055
0.650000000000000355,-0.461066263017989642
0.651000000000000467,-0.459691508519784520
0.652000000000000357,-0.458387823333451572
0.653000000000000469,-0.457152971950986697
0.654000000000000359,-0.455984754217910460
0.655000000000000471,-0.454881005185311715
0.656000000000000361,-0.453839594952529013
0.657000000000000473,-0.452858428500773180
0.658000000000000362,-0.451935445518046985
0.659000000000000474,-0.451068620215669458
0.660000000000000364,-0.450255961136763638
0.661000000000000476,-0.449495510956987920
