# Al2O3-001_TRPSCA-JS
# h[nm],U(h)[kJ/mol]
0.200000000000000011,82.277915062949347202
0.201000000000000012,81.243999348520901549
0.202000000000000013,79.280369451882933163
0.203000000000000014,76.924551915847771966
0.204000000000000015,74.475065920623137572
0.205000000000000016,72.080447403902581982
0.206000000000000016,69.799374889114147891
0.207000000000000017,67.640322717343011050
0.208000000000000018,65.586908218449096353
0.209000000000000019,63.613407697629966719
0.210000000000000020,61.693656417925424762
0.211000000000000021,59.805615629112651277
0.212000000000000022,57.933204923898600214
0.213000000000000023,56.066499350042001026
0.214000000000000024,54.201030850547262219
0.215000000000000024,52.336677037411639901
0.216000000000000025,50.476439962958906449
0.217000000000000026,48.625293012399893655
0.218000000000000027,46.789189965656163395
0.219000000000000028,44.974275215094934310
0.220000000000000029,43.186299584809376029
0.221000000000000030,41.430225923296049473
0.222000000000000031,39.709998071933576114
0.223000000000000032,38.028442652006468450
0.224000000000000032,36.387273014651569270
0.225000000000000033,34.787167013311560027
0.226000000000000034,33.227893854220482694
0.227000000000000035,31.708469398953258889
0.228000000000000036,30.227323445466481644
0.229000000000000037,28.782466402750316092
0.230000000000000038,27.371646234675871767
0.231000000000000039,25.992489506823130085
0.232000000000000040,24.642622811563423824
0.233000000000000040,23.319772794415129624
0.234000000000000041,22.021844503428443574
0.235000000000000042,20.746978888773064398
0.236000000000000043,19.493591051136199610
0.237000000000000044,18.260391333263648050
0.238000000000000045,17.046391623289160577
0.239000000000000046,15.850899340145693017
0.240000000000000047,14.673501542781739460
0.241000000000000048,13.514041482184165233
0.242000000000000048,12.372589728241184304
0.243000000000000049,11.249411776525473527
0.244000000000000050,10.144933792352176738
0.245000000000000051,9.059707895770575448
0.246000000000000052,7.994378142560417011
0.247000000000000053,6.949648120748451952
0.248000000000000054,5.926250865013940938
0.249000000000000055,4.924921595919434125
0.250000000000000056,3.946373618871098277
0.251000000000000056,2.991277569519740887
0.252000000000000057,2.060244067470342610
0.253000000000000058,1.153809737518705081
0.254000000000000059,0.272426475565808013
0.255000000000000060,-0.583546227013517216
0.256000000000000061,-1.413846133493992685
0.257000000000000062,-2.218310551513428486
0.258000000000000063,-2.996876347106370186
0.259000000000000064,-3.749577976859036710
0.260000000000000064,-4.476543832330121653
0.261000000000000065,-5.177991184175994022
0.262000000000000066,-5.854220001181309030
0.263000000000000067,-6.505605902964691545
0.264000000000000068,-7.132592485682563321
0.265000000000000069,-7.735683238600134182
0.266000000000000070,-8.315433246791759103
0.267000000000000071,-8.872440852189338756
0.268000000000000071,-9.407339422295896370
0.269000000000000072,-9.920789353590967252
0.270000000000000073,-10.413470415334820984
0.271000000000000074,-10.886074519401883975
0.272000000000000075,-11.339298983133890175
0.273000000000000076,-11.773840335124791778
0.274000000000000077,-12.190388698404754919
0.275000000000000078,-12.589622771701991510
0.276000000000000079,-12.972205417315503695
0.277000000000000079,-13.338779853586235191
0.278000000000000080,-13.689966440939212333
0.279000000000000081,-14.026360042904105541
0.280000000000000082,-14.348527937306133850
0.281000000000000083,-14.657008247851601723
0.282000000000000084,-14.952308862500373721
0.283000000000000085,-15.234906802212966781
0.284000000000000086,-15.505248001771320787
0.285000000000000087,-15.763747463291007733
0.286000000000000087,-16.010789742668613655
0.287000000000000088,-16.246729729439561396
0.288000000000000089,-16.471893681268955589
0.289000000000000090,-16.686580475475686569
0.290000000000000091,-16.891063041517313081
0.291000000000000092,-17.085589940171786338
0.292000000000000093,-17.270387057174325207
0.293000000000000094,-17.445659381247459407
0.294000000000000095,-17.611592838747942125
0.295000000000000095,-17.768356159501056624
0.296000000000000096,-17.916102750761023543
0.297000000000000097,-18.054972558593934906
0.298000000000000098,-18.185093898296592840
0.299000000000000099,-18.306585237719406933
0.300000000000000100,-18.419556919532652728
0.301000000000000101,-18.524112810549620889
0.302000000000000102,-18.620351868183774968
0.303000000000000103,-18.708369615962801902
0.304000000000000103,-18.788259521742890712
0.305000000000000104,-18.860114273859132084
0.306000000000000105,-18.924026951910779104
0.307000000000000106,-18.980092090212586697
0.308000000000000107,-19.028406633148897242
0.309000000000000108,-19.069070782746628367
0.310000000000000109,-19.102188739742722134
0.311000000000000110,-19.127869340263611520
0.312000000000000111,-19.146226590966957559
0.313000000000000111,-19.157380106122211316
0.314000000000000112,-19.161455450635660469
0.315000000000000113,-19.158584393461737250
0.316000000000000114,-19.148905076193880603
0.317000000000000115,-19.132562101900134621
0.318000000000000116,-19.109706549469372305
0.319000000000000117,-19.080495918868273009
0.320000000000000118,-19.045094012784499427
0.321000000000000119,-19.003670760153617891
0.322000000000000119,-18.956401987041516577
0.323000000000000120,-18.903469140287075589
0.324000000000000121,-18.845058969205641830
0.325000000000000122,-18.781363170518496020
0.326000000000000123,-18.712578001510898673
0.327000000000000124,-18.638903866235704498
0.328000000000000125,-18.560544879376280392
0.329000000000000126,-18.477708412162890284
0.330000000000000127,-18.390604624506259768
0.331000000000000127,-18.299445987273188052
0.332000000000000128,-18.204446798383660422
0.333000000000000129,-18.105822696161020247
0.334000000000000130,-18.003790173117103279
0.335000000000000131,-17.898566093106268227
0.336000000000000132,-17.790367214536004781
0.337000000000000133,-17.679409722080666967
0.338000000000000134,-17.565908769108546039
0.339000000000000135,-17.450078032803229888
0.340000000000000135,-17.332129283738225922
0.341000000000000136,-17.212271971450338270
0.342000000000000137,-17.090712827352803060
0.343000000000000138,-16.967655486133967457
0.344000000000000139,-16.843300126602112954
0.345000000000000140,-16.717843132762197911
0.346000000000000141,-16.591476775744794736
0.347000000000000142,-16.464388917053447869
0.348000000000000143,-16.336762733452335539
0.349000000000000143,-16.208776463681822122
0.350000000000000144,-16.080603177065885490
0.351000000000000145,-15.952410563961041845
0.352000000000000146,-15.824360747892196599
0.353000000000000147,-15.696610119125628202
0.354000000000000148,-15.569309189343346844
0.355000000000000149,-15.442602467005722033
0.356000000000000150,-15.316628352920437450
0.357000000000000151,-15.191519055474639543
0.358000000000000151,-15.067400524934052797
0.359000000000000152,-14.944392406166162601
0.360000000000000153,-14.822608009105840310
0.361000000000000154,-14.702154296248158616
0.362000000000000155,-14.583131886426553336
0.363000000000000156,-14.465635074113034619
0.364000000000000157,-14.349751863460742385
0.365000000000000158,-14.235564016298491552
0.366000000000000159,-14.123147113279362230
0.367000000000000159,-14.012570627383244215
0.368000000000000160,-13.903898008974255873
0.369000000000000161,-13.797186781618346885
0.370000000000000162,-13.692488647874096586
0.371000000000000163,-13.589849604280592743
0.372000000000000164,-13.489310064778527121
0.373000000000000165,-13.390904991816944047
0.374000000000000166,-13.294664034414410025
0.375000000000000167,-13.200611672463008262
0.376000000000000167,-13.108767366583879976
0.377000000000000168,-13.019145712864911957
0.378000000000000169,-12.931756601833976461
0.379000000000000170,-12.846605381045160144
0.380000000000000171,-12.763693020679710344
0.381000000000000172,-12.683016281588741947
0.382000000000000173,-12.604567885229922553
0.383000000000000174,-12.528336684976574489
0.384000000000000175,-12.454307838302870692
0.385000000000000175,-12.382462979375308265
0.386000000000000176,-12.312780391606015229
0.387000000000000177,-12.245235179749094812
0.388000000000000178,-12.179799441146823114
0.389000000000000179,-12.116442435756979989
0.390000000000000180,-12.055130754617540134
0.391000000000000181,-11.995828486428745663
0.392000000000000182,-11.938497381956150178
0.393000000000000183,-11.883097015981068267
0.394000000000000183,-11.829584946547129221
0.395000000000000184,-11.777916871273285793
0.396000000000000185,-11.728046780524369552
0.397000000000000186,-11.679927107250588136
0.398000000000000187,-11.633508873326720234
0.399000000000000188,-11.588741832240447849
0.400000000000000189,-11.545574607997128425
0.401000000000000190,-11.503954830125564968
0.402000000000000191,-11.463829264685623244
0.403000000000000191,-11.425143941194056296
0.404000000000000192,-11.387844275400013316
0.405000000000000193,-11.351875187855409166
0.406000000000000194,-11.317181218238998142
0.407000000000000195,-11.283706635405399865
0.408000000000000196,-11.251395543142184152
0.409000000000000197,-11.220191981629373146
0.410000000000000198,-11.190040024606119573
0.411000000000000199,-11.160883872259029559
0.412000000000000199,-11.132667939855824812
0.413000000000000200,-11.105336942156490920
0.414000000000000201,-11.078835973641886881
0.415000000000000202,-11.053110584606921307
0.416000000000000203,-11.028106853172410240
0.417000000000000204,-11.003771453275463799
0.418000000000000205,-10.980051718704064712
0.419000000000000206,-10.956895703246516405
0.420000000000000207,-10.934252237030865018
0.421000000000000207,-10.912070979133826398
0.422000000000000208,-10.890302466541857740
0.423000000000000209,-10.868898159550878901
0.424000000000000210,-10.847810483693384853
0.425000000000000211,-10.826992868284351701
0.426000000000000212,-10.806399781679512984
0.427000000000000213,-10.785986763340906336
0.428000000000000214,-10.765710452806407815
0.429000000000000214,-10.745528615660569827
0.430000000000000215,-10.725400166605275842
0.431000000000000216,-10.705285189728888540
0.432000000000000217,-10.685144956072976541
0.433000000000000218,-10.664941938595591253
0.434000000000000219,-10.644639824629960501
0.435000000000000220,-10.624203525936973591
0.436000000000000221,-10.603599186449075731
0.437000000000000222,-10.582794187802628372
0.438000000000000222,-10.561757152754600142
0.439000000000000223,-10.540457946578497328
0.440000000000000224,-10.518867676533032451
0.441000000000000225,-10.496958689495741623
0.442000000000000226,-10.474704567852336723
0.443000000000000227,-10.452080123730642214
0.444000000000000228,-10.429061391666840208
0.445000000000000229,-10.405625619789370617
0.446000000000000230,-10.381751259604355297
0.447000000000000230,-10.357417954464470000
0.448000000000000231,-10.332606526801084712
0.449000000000000232,-10.307298964197592284
0.450000000000000233,-10.281478404379752689
0.451000000000000234,-10.255129119196837451
0.452000000000000235,-10.228236497665236016
0.453000000000000236,-10.200787028143944113
0.454000000000000237,-10.172768279709540451
0.455000000000000238,-10.144168882795668196
0.456000000000000238,-10.114978509160314601
0.457000000000000239,-10.085187851241709467
0.458000000000000240,-10.054788600961819256
0.459000000000000241,-10.023773428033951660
0.460000000000000242,-9.992135957829310300
0.461000000000000243,-9.959870748854765310
0.462000000000000244,-9.926973269892540586
0.463000000000000245,-9.893439876849917880
0.464000000000000246,-9.859267789365695478
0.465000000000000246,-9.824455067217533255
0.466000000000000247,-9.789000586572793594
0.467000000000000248,-9.752904016123356001
0.468000000000000249,-9.716165793143138885
0.469000000000000250,-9.678787099505083091
0.470000000000000251,-9.640769837692667821
0.471000000000000252,-9.602116606839116386
0.472000000000000253,-9.562830678826056641
0.473000000000000254,-9.522915974471201750
0.474000000000000254,-9.482377039833504995
0.475000000000000255,-9.441219022662263427
0.476000000000000256,-9.399447649015332473
0.477000000000000257,-9.357069200070032622
0.478000000000000258,-9.314090489148727059
0.479000000000000259,-9.270518838979944221
0.480000000000000260,-9.226362059214235245
0.481000000000000261,-9.181628424212757267
0.482000000000000262,-9.136326651125351361
0.483000000000000262,-9.090465878273539246
0.484000000000000263,-9.044055643852663806
0.485000000000000264,-8.997105864966309596
0.486000000000000265,-8.949626817005045254
0.487000000000000266,-8.901629113380266745
0.488000000000000267,-8.853123685623145889
0.489000000000000268,-8.804121763857551741
0.490000000000000269,-8.754634857654854940
0.491000000000000270,-8.704674737277693808
0.492000000000000270,-8.654253415318770237
0.493000000000000271,-8.603383128740166086
0.494000000000000272,-8.552076321317496621
0.495000000000000273,-8.500345626492830320
0.496000000000000274,-8.448203850639325552
0.497000000000000275,-8.395663956739920053
0.498000000000000276,-8.342739048481815800
0.499000000000000277,-8.289442354767741605
0.500000000000000222,-8.235787214644489040
0.501000000000000334,-8.181787062648615105
0.502000000000000224,-8.127455414568682812
0.503000000000000336,-8.072805853622813999
0.504000000000000226,-8.017852017050106639
0.505000000000000338,-7.962607583113576304
0.506000000000000227,-7.907086258512492805
0.507000000000000339,-7.851301766200810661
0.508000000000000229,-7.795267833608792607
0.509000000000000341,-7.738998181263897713
0.510000000000000231,-7.682506511807392080
0.511000000000000343,-7.625806499401943661
0.512000000000000233,-7.568911779526163564
0.513000000000000345,-7.511835939150913077
0.514000000000000234,-7.454592507292773007
0.515000000000000346,-7.397194945938937671
0.516000000000000236,-7.339656641338594412
0.517000000000000348,-7.281990895654727680
0.518000000000000238,-7.224210918970951134
0.519000000000000350,-7.166329821647002163
0.520000000000000240,-7.108360607017201183
0.521000000000000352,-7.050316164425410648
0.522000000000000242,-6.992209262590337815
0.523000000000000353,-6.934052543294636273
0.524000000000000243,-6.875858515391497505
0.525000000000000355,-6.817639549121990328
0.526000000000000245,-6.759407870736755974
0.527000000000000357,-6.701175557415124828
0.528000000000000247,-6.642954532475340734
0.529000000000000359,-6.584756560868785691
0.530000000000000249,-6.526593244951826023
0.531000000000000361,-6.468476020528266091
0.532000000000000250,-6.410416153155980901
0.533000000000000362,-6.352424734710703902
0.534000000000000252,-6.294512680200523569
0.535000000000000364,-6.236690724824268450
0.536000000000000254,-6.178969421267327178
0.537000000000000366,-6.121359137227946334
0.538000000000000256,-6.063870053168042951
0.539000000000000368,-6.006512160281334722
0.540000000000000258,-5.949295258673054754
0.541000000000000369,-5.892228955744198693
0.542000000000000259,-5.835322664774631463
0.543000000000000371,-5.778585603698235040
0.544000000000000261,-5.722026794064390742
0.545000000000000373,-5.665655060179363822
0.546000000000000263,-5.609479028421908708
0.547000000000000375,-5.553507126726698218
0.548000000000000265,-5.497747584230404883
0.549000000000000377,-5.442208431073934705
0.550000000000000266,-5.386897498355816438
0.551000000000000378,-5.331822418230691696
0.552000000000000268,-5.276990624147768649
0.553000000000000380,-5.222409351223609164
0.554000000000000270,-5.168085636744244482
0.555000000000000382,-5.114026320791094093
0.556000000000000272,-5.060238046986043514
0.557000000000000384,-5.006727263350218671
0.558000000000000274,-4.953500223272070180
0.559000000000000385,-4.900562986579539704
0.560000000000000275,-4.847921420712049567
0.561000000000000387,-4.795581201987388908
0.562000000000000277,-4.743547816959326369
0.563000000000000389,-4.691826563861324573
0.564000000000000279,-4.640422554132366706
0.565000000000000391,-4.589340714020455181
0.566000000000000281,-4.538585786259978327
0.567000000000000393,-4.488162331818761785
0.568000000000000282,-4.438074731711208365
0.569000000000000394,-4.388327188873418550
0.570000000000000284,-4.338923730097069331
0.571000000000000396,-4.289868208018029705
0.572000000000000286,-4.241164303156711668
0.573000000000000398,-4.192815526006326010
0.574000000000000288,-4.144825219166211383
0.575000000000000400,-4.097196559516697256
0.576000000000000290,-4.049932560432708328
0.577000000000000401,-4.003036074032860547
0.578000000000000291,-3.956509793461377988
0.579000000000000403,-3.910356255199828546
0.580000000000000293,-3.864577841406136027
0.581000000000000405,-3.819176782277985183
0.582000000000000295,-3.774155158438417423
0.583000000000000407,-3.729514903340748866
0.584000000000000297,-3.685257805690776767
0.585000000000000409,-3.641385511883695081
0.586000000000000298,-3.597899528453765150
0.587000000000000410,-3.554801224534262616
0.588000000000000300,-3.512091834326007245
0.589000000000000412,-3.469772459572110446
0.590000000000000302,-3.427844072037325329
0.591000000000000414,-3.386307515989950279
0.592000000000000304,-3.345163510684635355
0.593000000000000416,-3.304412652844239684
0.594000000000000306,-3.264055419139284986
0.595000000000000417,-3.224092168663248437
0.596000000000000307,-3.184523145402317290
0.597000000000000419,-3.145348480698059390
0.598000000000000309,-3.106568195701724822
0.599000000000000421,-3.068182203818730081
0.600000000000000311,-3.030190313142217207
0.601000000000000423,-2.992592228874257465
0.602000000000000313,-2.955387555733861582
0.603000000000000425,-2.918575800350276861
0.604000000000000314,-2.882156373641037383
0.605000000000000426,-2.846128593173216537
0.606000000000000316,-2.810491685507479076
0.607000000000000428,-2.775244788523558714
0.608000000000000318,-2.740386953726727359
0.609000000000000430,-2.705917148534103145
0.610000000000000320,-2.671834258540344731
0.611000000000000432,-2.638137089761739329
0.612000000000000322,-2.604824370858304761
0.613000000000000433,-2.571894755332988503
0.614000000000000323,-2.539346823707629319
0.615000000000000435,-2.507179085674937635
0.616000000000000325,-2.475389982226132268
0.617000000000000437,-2.443977887753625122
0.618000000000000327,-2.412941112128462962
0.619000000000000439,-2.382277902751941845
0.620000000000000329,-2.351986446581208146
0.621000000000000441,-2.322064872128362989
0.622000000000000330,-2.292511251432854724
0.623000000000000442,-2.263323602006773072
0.624000000000000332,-2.234499888752957908
0.625000000000000444,-2.206038025855507012
0.626000000000000334,-2.177935878642659695
0.627000000000000446,-2.150191265421751652
0.628000000000000336,-2.122801959286194862
0.629000000000000448,-2.095765689894276029
0.630000000000000338,-2.069080145219792666
0.631000000000000449,-2.042742973274275009
0.632000000000000339,-2.016751783800947884
0.633000000000000451,-1.991104149940198242
0.634000000000000341,-1.965797609866715590
0.635000000000000453,-1.940829668398145413
0.636000000000000343,-1.916197798575417055
0.637000000000000455,-1.891899443214678289
0.638000000000000345,-1.867932016431006259
0.639000000000000457,-1.844292905133803728
0.640000000000000346,-1.820979470494185959
0.641000000000000458,-1.797989049384232985
0.642000000000000348,-1.775318955788440123
0.643000000000000460,-1.752966482187273911
0.644000000000000350,-1.730928900913230706
0.645000000000000462,-1.709203465479276929
0.646000000000000352,-1.687787411880105948
0.647000000000000464,-1.666677959866126102
0.648000000000000353,-1.645872314190653940
0.649000000000000465,-1.625367665830184549
0.650000000000000355,-1.605161193178288981
0.651000000000000467,-1.585250063213028637
0.652000000000000357,-1.565631432638392440
0.653000000000000469,-1.546302448999740342
0.654000000000000359,-1.527260251773730371
0.655000000000000471,-1.508501973432738286
0.656000000000000361,-1.490024740484236165
0.657000000000000473,-1.471825674485205182
0.658000000000000362,-1.453901893031998904
