# Al2O3-001_CS-234-AC
# h[nm],U(h)[kJ/mol]
0.200000000000000011,63.138923667283826546
0.201000000000000012,61.715334871436724029
0.202000000000000013,60.366975229808772951
0.203000000000000014,59.056867711805729471
0.204000000000000015,57.762204992657153468
0.205000000000000016,56.470530231301268032
0.206000000000000016,55.176611042571963139
0.207000000000000017,53.879966633170816692
0.208000000000000018,52.582977003660573700
0.209000000000000019,51.289489676585063194
0.210000000000000020,50.003837222369256210
0.211000000000000021,48.730183466710876417
0.212000000000000022,47.472124620459986488
0.213000000000000023,46.232481629663681133
0.214000000000000024,45.013230474732985442
0.215000000000000024,43.815527136945505049
0.216000000000000025,42.639793033252914256
0.217000000000000026,41.485834670932923984
0.218000000000000027,40.352978023470726043
0.219000000000000028,39.240203708812401828
0.220000000000000029,38.146273549934733182
0.221000000000000030,37.069842635262496344
0.222000000000000031,36.009553704460977031
0.223000000000000032,34.964112694978631168
0.224000000000000032,33.932345720257067967
0.225000000000000033,32.913238723877256575
0.226000000000000034,31.905961663529247119
0.227000000000000035,30.909879408942053658
0.228000000000000036,29.924551659525189251
0.229000000000000037,28.949724158614895231
0.230000000000000038,27.985313348782504761
0.231000000000000039,27.031386413725130069
0.232000000000000040,26.088138415509444457
0.233000000000000040,25.155867983030489654
0.234000000000000041,24.234952754341115622
0.235000000000000042,23.325825533173958348
0.236000000000000043,22.428951895948863182
0.237000000000000044,21.544809784353923021
0.238000000000000045,20.673871442490799666
0.239000000000000046,19.816587907211641095
0.240000000000000047,18.973376135061716496
0.241000000000000048,18.144608747776821644
0.242000000000000048,17.330606298616661576
0.243000000000000049,16.531631901688143671
0.244000000000000050,15.747888023435029581
0.245000000000000051,14.979515207226771878
0.246000000000000052,14.226592486152693340
0.247000000000000053,13.489139233523649963
0.248000000000000054,12.767118203203306592
0.249000000000000055,12.060439520933606161
0.250000000000000056,11.368965401695238171
0.251000000000000056,10.692515385478598589
0.252000000000000057,10.030871903460141681
0.253000000000000058,9.383786007503104543
0.254000000000000059,8.750983117321947446
0.255000000000000060,8.132168660920861214
0.256000000000000061,7.527033504529900831
0.257000000000000062,6.935259087833832936
0.258000000000000063,6.356522198540157653
0.259000000000000064,5.790499337075308617
0.260000000000000064,5.236870637318350674
0.261000000000000065,4.695323322728923721
0.262000000000000066,4.165554688996200738
0.263000000000000067,3.647274614469601772
0.264000000000000068,3.140207608194204081
0.265000000000000069,2.644094412455221033
0.266000000000000070,2.158693182443224501
0.267000000000000071,1.683780270097580356
0.268000000000000071,1.219150642493612713
0.269000000000000072,0.764617967429085055
0.270000000000000073,0.320014400260239529
0.271000000000000074,-0.114809893346417183
0.272000000000000075,-0.539987444131956762
0.273000000000000076,-0.955634381430415458
0.274000000000000077,-1.361851497897408780
0.275000000000000078,-1.758725445309751834
0.276000000000000079,-2.146330031709793307
0.277000000000000079,-2.524727592135967313
0.278000000000000080,-2.893970407303839920
0.279000000000000081,-3.254102146826375108
0.280000000000000082,-3.605159315835941847
0.281000000000000083,-3.947172686154210908
0.282000000000000084,-4.280168695412251978
0.283000000000000085,-4.604170799723514840
0.284000000000000086,-4.919200767633262750
0.285000000000000087,-5.225279905088635601
0.286000000000000087,-5.522430203081996503
0.287000000000000088,-5.810675401403586626
0.288000000000000089,-6.090041963591810159
0.289000000000000090,-6.360559959686468368
0.290000000000000091,-6.622263854769061986
0.291000000000000092,-6.875193202517726476
0.292000000000000093,-7.119393244111900110
0.293000000000000094,-7.354915413799593793
0.294000000000000095,-7.581817753291500317
0.295000000000000095,-7.800165237878471380
0.296000000000000096,-8.010030017786899492
0.297000000000000097,-8.211491578799471114
0.298000000000000098,-8.404636826581945996
0.299000000000000099,-8.589560099479701449
0.300000000000000100,-8.766363114786381416
0.301000000000000101,-8.935154853650926654
0.302000000000000102,-9.096051389883388794
0.303000000000000103,-9.249175667954677493
0.304000000000000103,-9.394657235464190848
0.305000000000000104,-9.532631935281905555
0.306000000000000105,-9.663241562462403067
0.307000000000000106,-9.786633490883779984
0.308000000000000107,-9.902960274390448348
0.309000000000000108,-10.012379227019952310
0.310000000000000109,-10.115051986675597462
0.311000000000000110,-10.211144066371787176
0.312000000000000111,-10.300824396933908389
0.313000000000000111,-10.384264864779906290
0.314000000000000112,-10.461639848152181287
0.315000000000000113,-10.533125754907226579
0.316000000000000114,-10.598900564710186600
0.317000000000000115,-10.659143378223195242
0.318000000000000116,-10.714033975623381778
0.319000000000000117,-10.763752386538932626
0.320000000000000118,-10.808478473252042917
0.321000000000000119,-10.848391528786660132
0.322000000000000119,-10.883669891277524044
0.323000000000000120,-10.914490575805809058
0.324000000000000121,-10.941028924687016044
0.325000000000000122,-10.963458277007550379
0.326000000000000123,-10.981949658029522610
0.327000000000000124,-10.996671488917574067
0.328000000000000125,-11.007789317088164438
0.329000000000000126,-11.015465567339305153
0.330000000000000127,-11.019859313788284538
0.331000000000000127,-11.021126072525804673
0.332000000000000128,-11.019417614786318538
0.333000000000000129,-11.014881800336999262
0.334000000000000130,-11.007662430699957312
0.335000000000000131,-10.997899121745268403
0.336000000000000132,-10.985727195123519806
0.337000000000000133,-10.971277587947760424
0.338000000000000134,-10.954676780083719478
0.339000000000000135,-10.936046738364073150
0.340000000000000135,-10.915504877007414564
0.341000000000000136,-10.893164033493723863
0.342000000000000137,-10.869132459126413792
0.343000000000000138,-10.843513823494737025
0.344000000000000139,-10.816407232040088360
0.345000000000000140,-10.787907255924201522
0.346000000000000141,-10.758103973396465847
0.347000000000000142,-10.727083021860956080
0.348000000000000143,-10.694925659851262978
0.349000000000000143,-10.661708838131456645
0.350000000000000144,-10.627505279155565532
0.351000000000000145,-10.592383564133998064
0.352000000000000146,-10.556408226974371090
0.353000000000000147,-10.519639854384635669
0.354000000000000148,-10.482135191449170719
0.355000000000000149,-10.443947252012289795
0.356000000000000150,-10.405125433228841203
0.357000000000000151,-10.365715633667813123
0.358000000000000151,-10.325760374381648177
0.359000000000000152,-10.285298922381411302
0.360000000000000153,-10.244367415986008751
0.361000000000000154,-10.202998991541281981
0.362000000000000155,-10.161223911033321343
0.363000000000000156,-10.119069690147872720
0.364000000000000157,-10.076561226355714496
0.365000000000000158,-10.033720926631286119
0.366000000000000159,-9.990568834438629864
0.367000000000000159,-9.947122755645304792
0.368000000000000160,-9.903398383050745934
0.369000000000000161,-9.859409419240698469
0.370000000000000162,-9.815167697503699884
0.371000000000000163,-9.770683300569535490
0.372000000000000164,-9.725964676952061794
0.373000000000000165,-9.681018754701158358
0.374000000000000166,-9.635851052389535099
0.375000000000000167,-9.590465787180326274
0.376000000000000167,-9.544865979840960080
0.377000000000000168,-9.499053556586989799
0.378000000000000169,-9.453029447657293360
0.379000000000000170,-9.406793682538603818
0.380000000000000171,-9.360345481772974097
0.381000000000000172,-9.313683345296785987
0.382000000000000173,-9.266805137273632198
0.383000000000000174,-9.219708167396728271
0.384000000000000175,-9.172389268648482030
0.385000000000000175,-9.124844871516501144
0.386000000000000176,-9.077071074675744811
0.387000000000000177,-9.029063712156339960
0.388000000000000178,-8.980818417025901113
0.389000000000000179,-8.932330681623092516
0.390000000000000180,-8.883595914387175441
0.391000000000000181,-8.834609493335047858
0.392000000000000182,-8.785366816243637800
0.393000000000000183,-8.735863347601080520
0.394000000000000183,-8.686094662395383637
0.395000000000000184,-8.636056486813613375
0.396000000000000185,-8.585744735928699356
0.397000000000000186,-8.535155548454401497
0.398000000000000187,-8.484285318651947350
0.399000000000000188,-8.433130725474402567
0.400000000000000189,-8.381688759036871161
0.401000000000000190,-8.329956744502336363
0.402000000000000191,-8.277932363474334920
0.403000000000000191,-8.225613672988396630
0.404000000000000192,-8.172999122195042432
0.405000000000000193,-8.120087566827280057
0.406000000000000194,-8.066878281545537988
0.407000000000000195,-8.013370970252953640
0.408000000000000196,-7.959565774473094102
0.409000000000000197,-7.905463279881710825
0.410000000000000198,-7.851064521083263692
0.411000000000000199,-7.796370984721482600
0.412000000000000199,-7.741384611012394501
0.413000000000000200,-7.686107793786431053
0.414000000000000201,-7.630543379124942405
0.415000000000000202,-7.574694662674479773
0.416000000000000203,-7.518565385720603622
0.417000000000000204,-7.462159730100924371
0.418000000000000205,-7.405482312035192471
0.419000000000000206,-7.348538174948087587
0.420000000000000207,-7.291332781358266679
0.421000000000000207,-7.233872003905148063
0.422000000000000208,-7.176162115582424228
0.423000000000000209,-7.118209779245406210
0.424000000000000210,-7.060022036456727434
0.425000000000000211,-7.001606295732711871
0.426000000000000212,-6.942970320250621441
0.427000000000000213,-6.884122215074310880
0.428000000000000214,-6.825070413953950421
0.429000000000000214,-6.765823665752831673
0.430000000000000215,-6.706391020552224802
0.431000000000000216,-6.646781815483005396
0.432000000000000217,-6.587005660330383705
0.433000000000000218,-6.527072422956034181
0.434000000000000219,-6.466992214579772913
0.435000000000000220,-6.406775374960720804
0.436000000000000221,-6.346432457515850167
0.437000000000000222,-6.285974214411789163
0.438000000000000222,-6.225411581663800042
0.439000000000000223,-6.164755664273836366
0.440000000000000224,-6.104017721437717370
0.441000000000000225,-6.043209151849575633
0.442000000000000226,-5.982341479130123929
0.443000000000000227,-5.921426337403174145
0.444000000000000228,-5.860475457043586189
0.445000000000000229,-5.799500650617856579
0.446000000000000230,-5.738513799037077590
0.447000000000000230,-5.677526837940613191
0.448000000000000231,-5.616551744327082929
0.449000000000000232,-5.555600523448047667
0.450000000000000233,-5.494685195978375347
0.451000000000000234,-5.433817785475828721
0.452000000000000235,-5.373010306141379644
0.453000000000000236,-5.312274750890242814
0.454000000000000237,-5.251623079742843814
0.455000000000000238,-5.191067208543389100
0.456000000000000238,-5.130618998013094512
0.457000000000000239,-5.070290243143686482
0.458000000000000240,-5.010092662936279417
0.459000000000000241,-4.950037890489307202
0.460000000000000242,-4.890137463438882115
0.461000000000000243,-4.830402814753574248
0.462000000000000244,-4.770845263885346021
0.463000000000000245,-4.711476008277122318
0.464000000000000246,-4.652306115227296424
0.465000000000000246,-4.593346514110399070
0.466000000000000247,-4.534607988952780389
0.467000000000000248,-4.476101171361467124
0.468000000000000249,-4.417836533803926713
0.469000000000000250,-4.359824383235801015
0.470000000000000251,-4.302074855073390935
0.471000000000000252,-4.244597907507011492
0.472000000000000253,-4.187403316151238286
0.473000000000000254,-4.130500669027326488
0.474000000000000254,-4.073899361873066560
0.475000000000000255,-4.017608593774777859
0.476000000000000256,-3.961637363116023103
0.477000000000000257,-3.905994463837301200
0.478000000000000258,-3.850688482000637070
0.479000000000000259,-3.795727792653008859
0.480000000000000260,-3.741120556982113321
0.481000000000000261,-3.686874719757928798
0.482000000000000262,-3.632998007053415357
0.483000000000000262,-3.579497924237474926
0.484000000000000263,-3.526381754233214760
0.485000000000000264,-3.473656556034522502
0.486000000000000265,-3.421329163473782131
0.487000000000000266,-3.369406184233628032
0.488000000000000267,-3.317893999095431035
0.489000000000000268,-3.266798761417399444
0.490000000000000269,-3.216126396834904533
0.491000000000000270,-3.165882603175895760
0.492000000000000270,-3.116072850584039600
0.493000000000000271,-3.066702381842466352
0.494000000000000272,-3.017776212890863174
0.495000000000000273,-2.969299133528741308
0.496000000000000274,-2.921275708297891960
0.497000000000000275,-2.873710277536827729
0.498000000000000276,-2.826606958600372810
0.499000000000000277,-2.779969647237455543
0.500000000000000222,-2.733802019120247895
0.501000000000000334,-2.688107531517995419
0.502000000000000224,-2.642889425108914114
0.503000000000000336,-2.598150725923479065
0.504000000000000226,-2.553894247412947571
0.505000000000000338,-2.510122592636450989
0.506000000000000227,-2.466838156560853257
0.507000000000000339,-2.424043128466873309
0.508000000000000229,-2.381739494455890949
0.509000000000000341,-2.339929040051232256
0.510000000000000231,-2.298613352888600581
0.511000000000000343,-2.257793825489655681
0.512000000000000233,-2.217471658113630451
0.513000000000000345,-2.177647861681368813
0.514000000000000234,-2.138323260766881173
0.515000000000000346,-2.099498496650979540
0.516000000000000236,-2.061174030432451509
0.517000000000000348,-2.023350146191623455
0.518000000000000238,-1.986026954201931760
0.519000000000000350,-1.949204394184699485
0.520000000000000240,-1.912882238602965357
0.521000000000000352,-1.877060095989898203
0.522000000000000242,-1.841737414307796694
0.523000000000000353,-1.806913484333553255
0.524000000000000243,-1.772587443066815593
0.525000000000000355,-1.738758277156988274
0.526000000000000245,-1.705424826345591782
0.527000000000000357,-1.672585786920289364
0.528000000000000247,-1.640239715177462143
0.529000000000000359,-1.608385030889833089
0.530000000000000249,-1.577020020776236597
0.531000000000000361,-1.546142841970350901
0.532000000000000250,-1.515751525485681039
0.533000000000000362,-1.485843979673842519
0.534000000000000252,-1.456417993673660094
0.535000000000000364,-1.427471240848408929
0.536000000000000254,-1.399001282208893970
0.537000000000000366,-1.371005569819863767
0.538000000000000256,-1.343481450187794302
0.539000000000000368,-1.316426167627641863
0.540000000000000258,-1.289836867606844351
0.541000000000000369,-1.263710600064372525
0.542000000000000259,-1.238044322703290678
0.543000000000000371,-1.212834904254868729
0.544000000000000261,-1.188079127712798222
0.545000000000000373,-1.163773693535849585
0.546000000000000263,-1.139915222817631690
0.547000000000000375,-1.116500260421935620
0.548000000000000265,-1.093525278082612351
0.549000000000000377,-1.070986677466512660
0.550000000000000266,-1.048880793198617711
0.551000000000000378,-1.027203895848134207
0.552000000000000268,-1.005952194874706773
0.553000000000000380,-0.985121841533752152
0.554000000000000270,-0.964708931740201669
0.555000000000000382,-0.944709508889747029
0.556000000000000272,-0.925119566637072510
0.557000000000000384,-0.905935051630242016
0.558000000000000274,-0.887151866200886929
0.559000000000000385,-0.868765871009473556
0.560000000000000275,-0.850772887645392495
0.561000000000000387,-0.833168701181318250
0.562000000000000277,-0.815949062681591064
0.563000000000000389,-0.799109691664282917
0.564000000000000279,-0.782646278516738625
0.565000000000000391,-0.766554486864362117
0.566000000000000281,-0.750829955892526324
0.567000000000000393,-0.735468302621473113
0.568000000000000282,-0.720465124134207380
0.569000000000000394,-0.705815999757245072
0.570000000000000284,-0.691516493194365811
0.571000000000000396,-0.677562154613312484
0.572000000000000286,-0.663948522685631981
0.573000000000000398,-0.650671126579652648
0.574000000000000288,-0.637725487906877886
0.575000000000000400,-0.625107122621922806
0.576000000000000290,-0.612811542876200210
0.577000000000000401,-0.600834258825635237
0.578000000000000291,-0.589170780392666904
0.579000000000000403,-0.577816618982806229
0.580000000000000293,-0.566767289156126286
0.581000000000000405,-0.556018310253969639
0.582000000000000295,-0.545565207981287714
0.583000000000000407,-0.535403515944953834
0.584000000000000297,-0.525528777148486781
0.585000000000000409,-0.515936545443591354
0.586000000000000298,-0.506622386938957892
0.587000000000000410,-0.497581881366776613
0.588000000000000300,-0.488810623407440303
0.589000000000000412,-0.480304223972897848
0.590000000000000302,-0.472058311449182422
0.591000000000000414,-0.464068532898620767
0.592000000000000304,-0.456330555222209278
0.593000000000000416,-0.448840066282712669
0.594000000000000306,-0.441592775989036457
0.595000000000000417,-0.434584417342387674
0.596000000000000307,-0.427810747444776651
0.597000000000000419,-0.421267548470461495
0.598000000000000309,-0.414950628600875338
0.599000000000000421,-0.408855822923569534
0.600000000000000311,-0.402978994295842274
0.601000000000000423,-0.397316034173534116
0.602000000000000313,-0.391862863405661399
0.603000000000000425,-0.386615432995375929
0.604000000000000314,-0.381569724827970969
0.605000000000000426,-0.376721752366377172
0.606000000000000316,-0.372067561314871065
0.607000000000000428,-0.367603230251483226
0.608000000000000318,-0.363324871229788626
0.609000000000000430,-0.359228630350598765
0.610000000000000320,-0.355310688304188993
0.611000000000000432,-0.351567260883642208
0.612000000000000322,-0.347994599469883203
0.613000000000000433,-0.344588991489013174
0.614000000000000323,-0.341346760842510810
0.615000000000000435,-0.338264268310892735
0.616000000000000325,-0.335337911931396060
0.617000000000000437,-0.332564127350282346
0.618000000000000327,-0.329939388150311763
0.619000000000000439,-0.327460206153961153
0.620000000000000329,-0.325123131702958035
0.621000000000000441,-0.322924753914681228
0.622000000000000330,-0.320861700915980930
0.623000000000000442,-0.318930640054973735
0.624000000000000332,-0.317128278091338200
0.625000000000000444,-0.315451361365695293
0.626000000000000334,-0.313896675948533765
0.627000000000000446,-0.312461047769285960
0.628000000000000336,-0.311141342726015124
0.629000000000000448,-0.309934466776263240
0.630000000000000338,-0.308837366009557912
0.631000000000000449,-0.307847026702080528
0.632000000000000339,-0.306960475353995343
0.633000000000000451,-0.306174778709928319
0.634000000000000341,-0.305487043763072008
0.635000000000000453,-0.304894417743429624
0.636000000000000343,-0.304394088090584547
0.637000000000000455,-0.303983282411583955
0.638000000000000345,-0.303659268424265882
0.639000000000000457,-0.303419353886566268
0.640000000000000346,-0.303260886512212058
0.641000000000000458,-0.303181253873248957
0.642000000000000348,-0.303177883289813710
0.643000000000000460,-0.303248241707603450
0.644000000000000350,-0.303389835563426913
0.645000000000000462,-0.303600210639269341
0.646000000000000352,-0.303876951905245773
0.647000000000000464,-0.304217683351862889
0.648000000000000353,-0.304620067811958273
0.649000000000000465,-0.305081806772703190
0.650000000000000355,-0.305600640178039340
0.651000000000000467,-0.306174346221911919
0.652000000000000357,-0.306800741132669252
0.653000000000000469,-0.307477678948958943
0.654000000000000359,-0.308203051287497587
0.655000000000000471,-0.308974787103004966
0.656000000000000361,-0.309790852440684938
0.657000000000000473,-0.310649250181537107
0.658000000000000362,-0.311548019780842067
0.659000000000000474,-0.312485237000103389
0.660000000000000364,-0.313459013632789663
0.661000000000000476,-0.314467497224135417
0.662000000000000366,-0.315508870785302431
