# Al2O3-001_CS-1113-AC
# h[nm],U(h)[kJ/mol]
0.200000000000000011,124.276632986973709194
0.201000000000000012,120.615663416188525048
0.202000000000000013,118.060610268817981705
0.203000000000000014,116.036130971264284995
0.204000000000000015,114.210441456026885021
0.205000000000000016,112.408667341961290731
0.206000000000000016,110.553135206878579311
0.207000000000000017,108.623058802407356893
0.208000000000000018,106.628024121671529656
0.209000000000000019,104.591153232491777203
0.210000000000000020,102.538939196041297919
0.211000000000000021,100.495578238327439635
0.212000000000000022,98.480246542255784448
0.213000000000000023,96.506228547679143048
0.214000000000000024,94.581140789087442045
0.215000000000000024,92.707740284567265121
0.216000000000000025,90.884982472953652177
0.217000000000000026,89.109118359382435415
0.218000000000000027,87.374707315764538862
0.219000000000000028,85.675481065332348862
0.220000000000000029,84.005033417210114521
0.221000000000000030,82.357335037261833577
0.222000000000000031,80.727087201546538608
0.223000000000000032,79.109936214501772156
0.224000000000000032,77.502573273447040947
0.225000000000000033,75.902744673802018838
0.226000000000000034,74.309195547772716850
0.227000000000000035,72.721567630932014481
0.228000000000000036,71.140268412961717104
0.229000000000000037,69.566325817668186460
0.230000000000000038,68.001239503409806275
0.231000000000000039,66.446837111718622282
0.232000000000000040,64.905141385526945896
0.233000000000000040,63.378252050103569104
0.234000000000000041,61.868244691257743284
0.235000000000000042,60.377087550283320638
0.236000000000000043,58.906576147246290986
0.237000000000000044,57.458284902948705053
0.238000000000000045,56.033534413954114939
0.239000000000000046,54.633372704916986606
0.240000000000000047,53.258568601762668493
0.241000000000000048,51.909615305623603376
0.242000000000000048,50.586742272676495702
0.243000000000000049,49.289933595191754989
0.244000000000000050,48.018951214261122118
0.245000000000000051,46.773361458517456413
0.246000000000000052,45.552563582707705336
0.247000000000000053,44.355819165063721243
0.248000000000000054,43.182281405337462843
0.249000000000000055,42.031023540481093903
0.250000000000000056,40.901065758314096854
0.251000000000000056,39.791400138574189782
0.252000000000000057,38.701013284040939766
0.253000000000000058,37.628906421366266954
0.254000000000000059,36.574112851908459731
0.255000000000000060,35.535712717811001937
0.256000000000000061,34.512845118690698598
0.257000000000000062,33.504717670740426172
0.258000000000000063,32.510613644079555229
0.259000000000000064,31.529896847139514904
0.260000000000000064,30.562014450102509500
0.261000000000000065,29.606497954237191550
0.262000000000000066,28.662962521649802738
0.263000000000000067,27.731104881673662277
0.264000000000000068,26.810700026930117446
0.265000000000000069,25.901596904988867465
0.266000000000000070,25.003713301410726899
0.267000000000000071,24.117030097536410693
0.268000000000000071,23.241585072363601938
0.269000000000000072,22.377466402802244971
0.270000000000000073,21.524806000999916478
0.271000000000000074,20.683772811691135018
0.272000000000000075,19.854566176972497260
0.273000000000000076,19.037409360808489112
0.274000000000000077,18.232543311131955477
0.275000000000000078,17.440220723777056122
0.276000000000000079,16.660700459780265703
0.277000000000000079,15.894242355878166251
0.278000000000000080,15.141102457366283573
0.279000000000000081,14.401528692867803016
0.280000000000000082,13.675757001996581508
0.281000000000000083,12.964007919354063603
0.282000000000000084,12.266483611742177828
0.283000000000000085,11.583365359852596299
0.284000000000000086,10.914811470951358174
0.285000000000000087,10.260955605158601500
0.286000000000000087,9.621905494757459820
0.287000000000000088,8.997742033492173164
0.288000000000000089,8.388518710965305658
0.289000000000000090,7.794261365953171428
0.290000000000000091,7.214968231665693565
0.291000000000000092,6.650610245618620020
0.292000000000000093,6.101131596809028501
0.293000000000000094,5.566450483232380009
0.294000000000000095,5.046460053403426294
0.295000000000000095,4.541029506395412696
0.296000000000000096,4.050005325953447866
0.297000000000000097,3.573212625426464228
0.298000000000000098,3.110456581566448442
0.299000000000000099,2.661523936630417086
0.300000000000000100,2.226184549664363299
0.301000000000000101,1.804192979322901014
0.302000000000000102,1.395290082065650639
0.303000000000000103,0.999204611048976843
0.304000000000000103,0.615654802489870367
0.305000000000000104,0.244349937698816966
0.306000000000000105,-0.115008129646000157
0.307000000000000106,-0.462723490090415690
0.308000000000000107,-0.799104746710777469
0.309000000000000108,-1.124463641791567436
0.310000000000000109,-1.439113747409774158
0.311000000000000110,-1.743369224411729590
0.312000000000000111,-2.037543653295343038
0.313000000000000111,-2.321948939609409290
0.314000000000000112,-2.596894295656936524
0.315000000000000113,-2.862685299536310346
0.316000000000000114,-3.119623031872855723
0.317000000000000115,-3.368003289980586512
0.318000000000000116,-3.608115878647980335
0.319000000000000117,-3.840243976258611802
0.320000000000000118,-4.064663574534941759
0.321000000000000119,-4.281642989828144508
0.322000000000000119,-4.491442443564312548
0.323000000000000120,-4.694313709195180984
0.324000000000000121,-4.890499822786053663
0.325000000000000122,-5.080234854200421424
0.326000000000000123,-5.263743735707559601
0.327000000000000124,-5.441242144742224340
0.328000000000000125,-5.612936437481538476
0.329000000000000126,-5.779023629869223910
0.330000000000000127,-5.939691422710071222
0.331000000000000127,-6.095118267473380591
0.332000000000000128,-6.245473469481493289
0.333000000000000129,-6.390917325215586864
0.334000000000000130,-6.531601290542623062
0.335000000000000131,-6.667668176754067311
0.336000000000000132,-6.799252371403895268
0.337000000000000133,-6.926480081042051040
0.338000000000000134,-7.049469593054996430
0.339000000000000135,-7.168331553947105306
0.340000000000000135,-7.283169261524479410
0.341000000000000136,-7.394078968573123412
0.342000000000000137,-7.501150195756963512
0.343000000000000138,-7.604466051595281328
0.344000000000000139,-7.704103557514358158
0.345000000000000140,-7.800133976101638389
0.346000000000000141,-7.892623140823640249
0.347000000000000142,-7.981631785599207163
0.348000000000000143,-8.067215872747578231
0.349000000000000143,-8.149426917955258531
0.350000000000000144,-8.228312311026595438
0.351000000000000145,-8.303915631299821243
0.352000000000000146,-8.376276956723113898
0.353000000000000147,-8.445433165692893596
0.354000000000000148,-8.511418230860318346
0.355000000000000149,-8.574263504210076547
0.356000000000000150,-8.633997992809192112
0.357000000000000151,-8.690648624712077108
0.358000000000000151,-8.744240504591550334
0.359000000000000152,-8.794797158743950405
0.360000000000000153,-8.842340769190311534
0.361000000000000154,-8.886892396663858662
0.362000000000000155,-8.928472192338407609
0.363000000000000156,-8.967099598211238032
0.364000000000000157,-9.002793536108685046
0.365000000000000158,-9.035572585333477846
0.366000000000000159,-9.065455149018154302
0.367000000000000159,-9.092459609291568157
0.368000000000000160,-9.116604471403119803
0.369000000000000161,-9.137908496983802920
0.370000000000000162,-9.156390826653829862
0.371000000000000163,-9.172071092213951005
0.372000000000000164,-9.184969518681487699
0.373000000000000165,-9.195107016453366811
0.374000000000000166,-9.202505263896393117
0.375000000000000167,-9.207186780680386207
0.376000000000000167,-9.209174992182909136
0.377000000000000168,-9.208494285304563931
0.378000000000000169,-9.205170056042252469
0.379000000000000170,-9.199228749174073627
0.380000000000000171,-9.190697890413712656
0.381000000000000172,-9.179606111394875256
0.382000000000000173,-9.165983167847128854
0.383000000000000174,-9.149859951324165408
0.384000000000000175,-9.131268494843425287
0.385000000000000175,-9.110241972792914922
0.386000000000000176,-9.086814695457061219
0.387000000000000177,-9.061022098507715228
0.388000000000000178,-9.032900727800926788
0.389000000000000179,-9.002488219812546433
0.390000000000000180,-8.969823278038568048
0.391000000000000181,-8.934945645677608184
0.392000000000000182,-8.897896074904341646
0.393000000000000183,-8.858716293033266354
0.394000000000000183,-8.817448965862839216
0.395000000000000184,-8.774137658479975954
0.396000000000000185,-8.728826793794752348
0.397000000000000186,-8.681561609064882390
0.398000000000000187,-8.632388110659087843
0.399000000000000188,-8.581353027297861757
0.400000000000000189,-8.528503761999587596
0.401000000000000190,-8.473888342949383201
0.402000000000000191,-8.417555373497599192
0.403000000000000191,-8.359553981484229013
0.404000000000000192,-8.299933768075394624
0.405000000000000193,-8.238744756287633919
0.406000000000000194,-8.176037339365826995
0.407000000000000195,-8.111862229170718308
0.408000000000000196,-8.046270404722147163
0.409000000000000197,-7.979313061034903676
0.410000000000000198,-7.911041558374888538
0.411000000000000199,-7.841507372053962754
0.412000000000000199,-7.770762042873758269
0.413000000000000200,-7.698857128319720466
0.414000000000000201,-7.625844154598948599
0.415000000000000202,-7.551774569607137444
0.416000000000000203,-7.476699696902748826
0.417000000000000204,-7.400670690758829551
0.418000000000000205,-7.323738492356177687
0.419000000000000206,-7.245953787174819638
0.420000000000000207,-7.167366963633973853
0.421000000000000207,-7.088028073025252063
0.422000000000000208,-7.007986790777009034
0.423000000000000209,-6.927292379083207940
0.424000000000000210,-6.845993650924083518
0.425000000000000211,-6.764138935501182281
0.426000000000000212,-6.681776045104713901
0.427000000000000213,-6.598952243426261077
0.428000000000000214,-6.515714215326200431
0.429000000000000214,-6.432108038060595945
0.430000000000000215,-6.348179153969059740
0.431000000000000216,-6.263972344621428157
0.432000000000000217,-6.179531706417605186
0.433000000000000218,-6.094900627632179102
0.434000000000000219,-6.010121766892414286
0.435000000000000220,-5.925237033075648085
0.436000000000000221,-5.840287566609591252
0.437000000000000222,-5.755313722156886413
0.438000000000000222,-5.670355052663241580
0.439000000000000223,-5.585450294746507005
0.440000000000000224,-5.500637355402365536
0.441000000000000225,-5.415953300000734494
0.442000000000000226,-5.331434341545888245
0.443000000000000227,-5.247115831171402789
0.444000000000000228,-5.163032249840799892
0.445000000000000229,-5.079217201223008793
0.446000000000000230,-4.995703405711434897
0.447000000000000230,-4.912522695554558894
0.448000000000000231,-4.829706011065347582
0.449000000000000232,-4.747283397876215894
0.450000000000000233,-4.665284005206236984
0.451000000000000234,-4.583736085106425939
0.452000000000000235,-4.502666992649361433
0.453000000000000236,-4.422103187028692872
0.454000000000000237,-4.342070233534621515
0.455000000000000238,-4.262592806370937737
0.456000000000000238,-4.183694692279781080
0.457000000000000239,-4.105398794940062324
0.458000000000000240,-4.027727140106127202
0.459000000000000241,-3.950700881453010460
0.460000000000000242,-3.874340307095638813
0.461000000000000243,-3.798664846748981638
0.462000000000000244,-3.723693079497353065
0.463000000000000245,-3.649442742140698748
0.464000000000000246,-3.575930738087089278
0.465000000000000246,-3.503173146760469869
0.466000000000000247,-3.431185233493638354
0.467000000000000248,-3.359981459876928422
0.468000000000000249,-3.289575494533772737
0.469000000000000250,-3.219980224294759719
0.470000000000000251,-3.151207765742722877
0.471000000000000252,-3.083269477101757250
0.472000000000000253,-3.016175970444143761
0.473000000000000254,-2.949937124189392801
0.474000000000000254,-2.884562095870731646
0.475000000000000255,-2.820059335144775137
0.476000000000000256,-2.756436597021005852
0.477000000000000257,-2.693700955288385046
0.478000000000000258,-2.631858816116982691
0.479000000000000259,-2.570915931813483102
0.480000000000000260,-2.510877414709931532
0.481000000000000261,-2.451747751165848754
0.482000000000000262,-2.393530815664655975
0.483000000000000262,-2.336229884985942196
0.484000000000000263,-2.279847652435770033
0.485000000000000264,-2.224386242118103318
0.486000000000000265,-2.169847223230887412
0.487000000000000266,-2.116231624371128550
0.488000000000000267,-2.063539947833938903
0.489000000000000268,-2.011772183891236132
0.490000000000000269,-1.960927825036230088
0.491000000000000270,-1.911005880180780325
0.492000000000000270,-1.862004888792958779
0.493000000000000271,-1.813922934963119626
0.494000000000000272,-1.766757661387082123
0.495000000000000273,-1.720506283255745839
0.496000000000000274,-1.675165602041118529
0.497000000000000275,-1.630732019169012004
0.498000000000000276,-1.587201549569540848
0.499000000000000277,-1.544569835096831545
0.500000000000000222,-1.502832157809950386
0.501000000000000334,-1.461983453107617459
0.502000000000000224,-1.422018322709692306
0.503000000000000336,-1.382931047478801689
0.504000000000000226,-1.344715600076242357
0.505000000000000338,-1.307365657446247997
0.506000000000000227,-1.270874613123760266
0.507000000000000339,-1.235235589360560882
0.508000000000000229,-1.200441449065698496
0.509000000000000341,-1.166484807555948411
0.510000000000000231,-1.133358044112981577
0.511000000000000343,-1.101053313343653306
0.512000000000000233,-1.069562556340797110
0.513000000000000345,-1.038877511641721929
0.514000000000000234,-1.008989725982426089
0.515000000000000346,-0.979890564845234957
0.516000000000000236,-0.951571222798587413
0.517000000000000348,-0.924022733627352877
0.518000000000000238,-0.897235980252750531
0.519000000000000350,-0.871201704440950353
0.520000000000000240,-0.845910516299858584
0.521000000000000352,-0.821352903563753012
0.522000000000000242,-0.797519240665613194
0.523000000000000353,-0.774399797597346562
0.524000000000000243,-0.751984748558154559
0.525000000000000355,-0.730264180391628215
0.526000000000000245,-0.709228100812285489
0.527000000000000357,-0.688866446422350287
0.528000000000000247,-0.669169090519992626
0.529000000000000359,-0.650125850700062125
0.530000000000000249,-0.631726496248860014
0.531000000000000361,-0.613960755334330033
0.532000000000000250,-0.596818321993410783
0.533000000000000362,-0.580288862918241777
0.534000000000000252,-0.564362024043156829
0.535000000000000364,-0.549027436934482971
0.536000000000000254,-0.534274724985220217
0.537000000000000366,-0.520093509416762578
0.538000000000000256,-0.506473415090073931
0.539000000000000368,-0.493404076128525770
0.540000000000000258,-0.480875141355023294
0.541000000000000369,-0.468876279545750230
0.542000000000000259,-0.457397184503301024
0.543000000000000371,-0.446427579951680975
0.544000000000000261,-0.435957224255982989
0.545000000000000373,-0.425975914969429936
0.546000000000000263,-0.416473493210575529
0.547000000000000375,-0.407439847873468763
0.548000000000000265,-0.398864919673712792
0.549000000000000377,-0.390738705033186584
0.550000000000000266,-0.383051259806440558
0.551000000000000378,-0.375792702851647287
0.552000000000000268,-0.368953219449051184
0.553000000000000380,-0.362523064569898801
0.554000000000000270,-0.356492565998821620
0.555000000000000382,-0.350852127312581363
0.556000000000000272,-0.345592230718289983
0.557000000000000384,-0.340703439753885506
0.558000000000000274,-0.336176401854065832
0.559000000000000385,-0.332001850784422736
0.560000000000000275,-0.328170608946920850
0.561000000000000387,-0.324673589559556774
0.562000000000000277,-0.321501798713138831
0.563000000000000389,-0.318646337308184369
0.564000000000000279,-0.316098402874741224
0.565000000000000391,-0.313849291278076037
0.566000000000000281,-0.311890398313039163
0.567000000000000393,-0.310213221189990673
0.568000000000000282,-0.308809359915075243
0.569000000000000394,-0.307670518567613072
0.570000000000000284,-0.306788506477365885
0.571000000000000396,-0.306155239304453097
0.572000000000000286,-0.305762740024564328
0.573000000000000398,-0.305603139822110070
0.574000000000000288,-0.305668678893998957
0.575000000000000400,-0.305951707166653208
0.576000000000000290,-0.306444684928704192
0.577000000000000401,-0.307140183382060616
0.578000000000000291,-0.308030885113712127
0.579000000000000403,-0.309109584490782408
0.580000000000000293,-0.310369187981235695
0.581000000000000405,-0.311802714402633074
0.582000000000000295,-0.313403295101237045
0.583000000000000407,-0.315164174063830238
0.584000000000000297,-0.317078707964426054
0.585000000000000409,-0.319140366148217836
0.586000000000000298,-0.321342730554797895
0.587000000000000410,-0.323679495582955723
0.588000000000000300,-0.326144467899014523
0.589000000000000412,-0.328731566190874180
0.590000000000000302,-0.331434820869709656
0.591000000000000414,-0.334248373721422687
0.592000000000000304,-0.337166477509630358
0.593000000000000416,-0.340183495532235536
0.594000000000000306,-0.343293901133396528
0.595000000000000417,-0.346492277172711749
0.596000000000000307,-0.349773315453385802
0.597000000000000419,-0.353131816111205865
0.598000000000000309,-0.356562686965979203
0.599000000000000421,-0.360060942837044984
0.600000000000000311,-0.363621704824645342
0.601000000000000423,-0.367240199558605984
0.602000000000000313,-0.370911758415948589
0.603000000000000425,-0.374631816708933862
0.604000000000000314,-0.378395912845051197
0.605000000000000426,-0.382199687460338444
0.606000000000000316,-0.386038882527492966
0.607000000000000428,-0.389909340440113938
0.608000000000000318,-0.393807003074444328
0.609000000000000430,-0.397727910829877240
0.610000000000000320,-0.401668201649516887
0.611000000000000432,-0.405624110022034468
0.612000000000000322,-0.409591965965971583
0.613000000000000433,-0.413568193997731204
0.614000000000000323,-0.417549312084320001
0.615000000000000435,-0.421531930581999503
0.616000000000000325,-0.425512751161844172
0.617000000000000437,-0.429488565723334825
0.618000000000000327,-0.433456255296927662
0.619000000000000439,-0.437412788936580088
0.620000000000000329,-0.441355222603220188
0.621000000000000441,-0.445280698040052436
0.622000000000000330,-0.449186441640562761
0.623000000000000442,-0.453069763310166351
0.624000000000000332,-0.456928055322194826
0.625000000000000444,-0.460758791169208148
0.626000000000000334,-0.464559524410229574
0.627000000000000446,-0.468327887514797425
0.628000000000000336,-0.472061590704474732
0.629000000000000448,-0.475758420792574799
0.630000000000000338,-0.479416240022725426
0.631000000000000449,-0.483032984907005691
0.632000000000000339,-0.486606665064182653
0.633000000000000451,-0.490135362058760404
0.634000000000000341,-0.493617228241328809
0.635000000000000453,-0.497050485590897151
0.636000000000000343,-0.500433424559575513
0.637000000000000455,-0.503764402920341303
0.638000000000000345,-0.507041844618195792
0.639000000000000457,-0.510264238625314226
0.640000000000000346,-0.513430137800597874
0.641000000000000458,-0.516538157754084848
0.642000000000000348,-0.519586975716623045
0.643000000000000460,-0.522575329415252310
0.644000000000000350,-0.525502015954611545
0.645000000000000462,-0.528365890704828312
0.646000000000000352,-0.531165866196145697
0.647000000000000464,-0.533900911020710578
0.648000000000000353,-0.536570048741784600
0.649000000000000465,-0.539172356810705189
0.650000000000000355,-0.541706965491875692
0.651000000000000467,-0.544173056796058763
0.652000000000000357,-0.546569863422255442
0.653000000000000469,-0.548896667708364872
0.654000000000000359,-0.551152800590917535
0.655000000000000471,-0.553337640574039780
0.656000000000000361,-0.555450612707907077
0.657000000000000473,-0.557491187576837577
0.658000000000000362,-0.559458880297244554
0.659000000000000474,-0.561353249525573417
0.660000000000000364,-0.563173896476423685
0.661000000000000476,-0.564920463950975837
0.662000000000000366,-0.566592635375853138
0.663000000000000478,-0.568190133852583990
