# Al2O3-001_CS-13254-AC
# h[nm],U(h)[kJ/mol]
0.200000000000000011,59.573241105435087661
0.201000000000000012,58.575672301405880660
0.202000000000000013,57.248380542206255939
0.203000000000000014,55.785492668209258227
0.204000000000000015,54.293171945802690459
0.205000000000000016,52.823233811461136611
0.206000000000000016,51.395550814191985012
0.207000000000000017,50.012601221990344413
0.208000000000000018,48.668594632182859527
0.209000000000000019,47.354923216524717589
0.210000000000000020,46.063181379734132292
0.211000000000000021,44.786625507715292827
0.212000000000000022,43.520675427440934868
0.213000000000000023,42.262864525106905944
0.214000000000000024,41.012506690336067550
0.215000000000000024,39.770250643334435381
0.216000000000000025,38.537624673347330884
0.217000000000000026,37.316629068303583949
0.218000000000000027,36.109403364563931405
0.219000000000000028,34.917976417864586836
0.220000000000000029,33.744095832715437666
0.221000000000000030,32.589127042466586204
0.222000000000000031,31.454009544535722398
0.223000000000000032,30.339257211861923480
0.224000000000000032,29.244990344934610249
0.225000000000000033,28.170988596128921699
0.226000000000000034,27.116755686406271764
0.227000000000000035,26.081588683562092257
0.228000000000000036,25.064646362030298832
0.229000000000000037,24.065012727852394647
0.230000000000000038,23.081753127405129078
0.231000000000000039,22.113961454691789754
0.232000000000000040,21.160797838827363648
0.233000000000000040,20.221516851535071169
0.234000000000000041,19.295486750484119653
0.235000000000000042,18.382200596544262083
0.236000000000000043,17.481280279425451596
0.237000000000000044,16.592474582664390681
0.238000000000000045,15.715652438691625647
0.239000000000000046,14.850792487829405530
0.240000000000000047,13.997969978421428650
0.241000000000000048,13.157341942762935005
0.242000000000000048,12.329131466189839017
0.243000000000000049,11.513611743261579434
0.244000000000000050,10.711090491985405748
0.245000000000000051,9.921895179233093387
0.246000000000000052,9.146359401190585103
0.247000000000000053,8.384810663939536113
0.248000000000000054,7.637559722248967731
0.249000000000000055,6.904891559768245202
0.250000000000000056,6.187058030927884644
0.251000000000000056,5.484272133442218866
0.252000000000000057,4.796703839567337369
0.253000000000000058,4.124477383226020422
0.254000000000000059,3.467669877699053327
0.255000000000000060,2.826311123701900740
0.256000000000000061,2.200384459225894318
0.257000000000000062,1.589828499482605961
0.258000000000000063,0.994539616671777815
0.259000000000000064,0.414375014204120817
0.260000000000000064,-0.150843742353273580
0.261000000000000065,-0.701326865688062573
0.262000000000000066,-1.237312275539693918
0.263000000000000067,-1.759061420989047608
0.264000000000000068,-2.266855088998673828
0.265000000000000069,-2.760989279551135933
0.266000000000000070,-3.241771215554817953
0.267000000000000071,-3.709515543974697405
0.268000000000000071,-4.164540773573593313
0.269000000000000072,-4.607165984347003196
0.270000000000000073,-5.037707834286662134
0.271000000000000074,-5.456477880565918426
0.272000000000000075,-5.863780224626522042
0.273000000000000076,-6.259909483958161047
0.274000000000000077,-6.645149087580179526
0.275000000000000078,-7.019769887322034663
0.276000000000000079,-7.384029072909186198
0.277000000000000079,-7.738169375540314476
0.278000000000000080,-8.082418542027262731
0.279000000000000081,-8.416989059601466039
0.280000000000000082,-8.742078110101706656
0.281000000000000083,-9.057867731386563648
0.282000000000000084,-9.364525163396020702
0.283000000000000085,-9.662203356261295895
0.284000000000000086,-9.951041618173068315
0.285000000000000087,-10.231166381310190516
0.286000000000000087,-10.502692064956985263
0.287000000000000088,-10.765722015949172885
0.288000000000000089,-11.020349507746045603
0.289000000000000090,-11.266658780692983655
0.290000000000000091,-11.504726107378685285
0.291000000000000092,-11.734620868379471048
0.292000000000000093,-11.956406625089902818
0.293000000000000094,-12.170142177745633560
0.294000000000000095,-12.375882598130219847
0.295000000000000095,-12.573680227809139964
0.296000000000000096,-12.763585634036290983
0.297000000000000097,-12.945648516722949140
0.298000000000000098,-13.119918561036755023
0.299000000000000099,-13.286446231304415377
0.300000000000000100,-13.445283502920617025
0.301000000000000101,-13.596484529916844863
0.302000000000000102,-13.740106246713471805
0.303000000000000103,-13.876208903369661840
0.304000000000000103,-14.004856534356358466
0.305000000000000104,-14.126117361511964177
0.306000000000000105,-14.240064132399760766
0.307000000000000106,-14.346774395773390864
0.308000000000000107,-14.446330716276250428
0.309000000000000108,-14.538820830855305744
0.310000000000000109,-14.624337749664451991
0.311000000000000110,-14.702979804469787695
0.312000000000000111,-14.774850647755943811
0.313000000000000111,-14.840059205869636116
0.314000000000000112,-14.898719589631355120
0.315000000000000113,-14.950950965900442924
0.316000000000000114,-14.996877393598044392
0.317000000000000115,-15.036627627679360231
0.318000000000000116,-15.070334894506236978
0.319000000000000117,-15.098136642005462349
0.320000000000000118,-15.120174267911679067
0.321000000000000119,-15.136592829289265083
0.322000000000000119,-15.147540736407240303
0.323000000000000120,-15.153169433909074115
0.324000000000000121,-15.153633072076411636
0.325000000000000122,-15.149088170835574019
0.326000000000000123,-15.139693278999279968
0.327000000000000124,-15.125608631076110200
0.328000000000000125,-15.106995803818112023
0.329000000000000126,-15.084017374513910781
0.330000000000000127,-15.056836582872415775
0.331000000000000127,-15.025616998181885009
0.332000000000000128,-14.990522193271536011
0.333000000000000129,-14.951715426648920726
0.334000000000000130,-14.909359334036958344
0.335000000000000131,-14.863615630390478728
0.336000000000000132,-14.814644823333107837
0.337000000000000133,-14.762605938823091023
0.338000000000000134,-14.707656259730319093
0.339000000000000135,-14.649951077887177320
0.340000000000000135,-14.589643460063118852
0.341000000000000136,-14.526884028206790589
0.342000000000000137,-14.461820754200607198
0.343000000000000138,-14.394598769280293027
0.344000000000000139,-14.325360188186730070
0.345000000000000140,-14.254243948038745060
0.346000000000000141,-14.181385661843261659
0.347000000000000142,-14.106917486493495417
0.348000000000000143,-14.030968005046668523
0.349000000000000143,-13.953662123018641950
0.350000000000000144,-13.875120978385492521
0.351000000000000145,-13.795461864939431607
0.352000000000000146,-13.714798168609437568
0.353000000000000147,-13.633239316324875290
0.354000000000000148,-13.550890736972757367
0.355000000000000149,-13.467853833976315414
0.356000000000000150,-13.384225969003745504
0.357000000000000151,-13.300100456300693708
0.358000000000000151,-13.215566567128940179
0.359000000000000152,-13.130709543785314963
0.360000000000000153,-13.045610622670261947
0.361000000000000154,-12.960347065872994676
0.362000000000000155,-12.874992200740873471
0.363000000000000156,-12.789615466903404339
0.364000000000000157,-12.704282470226148760
0.365000000000000158,-12.619055043177056064
0.366000000000000159,-12.533991311096093213
0.367000000000000159,-12.449145763869362113
0.368000000000000160,-12.364569332520696676
0.369000000000000161,-12.280309470246189463
0.370000000000000162,-12.196410237431013712
0.371000000000000163,-12.112912390202856372
0.372000000000000164,-12.029853472091145861
0.373000000000000165,-11.947267908377932955
0.374000000000000166,-11.865187102742229541
0.375000000000000167,-11.783639535816854860
0.376000000000000167,-11.702650865293716009
0.377000000000000168,-11.622244027231042551
0.378000000000000169,-11.542439338233005941
0.379000000000000170,-11.463254598190104616
0.380000000000000171,-11.384705193285402203
0.381000000000000172,-11.306804198989283350
0.382000000000000173,-11.229562482781998867
0.383000000000000174,-11.152988806360252028
0.384000000000000175,-11.077089927100157496
0.385000000000000175,-11.001870698565060280
0.386000000000000176,-10.927334169862417568
0.387000000000000177,-10.853481683668903202
0.388000000000000178,-10.780312972758022028
0.389000000000000179,-10.707826254878453298
0.390000000000000180,-10.636018325845514099
0.391000000000000181,-10.564884650721165116
0.392000000000000182,-10.494419452971090578
0.393000000000000183,-10.424615801499363954
0.394000000000000183,-10.355465695473290211
0.395000000000000184,-10.286960146862039522
0.396000000000000185,-10.219089260623588800
0.397000000000000186,-10.151842312484522068
0.398000000000000187,-10.085207824267040877
0.399000000000000188,-10.019173636726725007
0.400000000000000189,-9.953726979873049885
0.401000000000000190,-9.888854540753085232
0.402000000000000191,-9.824542528686311726
0.403000000000000191,-9.760776737945652926
0.404000000000000192,-9.697542607886743937
0.405000000000000193,-9.634825280533448222
0.406000000000000194,-9.572609655633714354
0.407000000000000195,-9.510880443205163459
0.408000000000000196,-9.449622213594730979
0.409000000000000197,-9.388819445081377779
0.410000000000000198,-9.328456569055120440
0.411000000000000199,-9.268518012809257911
0.412000000000000199,-9.208988239986451774
0.413000000000000200,-9.149851788722223489
0.414000000000000201,-9.091093307532451817
0.415000000000000202,-9.032697588993713111
0.416000000000000203,-8.974649601267861598
0.417000000000000204,-8.916934517523911197
0.418000000000000205,-8.859537743312008828
0.419000000000000206,-8.802444941945976709
0.420000000000000207,-8.745642057951561910
0.421000000000000207,-8.689115338639172847
0.422000000000000208,-8.632851353859933852
0.423000000000000209,-8.576837014005075588
0.424000000000000210,-8.521059586308647127
0.425000000000000211,-8.465506709513805461
0.426000000000000212,-8.410166406963210051
0.427000000000000213,-8.355027098173568589
0.428000000000000214,-8.300077608954506303
0.429000000000000214,-8.245307180131238312
0.430000000000000215,-8.190705474930235042
0.431000000000000216,-8.136262585086402765
0.432000000000000217,-8.081969035729580142
0.433000000000000218,-8.027815789107327404
0.434000000000000219,-7.973794247200219232
0.435000000000000220,-7.919896253284778531
0.436000000000000221,-7.866114092498261989
0.437000000000000222,-7.812440491458320757
0.438000000000000222,-7.758868616989557765
0.439000000000000223,-7.705392074007775705
0.440000000000000224,-7.652004902611392545
0.441000000000000225,-7.598701574428403660
0.442000000000000226,-7.545476988265965801
0.443000000000000227,-7.492326465108182454
0.444000000000000228,-7.439245742506673587
0.445000000000000229,-7.386230968406863440
0.446000000000000230,-7.333278694451739632
0.447000000000000230,-7.280385868803496585
0.448000000000000231,-7.227549828522017883
0.449000000000000232,-7.174768291537835907
0.450000000000000233,-7.122039348255948532
0.451000000000000234,-7.069361452825333458
0.452000000000000235,-7.016733414107909184
0.453000000000000236,-6.964154386379083128
0.454000000000000237,-6.911623859791052205
0.455000000000000238,-6.859141650628361120
0.456000000000000238,-6.806707891384313314
0.457000000000000239,-6.754323020685208512
0.458000000000000240,-6.701987773088565525
0.459000000000000241,-6.649703168779768525
0.460000000000000242,-6.597470503190950630
0.461000000000000243,-6.545291336564226015
0.462000000000000244,-6.493167483480748459
0.463000000000000245,-6.441101002375416051
0.464000000000000246,-6.389094185056587882
0.465000000000000246,-6.337149546248538101
0.466000000000000247,-6.285269813173720799
0.467000000000000248,-6.233457915190757426
0.468000000000000249,-6.181716973503194268
0.469000000000000250,-6.130050290952969938
0.470000000000000251,-6.078461341911866711
0.471000000000000252,-6.026953762283003613
0.472000000000000253,-5.975531339624028604
0.473000000000000254,-5.924198003402318946
0.474000000000000254,-5.872957815392179093
0.475000000000000255,-5.821814960222896573
0.476000000000000256,-5.770773736086042938
0.477000000000000257,-5.719838545609534641
0.478000000000000258,-5.669013886905300836
0.479000000000000259,-5.618304344796870353
0.480000000000000260,-5.567714582232400566
0.481000000000000261,-5.517249331888167241
0.482000000000000262,-5.466913387966945592
0.483000000000000262,-5.416711598195158572
0.484000000000000263,-5.366648856022074199
0.485000000000000264,-5.316730093023973147
0.486000000000000265,-5.266960271515618075
0.487000000000000266,-5.217344377370871200
0.488000000000000267,-5.167887413054041978
0.489000000000000268,-5.118594390862958754
0.490000000000000269,-5.069470326384434955
0.491000000000000270,-5.020520232162501983
0.492000000000000270,-4.971749111579280012
0.493000000000000271,-4.923161952948202469
0.494000000000000272,-4.874763723818866801
0.495000000000000273,-4.826559365492527398
0.496000000000000274,-4.778553787747083170
0.497000000000000275,-4.730751863769934396
0.498000000000000276,-4.683158425297072824
0.499000000000000277,-4.635778257956411963
0.500000000000000222,-4.588616096813168177
0.501000000000000334,-4.541676622114986017
0.502000000000000224,-4.494964455234253364
0.503000000000000336,-4.448484154804819291
0.504000000000000226,-4.402240213050479412
0.505000000000000338,-4.356237052301922041
0.506000000000000227,-4.310479021699392455
0.507000000000000339,-4.264970394077463922
0.508000000000000229,-4.219715363028922361
0.509000000000000341,-4.174718040144021813
0.510000000000000231,-4.129982452421962158
0.511000000000000343,-4.085512539850610025
0.512000000000000233,-4.041312153151173092
0.513000000000000345,-3.997385051683819857
0.514000000000000234,-3.953734901510858268
0.515000000000000346,-3.910365273613251702
0.516000000000000236,-3.867279642257099859
0.517000000000000348,-3.824481383505888399
0.518000000000000238,-3.781973773874933720
0.519000000000000350,-3.739759989123933259
0.520000000000000240,-3.697843103183925173
0.521000000000000352,-3.656226087214708542
0.522000000000000242,-3.614911808788910719
0.523000000000000353,-3.573903031198783165
0.524000000000000243,-3.533202412882027410
0.525000000000000355,-3.492812506962701402
0.526000000000000245,-3.452735760903595352
0.527000000000000357,-3.412974516266111813
0.528000000000000247,-3.373531008574209178
0.529000000000000359,-3.334407367278450440
0.530000000000000249,-3.295605615816763923
0.531000000000000361,-3.257127671768124344
0.532000000000000250,-3.218975347095800910
0.533000000000000362,-3.181150348476462941
0.534000000000000252,-3.143654277711905198
0.535000000000000364,-3.106488632219807755
0.536000000000000254,-3.069654805600392500
0.537000000000000366,-3.033154088275419991
0.538000000000000256,-2.996987668196656962
0.539000000000000368,-2.961156631620242230
0.540000000000000258,-2.925661963944261146
0.541000000000000369,-2.890504550606066037
0.542000000000000259,-2.855685178036760252
0.543000000000000371,-2.821204534669575104
0.544000000000000261,-2.787063211999539103
0.545000000000000373,-2.753261705691481431
0.546000000000000263,-2.719800416733792137
0.547000000000000375,-2.686679652635031612
0.548000000000000265,-2.653899628661162691
0.549000000000000377,-2.621460469110434843
0.550000000000000266,-2.589362208623847472
0.551000000000000378,-2.557604793528489573
0.552000000000000268,-2.526188083211624580
0.553000000000000380,-2.495111851523072133
0.554000000000000270,-2.464375788203866602
0.555000000000000382,-2.433979500338811608
0.556000000000000272,-2.403922513831107999
0.557000000000000384,-2.374204274896753120
0.558000000000000274,-2.344824151577042048
0.559000000000000385,-2.315781435266976551
0.560000000000000275,-2.287075342258025223
0.561000000000000387,-2.258705015293219542
0.562000000000000277,-2.230669525133025299
0.563000000000000389,-2.202967872130238813
0.564000000000000279,-2.175598987812366492
0.565000000000000391,-2.148561736469885908
0.566000000000000281,-2.121854916748941111
0.567000000000000393,-2.095477263246983135
0.568000000000000282,-2.069427448110084278
0.569000000000000394,-2.043704082630406926
0.570000000000000284,-2.018305718842784646
0.571000000000000396,-1.993230851118958258
0.572000000000000286,-1.968477917758516771
0.573000000000000398,-1.944045302575177159
0.574000000000000288,-1.919931336477541661
0.575000000000000400,-1.896134299043165328
0.576000000000000290,-1.872652420085004987
0.577000000000000401,-1.849483881209272429
0.578000000000000291,-1.826626817363851796
0.579000000000000403,-1.804079318376342389
0.580000000000000293,-1.781839430481024111
0.581000000000000405,-1.759905157833842271
0.582000000000000295,-1.738274464014834875
0.583000000000000407,-1.716945273517143544
0.584000000000000297,-1.695915473222106895
0.585000000000000409,-1.675182913859690093
0.586000000000000298,-1.654745411453790283
0.587000000000000410,-1.634600748751736887
0.588000000000000300,-1.614746676637616618
0.589000000000000412,-1.595180915528797927
0.590000000000000302,-1.575901156755332932
0.591000000000000414,-1.556905063921742993
0.592000000000000304,-1.538190274250831324
0.593000000000000416,-1.519754399909126308
0.594000000000000306,-1.501595029313703256
0.595000000000000417,-1.483709728419990270
0.596000000000000307,-1.466096041990341714
0.597000000000000419,-1.448751494843102616
0.598000000000000309,-1.431673593081974394
0.599000000000000421,-1.414859825305393226
0.600000000000000311,-1.398307663795871569
0.601000000000000423,-1.382014565689000607
0.602000000000000313,-1.365977974122137839
0.603000000000000425,-1.350195319362465396
0.604000000000000314,-1.334664019914572064
0.605000000000000426,-1.319381483607217076
0.606000000000000316,-1.304345108659464625
0.607000000000000428,-1.289552284725930864
0.608000000000000318,-1.275000393921322805
0.609000000000000430,-1.260686811824081710
0.610000000000000320,-1.246608908459289511
0.611000000000000432,-1.232764049260738570
0.612000000000000322,-1.219149596012314429
0.613000000000000433,-1.205762907768648029
0.614000000000000323,-1.192601341755175737
0.615000000000000435,-1.179662254247639597
0.616000000000000325,-1.166943001431143712
0.617000000000000437,-1.154440940238846025
0.618000000000000327,-1.142153429170433832
0.619000000000000439,-1.130077829090446517
0.620000000000000329,-1.118211504006650925
0.621000000000000441,-1.106551821828549498
0.622000000000000330,-1.095096155106215496
0.623000000000000442,-1.083841881749567193
0.624000000000000332,-1.072786385728310643
0.625000000000000444,-1.061927057752661163
0.626000000000000334,-1.051261295935072004
0.627000000000000446,-1.040786506433132974
0.628000000000000336,-1.030500104073838186
0.629000000000000448,-1.020399512959425881
0.630000000000000338,-1.010482167055004599
0.631000000000000449,-1.000745510758139556
0.632000000000000339,-0.991186999450670569
0.633000000000000451,-0.981804100032919735
0.634000000000000341,-0.972594291440562531
0.635000000000000453,-0.963555065144362843
0.636000000000000343,-0.954683925632988206
0.637000000000000455,-0.945978390879186670
0.638000000000000345,-0.937435992789512951
0.639000000000000457,-0.929054277637848758
0.640000000000000346,-0.920830806482996977
0.641000000000000458,-0.912763155570532780
0.642000000000000348,-0.904848916719212193
0.643000000000000460,-0.897085697692123651
0.644000000000000350,-0.889471122552904503
0.645000000000000462,-0.882002832007182214
0.646000000000000352,-0.874678483729570688
0.647000000000000464,-0.867495752676395449
0.648000000000000353,-0.860452331384475300
0.649000000000000465,-0.853545930256119911
0.650000000000000355,-0.846774277830688371
0.651000000000000467,-0.840135121042860811
0.652000000000000357,-0.833626225467964610
0.653000000000000469,-0.827245375554510831
0.654000000000000359,-0.820990374844286719
0.655000000000000471,-0.814859046180143709
0.656000000000000361,-0.808849231901825894
0.657000000000000473,-0.802958794030006473
0.658000000000000362,-0.797185614438829515
0.659000000000000474,-0.791527595017149865
0.660000000000000364,-0.785982657818770525
