# Al2O3-001_CS-13867413-AC
# h[nm],U(h)[kJ/mol]
0.200000000000000011,65.822199781665119644
0.201000000000000012,65.105686068196249039
0.202000000000000013,63.913229381535941798
0.203000000000000014,62.516437591436123000
0.204000000000000015,61.065039010032172939
0.205000000000000016,59.633013466695821592
0.206000000000000016,58.249477331323497253
0.207000000000000017,56.918847410424710631
0.208000000000000018,55.633574960624130767
0.209000000000000019,54.381822058501299466
0.210000000000000020,53.151772033059330624
0.211000000000000021,51.933765132971799972
0.212000000000000022,50.721085317918763735
0.213000000000000023,49.509959894513734469
0.214000000000000024,48.299144708292566008
0.215000000000000024,47.089334096184742862
0.216000000000000025,45.882541973305585259
0.217000000000000026,44.681537146307981345
0.218000000000000027,43.489373906362253308
0.219000000000000028,42.309031995859420761
0.220000000000000029,41.143163625390414495
0.221000000000000030,39.993936026341501133
0.222000000000000031,38.862953662101084262
0.223000000000000032,37.751242974109217698
0.224000000000000032,36.659283201214130088
0.225000000000000033,35.587068547819612263
0.226000000000000034,34.534189225041075133
0.227000000000000035,33.499921281757337965
0.228000000000000036,32.483317450024479456
0.229000000000000037,31.483293319765369489
0.230000000000000038,30.498704965213853768
0.231000000000000039,29.528415648571694874
0.232000000000000040,28.571350431070026588
0.233000000000000040,27.626538451214656789
0.234000000000000041,26.693143316442075275
0.235000000000000042,25.770482533340157261
0.236000000000000043,24.858037208747290947
0.237000000000000044,23.955453423183612927
0.238000000000000045,23.062536739689331711
0.239000000000000046,22.179241291931855784
0.240000000000000047,21.305654818083304747
0.241000000000000048,20.441980890293482531
0.242000000000000048,19.588519448824833091
0.243000000000000049,18.745646597101547570
0.244000000000000050,17.913794458288059275
0.245000000000000051,17.093431742383522476
0.246000000000000052,16.285045530064405028
0.247000000000000053,15.489124648845580268
0.248000000000000054,14.706144900494603434
0.249000000000000055,13.936556296934643484
0.250000000000000056,13.180772375244504957
0.251000000000000056,12.439161590374624211
0.252000000000000057,11.712040726006417657
0.253000000000000058,10.999670218482716422
0.254000000000000059,10.302251254659989144
0.255000000000000060,9.619924480538269762
0.256000000000000061,8.952770142256293084
0.257000000000000062,8.300809473180146725
0.258000000000000063,7.664007139115073919
0.259000000000000064,7.042274556975215205
0.260000000000000064,6.435473909505070367
0.261000000000000065,5.843422688922360386
0.262000000000000066,5.265898614818135037
0.263000000000000067,4.702644785599206401
0.264000000000000068,4.153374937581307158
0.265000000000000069,3.617778701034781275
0.266000000000000070,3.095526757635143067
0.267000000000000071,2.586275818543970040
0.268000000000000071,2.089673356486146272
0.269000000000000072,1.605362038500596000
0.270000000000000073,1.132983818386759989
0.271000000000000074,0.672183659156635360
0.272000000000000075,0.222612865980470087
0.273000000000000076,-0.216067980833014511
0.274000000000000077,-0.644186495346979915
0.275000000000000078,-1.062056353675362663
0.276000000000000079,-1.469975549701887818
0.277000000000000079,-1.868225023887235992
0.278000000000000080,-2.257067646301283759
0.279000000000000081,-2.636747531949049428
0.280000000000000082,-3.007489664153500719
0.281000000000000083,-3.369499800141058099
0.282000000000000084,-3.722964631967651705
0.283000000000000085,-4.068052175451005503
0.284000000000000086,-4.404912359767100050
0.285000000000000087,-4.733677790755367099
0.286000000000000087,-5.054464661698142791
0.287000000000000088,-5.367373786333159202
0.288000000000000089,-5.672491730071691052
0.289000000000000090,-5.969892016780145028
0.290000000000000091,-6.259636389994285288
0.291000000000000092,-6.541776109036608666
0.292000000000000093,-6.816353262161224613
0.293000000000000094,-7.083402080529404898
0.294000000000000095,-7.342950238495620674
0.295000000000000095,-7.595020127337880567
0.296000000000000096,-7.839630091177395066
0.297000000000000097,-8.076795615388107308
0.298000000000000098,-8.306530459282782886
0.299000000000000099,-8.528847726270949892
0.300000000000000100,-8.743760866006995869
0.301000000000000101,-8.951284604280726143
0.302000000000000102,-9.151435797542520234
0.303000000000000103,-9.344234210002404950
0.304000000000000103,-9.529703212193375350
0.305000000000000104,-9.707870400748392470
0.306000000000000105,-9.878768139907794676
0.307000000000000106,-10.042434025952710286
0.308000000000000107,-10.198911276354639455
0.309000000000000108,-10.348249045944365676
0.310000000000000109,-10.490502672840936071
0.311000000000000110,-10.625733857245927894
0.312000000000000111,-10.754010776507476166
0.313000000000000111,-10.875408140093977494
0.314000000000000112,-10.990007188297321150
0.315000000000000113,-11.097895638612120806
0.316000000000000114,-11.199167583817729366
0.317000000000000115,-11.293923345826337723
0.318000000000000116,-11.382269289360028353
0.319000000000000117,-11.464317599484459720
0.320000000000000118,-11.540186026962484078
0.321000000000000119,-11.609997605300858226
0.322000000000000119,-11.673880343250502278
0.323000000000000120,-11.731966896389749877
0.324000000000000121,-11.784394221273434056
0.325000000000000122,-11.831303215471020707
0.326000000000000123,-11.872838346648062924
0.327000000000000124,-11.909147273668002853
0.328000000000000125,-11.940380462509960324
0.329000000000000126,-11.966690799612180740
0.330000000000000127,-11.988233205064457110
0.331000000000000127,-12.005164247886195739
0.332000000000000128,-12.017641765441524626
0.333000000000000129,-12.025824488860825667
0.334000000000000130,-12.029871676159302751
0.335000000000000131,-12.029942754570036811
0.336000000000000132,-12.026196973440246296
0.337000000000000133,-12.018793068877993591
0.338000000000000134,-12.007888941181175113
0.339000000000000135,-11.993641345932370967
0.340000000000000135,-11.976205599502662835
0.341000000000000136,-11.955735299574250519
0.342000000000000137,-11.932382061166503462
0.343000000000000138,-11.906295268532520737
0.344000000000000139,-11.877621843183844064
0.345000000000000140,-11.846506028199055294
0.346000000000000141,-11.813089188877832214
0.347000000000000142,-11.777509629715519068
0.348000000000000143,-11.739902427594138601
0.349000000000000143,-11.700399281013556418
0.350000000000000144,-11.659128375121516896
0.351000000000000145,-11.616214262242625210
0.352000000000000146,-11.571777757554460919
0.353000000000000147,-11.525935849512684683
0.354000000000000148,-11.478801624587068986
0.355000000000000149,-11.430484205835403699
0.356000000000000150,-11.381088704812748702
0.357000000000000151,-11.330716186288837477
0.358000000000000151,-11.279463645226231350
0.359000000000000152,-11.227423995455932726
0.360000000000000153,-11.174686069475345818
0.361000000000000154,-11.121334628785147558
0.362000000000000155,-11.067450384176765965
0.363000000000000156,-11.013110025380496992
0.364000000000000157,-10.958386259485191516
0.365000000000000158,-10.903347857544462229
0.366000000000000159,-10.848059708790014355
0.367000000000000159,-10.792582881881015666
0.368000000000000160,-10.736974692628503902
0.369000000000000161,-10.681288777645367105
0.370000000000000162,-10.625575173385575667
0.371000000000000163,-10.569880400051042457
0.372000000000000164,-10.514247549859598863
0.373000000000000165,-10.458716379184515688
0.374000000000000166,-10.403323404092866156
0.375000000000000167,-10.348101998828161285
0.376000000000000167,-10.293082496801012837
0.377000000000000168,-10.238292293670337330
0.378000000000000169,-10.183755952116616328
0.379000000000000170,-10.129495307928063852
0.380000000000000171,-10.075529577039619156
0.381000000000000172,-10.021875463184029442
0.382000000000000173,-9.968547265833292315
0.383000000000000174,-9.915556988127892879
0.384000000000000175,-9.862914444509645051
0.385000000000000175,-9.810627367792569942
0.386000000000000176,-9.758701515424238693
0.387000000000000177,-9.707140774707545106
0.388000000000000178,-9.655947266770272819
0.389000000000000179,-9.605121449086317043
0.390000000000000180,-9.554662216368889460
0.391000000000000181,-9.504566999671606453
0.392000000000000182,-9.454831863548610826
0.393000000000000183,-9.405451601139407813
0.394000000000000183,-9.356419827058289229
0.395000000000000184,-9.307729067981592053
0.396000000000000185,-9.259370850838910982
0.397000000000000186,-9.211335788526813673
0.398000000000000187,-9.163613663075206972
0.399000000000000188,-9.116193506207773467
0.400000000000000189,-9.069063677248298205
0.401000000000000190,-9.022211938334937287
0.402000000000000191,-8.975625526913718844
0.403000000000000191,-8.929291225491549966
0.404000000000000192,-8.883195428637375102
0.405000000000000193,-8.837324207227876371
0.406000000000000194,-8.791663369941492334
0.407000000000000195,-8.746198522011319199
0.408000000000000196,-8.700915121253760987
0.409000000000000197,-8.655798531395650031
0.410000000000000198,-8.610834072728039246
0.411000000000000199,-8.566007070119677991
0.412000000000000199,-8.521302898427908445
0.413000000000000200,-8.476707025348684255
0.414000000000000201,-8.432205051751354929
0.415000000000000202,-8.387782749546946803
0.416000000000000203,-8.343426097142122799
0.417000000000000204,-8.299121312533195294
0.418000000000000205,-8.254854884097371226
0.419000000000000206,-8.210613599140195618
0.420000000000000207,-8.166384570259971554
0.421000000000000207,-8.122155259591627541
0.422000000000000208,-8.077913500993352258
0.423000000000000209,-8.033647520240771556
0.424000000000000210,-7.989345953293875091
0.425000000000000211,-7.944997862702471991
0.426000000000000212,-7.900592752216634373
0.427000000000000213,-7.856120579668176340
0.428000000000000214,-7.811571768189837783
0.429000000000000214,-7.766937215838110475
0.430000000000000215,-7.722208303685723862
0.431000000000000216,-7.677376902449080553
0.432000000000000217,-7.632435377715495406
0.433000000000000218,-7.587376593834243010
0.434000000000000219,-7.542193916534749576
0.435000000000000220,-7.496881214334240262
0.436000000000000221,-7.451432858796121828
0.437000000000000222,-7.405843723699424785
0.438000000000000222,-7.360109183178325409
0.439000000000000223,-7.314225108889674587
0.440000000000000224,-7.268187866265053643
0.441000000000000225,-7.221994309902614262
0.442000000000000226,-7.175641778152697547
0.443000000000000227,-7.129128086949523713
0.444000000000000228,-7.082451522940194089
0.445000000000000229,-7.035610835960466325
0.446000000000000230,-6.988605230905409194
0.447000000000000230,-6.941434359041615210
0.448000000000000231,-6.894098308806064779
0.449000000000000232,-6.846597596135128860
0.450000000000000233,-6.798933154366008758
0.451000000000000234,-6.751106323750943439
0.452000000000000235,-6.703118840623529806
0.453000000000000236,-6.654972826254446083
0.454000000000000237,-6.606670775432982978
0.455000000000000238,-6.558215544808764896
0.456000000000000238,-6.509610341027031843
0.457000000000000239,-6.460858708689070973
0.458000000000000240,-6.411964518168330684
0.459000000000000241,-6.362931953310972055
0.460000000000000242,-6.313765499048616725
0.461000000000000243,-6.264469928949421451
0.462000000000000244,-6.215050292732577475
0.463000000000000245,-6.165511903769651525
0.464000000000000246,-6.115860326595489838
0.465000000000000246,-6.066101364449609790
0.466000000000000247,-6.016241046868243458
0.467000000000000248,-5.966285617345756798
0.468000000000000249,-5.916241521083273724
0.469000000000000250,-5.866115392841009246
0.470000000000000251,-5.815914044909932912
0.471000000000000252,-5.765644455217209696
0.472000000000000253,-5.715313755579064292
0.473000000000000254,-5.664929220113466002
0.474000000000000254,-5.614498253824393714
0.475000000000000255,-5.564028381368303577
0.476000000000000256,-5.513527236012713217
0.477000000000000257,-5.463002548795900637
0.478000000000000258,-5.412462137895909464
0.479000000000000259,-5.361913898216333685
0.480000000000000260,-5.311365791195564512
0.481000000000000261,-5.260825834845433313
0.482000000000000262,-5.210302094024641839
0.483000000000000262,-5.159802670951568082
0.484000000000000263,-5.109335695960444568
0.485000000000000264,-5.058909318504399621
0.486000000000000265,-5.008531698408207333
0.487000000000000266,-4.958210997372982654
0.488000000000000267,-4.907955370734724987
0.489000000000000268,-4.857772959477975050
0.490000000000000269,-4.807671882505403005
0.491000000000000270,-4.757660229163805710
0.492000000000000270,-4.707746052026409167
0.493000000000000271,-4.657937359931163535
0.494000000000000272,-4.608242111274210018
0.495000000000000273,-4.558668207557351693
0.496000000000000274,-4.509223487188199542
0.497000000000000275,-4.459915719531103662
0.498000000000000276,-4.410752599206876567
0.499000000000000277,-4.361741740639040188
0.500000000000000222,-4.312890672843902706
0.501000000000000334,-4.264206834461796269
0.502000000000000224,-4.215697569026399805
0.503000000000000336,-4.167370120468859795
0.504000000000000226,-4.119231628853512461
0.505000000000000338,-4.071289126341325115
0.506000000000000227,-4.023549533377710041
0.507000000000000339,-3.976019655100471617
0.508000000000000229,-3.928706177964219393
0.509000000000000341,-3.881615666576839097
0.510000000000000231,-3.834754560744182861
0.511000000000000343,-3.788129172718247784
0.512000000000000233,-3.741745684644887771
0.513000000000000345,-3.695610146206244728
0.514000000000000234,-3.649728472453793504
0.515000000000000346,-3.604106441826977481
0.516000000000000236,-3.558749694353350979
0.517000000000000348,-3.513663730025164966
0.518000000000000238,-3.468853907348128818
0.519000000000000350,-3.424325442057360114
0.520000000000000240,-3.380083405996144652
0.521000000000000352,-3.336132726152661654
0.522000000000000242,-3.292478183850125362
0.523000000000000353,-3.249124414085601043
0.524000000000000243,-3.206075905013002991
0.525000000000000355,-3.163336997565534769
0.526000000000000245,-3.120911885213175196
0.527000000000000357,-3.078804613850443683
0.528000000000000247,-3.037019081810235832
0.529000000000000359,-2.995559039998986428
0.530000000000000249,-2.954428092149014695
0.531000000000000361,-2.913629695183471480
0.532000000000000250,-2.873167159689811179
0.533000000000000362,-2.833043650497307997
0.534000000000000252,-2.793262187354655257
0.535000000000000364,-2.753825645703344538
0.536000000000000254,-2.714736757542947743
0.537000000000000366,-2.675998112384055716
0.538000000000000256,-2.637612158285306041
0.539000000000000368,-2.599581202970246530
0.540000000000000258,-2.561907415020653112
0.541000000000000369,-2.524592825142209840
0.542000000000000259,-2.487639327499287845
0.543000000000000371,-2.451048681114941008
0.544000000000000261,-2.414822511332876509
0.545000000000000373,-2.378962311337844859
0.546000000000000263,-2.343469443731254209
0.547000000000000375,-2.308345142158537922
0.548000000000000265,-2.273590512985462553
0.549000000000000377,-2.239206537019842180
0.550000000000000266,-2.205194071276057155
0.551000000000000378,-2.171553850779118111
0.552000000000000268,-2.138286490405644003
0.553000000000000380,-2.105392486758792092
0.554000000000000270,-2.072872220074615690
0.555000000000000382,-2.040725956157004806
0.556000000000000272,-2.008953848338911108
0.557000000000000384,-1.977555939467105173
0.558000000000000274,-1.946532163908339941
0.559000000000000385,-1.915882349574326238
0.560000000000000275,-1.885606219963518182
0.561000000000000387,-1.855703396217312617
0.562000000000000277,-1.826173399188696367
0.563000000000000389,-1.797015651521223889
0.564000000000000279,-1.768229479736413534
0.565000000000000391,-1.739814116327599081
0.566000000000000281,-1.711768701858466413
0.567000000000000393,-1.684092287064438365
0.568000000000000282,-1.656783834955333656
0.569000000000000394,-1.629842222917453398
0.570000000000000284,-1.603266244813785990
0.571000000000000396,-1.577054613080560941
0.572000000000000286,-1.551205960818954122
0.573000000000000398,-1.525718843880287334
0.574000000000000288,-1.500591742943649054
0.575000000000000400,-1.475823065584476845
0.576000000000000290,-1.451411148332992784
0.577000000000000401,-1.427354258721254654
0.578000000000000291,-1.403650597317794624
0.579000000000000403,-1.380298299748694335
0.580000000000000293,-1.357295438704207990
0.581000000000000405,-1.334640025929835883
0.582000000000000295,-1.312330014201114059
0.583000000000000407,-1.290363299281081844
0.584000000000000297,-1.268737721859773959
0.585000000000000409,-1.247451069474844410
0.586000000000000298,-1.226501078412719492
0.587000000000000410,-1.205885435589468369
0.588000000000000300,-1.185601780410894035
0.589000000000000412,-1.165647706611105061
0.590000000000000302,-1.146020764069132003
0.591000000000000414,-1.126718460603002514
0.592000000000000304,-1.107738263740807527
0.593000000000000416,-1.089077602468286443
0.594000000000000306,-1.070733868952596257
0.595000000000000417,-1.052704420241780792
0.596000000000000307,-1.034986579939672691
0.597000000000000419,-1.017577639855875793
0.598000000000000309,-1.000474861630582746
0.599000000000000421,-0.983675478333889353
0.600000000000000311,-0.967176696039511063
0.601000000000000423,-0.950975695372550667
0.602000000000000313,-0.935069633031310632
0.603000000000000425,-0.919455643282807378
0.604000000000000314,-0.904130839432108480
0.605000000000000426,-0.889092315265126110
0.606000000000000316,-0.874337146465048343
0.607000000000000428,-0.859862392002135545
0.608000000000000318,-0.845665095497034391
0.609000000000000430,-0.831742286557443977
0.610000000000000320,-0.818090982088272134
0.611000000000000432,-0.804708187575194467
0.612000000000000322,-0.791590898341763660
0.613000000000000433,-0.778736100780043405
0.614000000000000323,-0.766140773554915611
0.615000000000000435,-0.753801888782103080
0.616000000000000325,-0.741716413180051104
0.617000000000000437,-0.729881309195763217
0.618000000000000327,-0.718293536104769870
0.619000000000000439,-0.706950051085309616
0.620000000000000329,-0.695847810266970845
0.621000000000000441,-0.684983769753900851
0.622000000000000330,-0.674354886622801741
0.623000000000000442,-0.663958119895885490
0.624000000000000332,-0.653790431489019719
0.625000000000000444,-0.643848787135260281
0.626000000000000334,-0.634130157283997908
0.627000000000000446,-0.624631517975950623
0.628000000000000336,-0.615349851694250383
0.629000000000000448,-0.606282148191845338
0.630000000000000338,-0.597425405295523348
0.631000000000000449,-0.588776629686741715
0.632000000000000339,-0.580332837659603751
0.633000000000000451,-0.572091055856201125
0.634000000000000341,-0.564048321979625289
0.635000000000000453,-0.556201685484931874
0.636000000000000343,-0.548548208248302305
0.637000000000000455,-0.541084965214764901
0.638000000000000345,-0.533809045024704165
0.639000000000000457,-0.526717550619467234
0.640000000000000346,-0.519807599826409894
0.641000000000000458,-0.513076325923616738
0.642000000000000348,-0.506520878184660073
0.643000000000000460,-0.500138422403651917
0.644000000000000350,-0.493926141400950591
0.645000000000000462,-0.487881235509771360
0.646000000000000352,-0.482000923044067331
0.647000000000000464,-0.476282440747933244
0.648000000000000353,-0.470723044226919463
0.649000000000000465,-0.465320008361468140
0.650000000000000355,-0.460070627702891977
0.651000000000000467,-0.454972216852105649
0.652000000000000357,-0.450022110821506671
0.653000000000000469,-0.445217665380243655
0.654000000000000359,-0.440556257383252436
0.655000000000000471,-0.436035285084289903
0.656000000000000361,-0.431652168433359074
0.657000000000000473,-0.427404349358748881
0.658000000000000362,-0.423289292034070563
0.659000000000000474,-0.419304483130518435
0.660000000000000364,-0.415447432054738108
0.661000000000000476,-0.411715671172522613
