# Al2O3-001_CS-283071-AC
# h[nm],U(h)[kJ/mol]
0.149999999999999994,139.012993283585359450
0.150999999999999995,137.682091629425883639
0.151999999999999996,135.635430126640301296
0.152999999999999997,133.405730799925436258
0.153999999999999998,131.214039915784979939
0.154999999999999999,129.123529768954995234
0.156000000000000000,127.127206806997975264
0.157000000000000001,125.194945553878852706
0.158000000000000002,123.296316060452028296
0.159000000000000002,121.409661779410498639
0.160000000000000003,119.523899839019208002
0.161000000000000004,117.636914556580336466
0.162000000000000005,115.752749683157233562
0.163000000000000006,113.878764822770293108
0.164000000000000007,112.023293222234883615
0.165000000000000008,110.193976215164681776
0.166000000000000009,108.396755993187213107
0.167000000000000010,106.635417876254535940
0.168000000000000010,104.911543215932553608
0.169000000000000011,103.224737172447973421
0.170000000000000012,101.573014836699385910
0.171000000000000013,99.953254317649651739
0.172000000000000014,98.361650708858846315
0.173000000000000015,96.794127321386639551
0.174000000000000016,95.246678985674876117
0.175000000000000017,93.715636354584461287
0.176000000000000018,92.197850304216856898
0.177000000000000018,90.690802307171978214
0.178000000000000019,89.192650705374333597
0.179000000000000020,87.702224779215654848
0.180000000000000021,86.218978969043007510
0.181000000000000022,84.742919034517299792
0.182000000000000023,83.274510721936621849
0.183000000000000024,81.814579944663165634
0.184000000000000025,80.364211784511553560
0.185000000000000026,78.924653944328966304
0.186000000000000026,77.497228723710264831
0.187000000000000027,76.083256210050961954
0.188000000000000028,74.683990204927951595
0.189000000000000029,73.300567448395923975
0.190000000000000030,71.933969953658532859
0.191000000000000031,70.584999704730577719
0.192000000000000032,69.254264577792000068
0.193000000000000033,67.942174098198705678
0.194000000000000034,66.648943514553977252
0.195000000000000034,65.374604634995094443
0.196000000000000035,64.119021907105206992
0.197000000000000036,62.881912312339736104
0.198000000000000037,61.662867772018955748
0.199000000000000038,60.461378910970289269
0.200000000000000039,59.276859185593636425
0.201000000000000040,58.108668546622098461
0.202000000000000041,56.956135966420653460
0.203000000000000042,55.818580311390597615
0.204000000000000042,54.695329178537896553
0.205000000000000043,53.585735439410676406
0.206000000000000044,52.489191343311404125
0.207000000000000045,51.405140124653428302
0.208000000000000046,50.333085136870451493
0.209000000000000047,49.272596598157782921
0.210000000000000048,48.223316083596294845
0.211000000000000049,47.184958935144962311
0.212000000000000050,46.157314786953847374
0.213000000000000050,45.140246419858044646
0.214000000000000051,44.133687167144785235
0.215000000000000052,43.137637095079185201
0.216000000000000053,42.152158177470596456
0.217000000000000054,41.177368674907022239
0.218000000000000055,40.213436917208220223
0.219000000000000056,39.260574673063985074
0.220000000000000057,38.319030274521097112
0.221000000000000058,37.389081646652542190
0.222000000000000058,36.471029374945125312
0.223000000000000059,35.565189925164204965
0.224000000000000060,34.671889113068466770
0.225000000000000061,33.791455904661653165
0.226000000000000062,32.924216611906231833
0.227000000000000063,32.070489534154894784
0.228000000000000064,31.230580082089307581
0.229000000000000065,30.404776408757062001
0.230000000000000066,29.593345561397182308
0.231000000000000066,28.796530158133634814
0.232000000000000067,28.014545585270745676
0.233000000000000068,27.247577703790955894
0.234000000000000069,26.495781047673034436
0.235000000000000070,25.759277491742473387
0.236000000000000071,25.038155362853693475
0.237000000000000072,24.332468965198927435
0.238000000000000073,23.642238488355399539
0.239000000000000073,22.967450265233274820
0.240000000000000074,22.308057346282318179
0.241000000000000075,21.663980356079196810
0.242000000000000076,21.035108598666340640
0.243000000000000077,20.421301378674844074
0.244000000000000078,19.822389506271257176
0.245000000000000079,19.238176955255557488
0.246000000000000080,18.668442645150292947
0.247000000000000081,18.112942319803877922
0.248000000000000081,17.571410496841398441
0.249000000000000082,17.043562464190049610
0.250000000000000111,16.529096301848888118
0.251000000000000112,16.027694909032693005
0.252000000000000113,15.539028018768849648
0.253000000000000114,15.062754183945576969
0.254000000000000115,14.598522720675166653
0.255000000000000115,14.145975596637001104
0.256000000000000116,13.704749253785902141
0.257000000000000117,13.274476356444370850
0.258000000000000118,12.854787457335225653
0.259000000000000119,12.445312575548342693
0.260000000000000120,12.045682681769061873
0.261000000000000121,11.655531087326471251
0.262000000000000122,11.274494734744617830
0.263000000000000123,10.902215388503165627
0.264000000000000123,10.538340725635315209
0.265000000000000124,10.182525326616318040
0.266000000000000125,9.834431567726191759
0.267000000000000126,9.493730416712693909
0.268000000000000127,9.160102134136742791
0.269000000000000128,8.833236883260640937
0.270000000000000129,8.512835251741805109
0.271000000000000130,8.198608688727825111
0.272000000000000131,7.890279861218457924
0.273000000000000131,7.587582933769875915
0.274000000000000132,7.290263775773274446
0.275000000000000133,6.998080100647152690
0.276000000000000134,6.710801541345833066
0.277000000000000135,6.428209666611077289
0.278000000000000136,6.150097942381425931
0.279000000000000137,5.876271642732024070
0.280000000000000138,5.606547714647892811
0.281000000000000139,5.340754600840233124
0.282000000000000139,5.078732024702452108
0.283000000000000140,4.820330741371980920
0.284000000000000141,4.565412258719966587
0.285000000000000142,4.313848531935080999
0.286000000000000143,4.065521635202969719
0.287000000000000144,3.820323413811814284
0.288000000000000145,3.578155119837731490
0.289000000000000146,3.338927034385408721
0.290000000000000147,3.102558079178161510
0.291000000000000147,2.868975420111874453
0.292000000000000148,2.638114065207582293
0.293000000000000149,2.409916459221398632
0.294000000000000150,2.184332076996715166
0.295000000000000151,1.961317017474627722
0.296000000000000152,1.740833600114211510
0.297000000000000153,1.522849965315325571
0.298000000000000154,1.307339680283558625
0.299000000000000155,1.094281351630081556
0.300000000000000155,0.883658245858829128
0.301000000000000156,0.675457918760078546
0.302000000000000157,0.469671854602156547
0.303000000000000158,0.266295115893825096
0.304000000000000159,0.065326004376423913
0.305000000000000160,-0.133234266200867646
0.306000000000000161,-0.329381885068640412
0.307000000000000162,-0.523110746826264239
0.308000000000000163,-0.714412740956695047
0.309000000000000163,-0.903278028271034872
0.310000000000000164,-1.089695304160252842
0.311000000000000165,-1.273652048598718611
0.312000000000000166,-1.455134762905888834
0.313000000000000167,-1.634129193328438090
0.314000000000000168,-1.810620541555962415
0.315000000000000169,-1.984593662329040331
0.316000000000000170,-2.156033248339465302
0.317000000000000171,-2.324924002658719679
0.318000000000000171,-2.491250798962799884
0.319000000000000172,-2.654998829849944286
0.320000000000000173,-2.816153743571533141
0.321000000000000174,-2.974701769517540839
0.322000000000000175,-3.130629832815258862
0.323000000000000176,-3.283925658414216464
0.324000000000000177,-3.434577865041865685
0.325000000000000178,-3.582576049423243258
0.326000000000000179,-3.727910861164493550
0.327000000000000179,-3.870574068703950932
0.328000000000000180,-4.010558616736920712
0.329000000000000181,-4.147858675520394556
0.330000000000000182,-4.282469682462448191
0.331000000000000183,-4.414388376398331815
0.332000000000000184,-4.543612824950679752
0.333000000000000185,-4.670142445365861761
0.334000000000000186,-4.793978019211817099
0.335000000000000187,-4.915121701315060321
0.336000000000000187,-5.033577023306317066
0.337000000000000188,-5.149348892134621991
0.338000000000000189,-5.262443583900451749
0.339000000000000190,-5.372868733347974768
0.340000000000000191,-5.480633319345396437
0.341000000000000192,-5.585747646671945787
0.342000000000000193,-5.688223324418134830
0.343000000000000194,-5.788073241294776849
0.344000000000000195,-5.885311538134056164
0.345000000000000195,-5.979953577854861813
0.346000000000000196,-6.072015913152116084
0.347000000000000197,-6.161516252158564022
0.348000000000000198,-6.248473422315546699
0.349000000000000199,-6.332907332677740087
0.350000000000000200,-6.414838934865509934
0.351000000000000201,-6.494290182867172412
0.352000000000000202,-6.571283991882360453
0.353000000000000203,-6.645844196386994085
0.354000000000000203,-6.717995507589795245
0.355000000000000204,-6.787763470439655222
0.356000000000000205,-6.855174420333598917
0.357000000000000206,-6.920255439665117692
0.358000000000000207,-6.983034314343063542
0.359000000000000208,-7.043539490402496384
0.360000000000000209,-7.101800030819930498
0.361000000000000210,-7.157845572636841958
0.362000000000000210,-7.211706284487371832
0.363000000000000211,-7.263412824618138863
0.364000000000000212,-7.312996299480737150
0.365000000000000213,-7.360488222970158922
0.366000000000000214,-7.405920476375754902
0.367000000000000215,-7.449325269104468461
0.368000000000000216,-7.490735100230345722
0.369000000000000217,-7.530182720917878214
0.370000000000000218,-7.567701097761597495
0.371000000000000218,-7.603323377078680778
0.372000000000000219,-7.637082850186489580
0.373000000000000220,-7.669012919692294261
0.374000000000000221,-7.699147066817711327
0.375000000000000222,-7.727518819776326708
0.376000000000000223,-7.754161723219239022
0.377000000000000224,-7.779109308759176500
0.378000000000000225,-7.802395066580641192
0.379000000000000226,-7.824052418140259313
0.380000000000000226,-7.844114689958620268
0.381000000000000227,-7.862615088501767602
0.382000000000000228,-7.879586676148475632
0.383000000000000229,-7.895062348236507432
0.384000000000000230,-7.909074811179243270
0.385000000000000231,-7.921656561641972516
0.386000000000000232,-7.932839866765123205
0.387000000000000233,-7.942656745420388020
0.388000000000000234,-7.951138950483747081
0.389000000000000234,-7.958317952108508564
0.390000000000000235,-7.964224921979798921
0.391000000000000236,-7.968890718531196349
0.392000000000000237,-7.972345873103002134
0.393000000000000238,-7.974620577021019230
0.394000000000000239,-7.975744669573638923
0.395000000000000240,-7.975747626864830409
0.396000000000000241,-7.974658551519733685
0.397000000000000242,-7.972506163219307496
0.398000000000000242,-7.969318790040132328
0.399000000000000243,-7.965124360575083884
0.400000000000000244,-7.959950396810516970
0.401000000000000245,-7.953824007735503798
0.402000000000000246,-7.946771883658398039
0.403000000000000247,-7.938820291206316604
0.404000000000000248,-7.929995068982923279
0.405000000000000249,-7.920321623860201221
0.406000000000000250,-7.909824927879929746
0.407000000000000250,-7.898529515740873030
0.408000000000000251,-7.886459482847915758
0.409000000000000252,-7.873638483899647156
0.410000000000000253,-7.860089731991230622
0.411000000000000254,-7.845835998209745199
0.412000000000000255,-7.830899611699510210
0.413000000000000256,-7.815302460175461263
0.414000000000000257,-7.799065990862759534
0.415000000000000258,-7.782211211841679521
0.416000000000000258,-7.764758693776842691
0.417000000000000259,-7.746728572010667335
0.418000000000000260,-7.728140549001191850
0.419000000000000261,-7.709013897085023714
0.420000000000000262,-7.689367461546574134
0.421000000000000263,-7.669219663975427537
0.422000000000000264,-7.648588505893881617
0.423000000000000265,-7.627491572637579154
0.424000000000000266,-7.605946037472463672
0.425000000000000266,-7.583968665931751119
0.426000000000000267,-7.561575820357335331
0.427000000000000268,-7.538783464630388842
0.428000000000000269,-7.515607169076483629
0.429000000000000270,-7.492062115531109789
0.430000000000000271,-7.468163102551872434
0.431000000000000272,-7.443924550764312364
0.432000000000000273,-7.419360508328567860
0.433000000000000274,-7.394484656514807241
0.434000000000000274,-7.369310315375665610
0.435000000000000275,-7.343850449504481404
0.436000000000000276,-7.318117673868650641
0.437000000000000277,-7.292124259707600586
0.438000000000000278,-7.265882140485755869
0.439000000000000279,-7.239402917890933153
0.440000000000000280,-7.212697867869181323
0.441000000000000281,-7.185777946687524675
0.442000000000000282,-7.158653797016465425
0.443000000000000282,-7.131335754024381579
0.444000000000000283,-7.103833851476532679
0.445000000000000284,-7.076157827831634606
0.446000000000000285,-7.048317132329262158
0.447000000000000286,-7.020320931062050462
0.448000000000000287,-6.992178113026421116
0.449000000000000288,-6.963897296146551064
0.450000000000000289,-6.935486833266045537
0.451000000000000290,-6.906954818102514437
0.452000000000000290,-6.878309091160375033
0.453000000000000291,-6.849557245597386768
0.454000000000000292,-6.820706633041069722
0.455000000000000293,-6.791764369350945962
0.456000000000000294,-6.762737340323246471
0.457000000000000295,-6.733632207334761866
0.458000000000000296,-6.704455412922683877
0.459000000000000297,-6.675213186297829893
0.460000000000000298,-6.645911548788475898
0.461000000000000298,-6.616556319212580028
0.462000000000000299,-6.587153119176205607
0.463000000000000300,-6.557707378296123935
0.464000000000000301,-6.528224339344977700
0.465000000000000302,-6.498709063317332557
0.466000000000000303,-6.469166434415223321
0.467000000000000304,-6.439601164952035717
0.468000000000000305,-6.410017800173591240
0.469000000000000306,-6.380420722995512328
0.470000000000000306,-6.350814158656239883
0.471000000000000307,-6.321202179284822975
0.472000000000000308,-6.291588708383229367
0.473000000000000309,-6.261977525222702567
0.474000000000000310,-6.232372269153857225
0.475000000000000311,-6.202776443830471109
0.476000000000000312,-6.173193421346939935
0.477000000000000313,-6.143626446289376375
0.478000000000000314,-6.114078639700573525
0.479000000000000314,-6.084553002959151691
0.480000000000000315,-6.055052421573063448
0.481000000000000316,-6.025579668888086715
0.482000000000000317,-5.996137409711590927
0.483000000000000318,-5.966728203852307288
0.484000000000000319,-5.937354509576628914
0.485000000000000320,-5.908018686982187795
0.486000000000000321,-5.878723001289428041
0.487000000000000322,-5.849469626052014704
0.488000000000000322,-5.820260646286810058
0.489000000000000323,-5.791098061524524887
0.490000000000000324,-5.761983788781776639
0.491000000000000325,-5.732919665455644243
0.492000000000000326,-5.703907452141657508
0.493000000000000327,-5.674948835376376621
0.494000000000000328,-5.646045430305471235
0.495000000000000329,-5.617198783278577245
0.496000000000000330,-5.588410374371859390
0.497000000000000330,-5.559681619839640376
0.498000000000000331,-5.531013874495981142
0.499000000000000332,-5.502408434027709738
0.500000000000000333,-5.473866537239816310
0.501000000000000334,-5.445389368234511807
0.502000000000000335,-5.416978058525239170
0.503000000000000336,-5.388633689086708145
0.504000000000000337,-5.360357292342304625
0.505000000000000338,-5.332149854089993646
0.506000000000000338,-5.304012315368052732
0.507000000000000339,-5.275945574261756477
0.508000000000000340,-5.247950487652294882
0.509000000000000341,-5.220027872909225763
0.510000000000000342,-5.192178509527497710
0.511000000000000343,-5.164403140710459361
0.512000000000000344,-5.136702474899921711
0.513000000000000345,-5.109077187254560393
0.514000000000000346,-5.081527921077855225
0.515000000000000346,-5.054055289196684342
0.516000000000000347,-5.026659875291818125
0.517000000000000348,-4.999342235181503113
0.518000000000000349,-4.972102898059167941
0.519000000000000350,-4.944942367686569362
0.520000000000000351,-4.917861123543342039
0.521000000000000352,-4.890859621934241730
0.522000000000000353,-4.863938297054997584
0.523000000000000353,-4.837097562018018770
0.524000000000000354,-4.810337809839000833
0.525000000000000355,-4.783659414385404318
0.526000000000000356,-4.757062731287943436
0.527000000000000357,-4.730548098816127478
0.528000000000000358,-4.704115838718744058
0.529000000000000359,-4.677766257030459229
0.530000000000000360,-4.651499644845337400
0.531000000000000361,-4.625316279058389490
0.532000000000000361,-4.599216423076007310
0.533000000000000362,-4.573200327496250495
0.534000000000000363,-4.547268230759892838
0.535000000000000364,-4.521420359773117958
0.536000000000000365,-4.495656930502746285
0.537000000000000366,-4.469978148544882401
0.538000000000000367,-4.444384209667718189
0.539000000000000368,-4.418875300329526468
0.540000000000000369,-4.393451598172389616
0.541000000000000369,-4.368113272492715637
0.542000000000000370,-4.342860484689085254
0.543000000000000371,-4.317693388688372380
0.544000000000000372,-4.292612131350757920
0.545000000000000373,-4.267616852854432707
0.546000000000000374,-4.242707687060642385
0.547000000000000375,-4.217884761859781229
0.548000000000000376,-4.193148199499268536
0.549000000000000377,-4.168498116893756489
0.550000000000000377,-4.143934625918401338
0.551000000000000378,-4.119457833685755688
0.552000000000000379,-4.095067842806983549
0.553000000000000380,-4.070764751637872436
0.554000000000000381,-4.046548654510297993
0.555000000000000382,-4.022419641949744218
0.556000000000000383,-3.998377800879265642
0.557000000000000384,-3.974423214810651750
0.558000000000000385,-3.950555964023094724
0.559000000000000385,-3.926776125730012890
0.560000000000000386,-3.903083774234473502
0.561000000000000387,-3.879478981073676724
0.562000000000000388,-3.855961815152954220
0.563000000000000389,-3.832532342869811259
0.564000000000000390,-3.809190628228339648
0.565000000000000391,-3.785936732944502836
0.566000000000000392,-3.762770716542672922
0.567000000000000393,-3.739692636443840534
0.568000000000000393,-3.716702548045846211
0.569000000000000394,-3.693800504796021844
0.570000000000000395,-3.670986558256682741
0.571000000000000396,-3.648260758163630157
0.572000000000000397,-3.625623152478263389
0.573000000000000398,-3.603073787433384467
0.574000000000000399,-3.580612707573195941
0.575000000000000400,-3.558239955787680486
0.576000000000000401,-3.535955573341710956
0.577000000000000401,-3.513759599899230146
0.578000000000000402,-3.491652073542642398
0.579000000000000403,-3.469633030787796280
0.580000000000000404,-3.447702506594822580
0.581000000000000405,-3.425860534374975064
0.582000000000000406,-3.404107145993835903
0.583000000000000407,-3.382442371771014145
0.584000000000000408,-3.360866240476647615
0.585000000000000409,-3.339378779324872148
0.586000000000000409,-3.317980013964442865
0.587000000000000410,-3.296669968466811262
0.588000000000000411,-3.275448665311704310
0.589000000000000412,-3.254316125370527057
0.590000000000000413,-3.233272367887663368
0.591000000000000414,-3.212317410459890166
0.592000000000000415,-3.191451269014102810
0.593000000000000416,-3.170673957783407992
0.594000000000000417,-3.149985489281816875
0.595000000000000417,-3.129385874277728963
0.596000000000000418,-3.108875121766118799
0.597000000000000419,-3.088453238939903756
0.598000000000000420,-3.068120231160259337
0.599000000000000421,-3.047876101926290993
0.600000000000000422,-3.027720852843988730
0.601000000000000423,-3.007654483594665695
0.602000000000000424,-2.987676991902971757
0.603000000000000425,-2.967788373504561150
0.604000000000000425,-2.947988622113505652
0.605000000000000426,-2.928277729389574979
0.606000000000000427,-2.908655684905487426
0.607000000000000428,-2.889122476114056148
0.608000000000000429,-2.869678088315603226
0.609000000000000430,-2.850322504625363518
0.610000000000000431,-2.831055705941265987
0.611000000000000432,-2.811877670911923754
0.612000000000000433,-2.792788375905016274
0.613000000000000433,-2.773787794976091181
