# Al2O3-001_THEOBROMINE-AC
# h[nm],U(h)[kJ/mol]
0.200000000000000011,101.499088761342221687
0.201000000000000012,100.178902210904482217
0.202000000000000013,98.290891841188283706
0.203000000000000014,96.182744197357976645
0.204000000000000015,94.042516847552533932
0.205000000000000016,91.959167533896561508
0.206000000000000016,89.963254208657858157
0.207000000000000017,88.053609289521006076
0.208000000000000018,86.214234747180540808
0.209000000000000019,84.424498334096583108
0.210000000000000020,82.664842397869932711
0.211000000000000021,80.919573603831082664
0.212000000000000022,79.177829382041693407
0.213000000000000023,77.433472730672875173
0.214000000000000024,75.684418827556768861
0.215000000000000024,73.931720102865185140
0.216000000000000025,72.178612327168792717
0.217000000000000026,70.429638759693347083
0.218000000000000027,68.689911876268553215
0.219000000000000028,66.964534730583181954
0.220000000000000029,65.258180713157358355
0.221000000000000030,63.574817026344341286
0.222000000000000031,61.917550426978309019
0.223000000000000032,60.288571416098555744
0.224000000000000032,58.689173448789368592
0.225000000000000033,57.119825754376066129
0.226000000000000034,55.580281213591604228
0.227000000000000035,54.069703911015913889
0.228000000000000036,52.586804131748600355
0.229000000000000037,51.129971497595434471
0.230000000000000038,49.697399529345418046
0.231000000000000039,48.287197130275174572
0.232000000000000040,46.897484305527363802
0.233000000000000040,45.526470882072878510
0.234000000000000041,44.172518109164442990
0.235000000000000042,42.834183841508121304
0.236000000000000043,41.510252581102506042
0.237000000000000044,40.199752022102217097
0.238000000000000045,38.901957946392982990
0.239000000000000046,37.616389391924329288
0.240000000000000047,36.342795992682034978
0.241000000000000048,35.081139295256903665
0.242000000000000048,33.831569714503537227
0.243000000000000049,32.594400617861921887
0.244000000000000050,31.370080838904641496
0.245000000000000051,30.159166726677142378
0.246000000000000052,28.962294646788620867
0.247000000000000053,27.780154669003898960
0.248000000000000054,26.613466008416033048
0.249000000000000055,25.462954635729239783
0.250000000000000056,24.329333338122012265
0.251000000000000056,23.213284396018984523
0.252000000000000057,22.115444942601875766
0.253000000000000058,21.036394991245252584
0.254000000000000059,19.976648050127099765
0.255000000000000060,18.936644191673558169
0.256000000000000061,17.916745405756429932
0.257000000000000062,16.917233038136775036
0.258000000000000063,15.938307098012174379
0.259000000000000064,14.980087209213460042
0.260000000000000064,14.042614977227776407
0.261000000000000065,13.125857547527811420
0.262000000000000066,12.229712138502575769
0.263000000000000067,11.354011343588910066
0.264000000000000068,10.498529011081931372
0.265000000000000069,9.662986525772506496
0.266000000000000070,8.847059333350165033
0.267000000000000071,8.050383565850982137
0.268000000000000071,7.272562643858931253
0.269000000000000072,6.513173748303726640
0.270000000000000073,5.771774071240091786
0.271000000000000074,5.047906770712577540
0.272000000000000075,4.341106569535485349
0.273000000000000076,3.650904951433985524
0.274000000000000077,2.976834920424597186
0.275000000000000078,2.318435300526270115
0.276000000000000079,1.675254562881385301
0.277000000000000079,1.046854176146108983
0.278000000000000080,0.432811483624163162
0.279000000000000081,-0.167277882884914575
0.280000000000000082,-0.753798037102904828
0.281000000000000083,-1.327111300266218930
0.282000000000000084,-1.887557067636854713
0.283000000000000085,-2.435451053325062620
0.284000000000000086,-2.971084885212577742
0.285000000000000087,-3.494726020419518964
0.286000000000000087,-4.006617950999499911
0.287000000000000088,-4.506980669297774966
0.288000000000000089,-4.996011362598378192
0.289000000000000090,-5.473885307252496446
0.290000000000000091,-5.940756933358303016
0.291000000000000092,-6.396761032199878905
0.292000000000000093,-6.842014079993935738
0.293000000000000094,-7.276615652994844474
0.294000000000000095,-7.700649910627215711
0.295000000000000095,-8.114187125016238511
0.296000000000000096,-8.517285237033609846
0.297000000000000097,-8.909991420746425916
0.298000000000000098,-9.292343639920336074
0.299000000000000099,-9.664372181968506226
0.300000000000000100,-10.026101156434467754
0.301000000000000101,-10.377549946738623632
0.302000000000000102,-10.718734605489219192
0.303000000000000103,-11.049669185155540418
0.304000000000000103,-11.370366997310545898
0.305000000000000104,-11.680841794973243708
0.306000000000000105,-11.981108873810921267
0.307000000000000106,-12.271186089097321670
0.308000000000000107,-12.551094786365300848
0.309000000000000108,-12.820860644641161485
0.310000000000000109,-13.080514432005504233
0.311000000000000110,-13.330092673992613328
0.312000000000000111,-13.569638236023985556
0.313000000000000111,-13.799200821669881378
0.314000000000000112,-14.018837389055139653
0.315000000000000113,-14.228612488172293737
0.316000000000000114,-14.428598522243024860
0.317000000000000115,-14.618875936581332553
0.318000000000000116,-14.799533338664568660
0.319000000000000117,-14.970667553314905618
0.320000000000000118,-15.132383617039504742
0.321000000000000119,-15.284794715677083587
0.322000000000000119,-15.428022069555098028
0.323000000000000120,-15.562194770380902042
0.324000000000000121,-15.687449574075637670
0.325000000000000122,-15.803930653714385102
0.326000000000000123,-15.911789316664973981
0.327000000000000124,-16.011183689923591089
0.328000000000000125,-16.102278377531682452
0.329000000000000126,-16.185244093827634515
0.330000000000000127,-16.260257276142617400
0.331000000000000127,-16.327499680393895432
0.332000000000000128,-16.387157962864232985
0.333000000000000129,-16.439423251284441818
0.334000000000000130,-16.484490708159388106
0.335000000000000131,-16.522559089098884044
0.336000000000000132,-16.553830298732997051
0.337000000000000133,-16.578508946610970298
0.338000000000000134,-16.596801905302825730
0.339000000000000135,-16.608917872744861199
0.340000000000000135,-16.615066940696546993
0.341000000000000136,-16.615460171005487666
0.342000000000000137,-16.610309181212279839
0.343000000000000138,-16.599825740866556600
0.344000000000000139,-16.584221379772007054
0.345000000000000140,-16.563707009229908351
0.346000000000000141,-16.538492557209817591
0.347000000000000142,-16.508786618241426680
0.348000000000000143,-16.474796118694669644
0.349000000000000143,-16.436725997994429349
0.350000000000000144,-16.394778906203463009
0.351000000000000145,-16.349154918300804695
0.352000000000000146,-16.300051265384297494
0.353000000000000147,-16.247662082933526762
0.354000000000000148,-16.192178176184697236
0.355000000000000149,-16.133786802590059040
0.356000000000000150,-16.072671471262822251
0.357000000000000151,-16.009011759242660844
0.358000000000000151,-15.942983144357203429
0.359000000000000152,-15.874756854401027795
0.360000000000000153,-15.804499732305782089
0.361000000000000154,-15.732374116931609365
0.362000000000000155,-15.658537739072546202
0.363000000000000156,-15.583143632235508136
0.364000000000000157,-15.506340057723685177
0.365000000000000158,-15.428270443531493683
0.366000000000000159,-15.349073336537387036
0.367000000000000159,-15.268882367464829741
0.368000000000000160,-15.187826228068891155
0.369000000000000161,-15.106028659995843100
0.370000000000000162,-15.023608454756891106
0.371000000000000163,-14.940679464253477704
0.372000000000000164,-14.857350621289763026
0.373000000000000165,-14.773725969509817091
0.374000000000000166,-14.689904702199701347
0.375000000000000167,-14.605981209400132670
0.376000000000000167,-14.522045132782508858
0.377000000000000168,-14.438181427749430696
0.378000000000000169,-14.354470432231043020
0.379000000000000170,-14.270987941659734943
0.380000000000000171,-14.187805289618120597
0.381000000000000172,-14.104989433668501775
0.382000000000000173,-14.022603045886134154
0.383000000000000174,-13.940704607633719547
0.384000000000000175,-13.859348508129532007
0.385000000000000175,-13.778585146377901438
0.386000000000000176,-13.698461036046893469
0.387000000000000177,-13.619018912894294004
0.388000000000000178,-13.540297844360434709
0.389000000000000179,-13.462333340962308270
0.390000000000000180,-13.385157469141123698
0.391000000000000181,-13.308798965231764200
0.392000000000000182,-13.233283350239648968
0.393000000000000183,-13.158633045126810757
0.394000000000000183,-13.084867486325766350
0.395000000000000184,-13.012003241215637672
0.396000000000000185,-12.940054123310881451
0.397000000000000186,-12.869031306928729208
0.398000000000000187,-12.798943441116467312
0.399000000000000188,-12.729796762634595808
0.400000000000000189,-12.661595207806382035
0.401000000000000190,-12.594340523058258796
0.402000000000000191,-12.528032373989336890
0.403000000000000191,-12.462668452821086262
0.404000000000000192,-12.398244584091372644
0.405000000000000193,-12.334754828468884824
0.406000000000000194,-12.272191584576070511
0.407000000000000195,-12.210545688719820490
0.408000000000000196,-12.149806512439976558
0.409000000000000197,-12.089962057796219241
0.410000000000000198,-12.030999050323702093
0.411000000000000199,-11.972903029597128821
0.412000000000000199,-11.915658437352179888
0.413000000000000200,-11.859248703121469504
0.414000000000000201,-11.803656327350507738
0.415000000000000202,-11.748862961966477059
0.416000000000000203,-11.694849488380183899
0.417000000000000204,-11.641596092908098825
0.418000000000000205,-11.589082339607832850
0.419000000000000206,-11.537287240526456600
0.420000000000000207,-11.486189323366465587
0.421000000000000207,-11.435766696579836577
0.422000000000000208,-11.385997111904790913
0.423000000000000209,-11.336858024365254138
0.424000000000000210,-11.288326649756418973
0.425000000000000211,-11.240380019644080178
0.426000000000000212,-11.192995033908960778
0.427000000000000213,-11.146148510870180104
0.428000000000000214,-11.099817235025383866
0.429000000000000214,-11.053978002447387041
0.430000000000000215,-11.008607663879768523
0.431000000000000216,-10.963683165576103562
0.432000000000000217,-10.919181587929154276
0.433000000000000218,-10.875080181938354684
0.434000000000000219,-10.831356403565269630
0.435000000000000220,-10.787987946027993047
0.436000000000000221,-10.744952770086541705
0.437000000000000222,-10.702229132372195863
0.438000000000000222,-10.659795611814576688
0.439000000000000223,-10.617631134220697930
0.440000000000000224,-10.575714995060630841
0.441000000000000225,-10.534026880514867131
0.442000000000000226,-10.492546886838466591
0.443000000000000227,-10.451255538097035114
0.444000000000000228,-10.410133802329747610
0.445000000000000229,-10.369163106194127622
0.446000000000000230,-10.328325348147075147
0.447000000000000230,-10.287602910216381957
0.448000000000000231,-10.246978668416350189
0.449000000000000232,-10.206436001860449636
0.450000000000000233,-10.165958800623636549
0.451000000000000234,-10.125531472405935318
0.452000000000000235,-10.085138948048314234
0.453000000000000236,-10.044766685950902385
0.454000000000000237,-10.004400675443012148
0.455000000000000238,-9.964027439153102961
0.456000000000000238,-9.923634034426299877
0.457000000000000239,-9.883208053835762286
0.458000000000000240,-9.842737624833446830
0.459000000000000241,-9.802211408584488694
0.460000000000000242,-9.761618598028681149
0.461000000000000243,-9.720948915211161889
0.462000000000000244,-9.680192607923618908
0.463000000000000245,-9.639340445695740556
0.464000000000000246,-9.598383715176272091
0.465000000000000246,-9.557314214941127872
0.466000000000000247,-9.516124249765399057
0.467000000000000248,-9.474806624394828347
0.468000000000000249,-9.433354636851161601
0.469000000000000250,-9.391762071304743387
0.470000000000000251,-9.350023190546545848
0.471000000000000252,-9.308132728090711794
0.472000000000000253,-9.266085879937850933
0.473000000000000254,-9.223878296027704593
0.474000000000000254,-9.181506071409419434
0.475000000000000255,-9.138965737155942293
0.476000000000000256,-9.096254251048568662
0.477000000000000257,-9.053368988056321953
0.478000000000000258,-9.010307730633872580
0.479000000000000259,-8.967068658860867458
0.480000000000000260,-8.923650340444474693
0.481000000000000261,-8.880051720605894872
0.482000000000000262,-8.836272111870908219
0.483000000000000262,-8.792311183783407813
0.484000000000000263,-8.748168952560028799
0.485000000000000264,-8.703845770703212636
0.486000000000000265,-8.659342316589080824
0.487000000000000266,-8.614659584045689655
0.488000000000000267,-8.569798871936512796
0.489000000000000268,-8.524761773763160022
0.490000000000000269,-8.479550167300525132
0.491000000000000270,-8.434166204276975165
0.492000000000000270,-8.388612300111280007
0.493000000000000271,-8.342891123717496527
0.494000000000000272,-8.297005587388179393
0.495000000000000273,-8.250958836765672544
0.496000000000000274,-8.204754240910794749
0.497000000000000275,-8.158395382477257485
0.498000000000000276,-8.111886047999970373
0.499000000000000277,-8.065230218304524357
0.500000000000000222,-8.018432059044716453
0.501000000000000334,-7.971495911374502086
0.502000000000000224,-7.924426282760153484
0.503000000000000336,-7.877227837937903487
0.504000000000000226,-7.829905390022115164
0.505000000000000338,-7.782463891768142794
0.506000000000000227,-7.734908426994154595
0.507000000000000339,-7.687244202165222973
0.508000000000000229,-7.639476538143085804
0.509000000000000341,-7.591610862104134938
0.510000000000000231,-7.543652699628426106
0.511000000000000343,-7.495607666961356941
0.512000000000000233,-7.447481463450183803
0.513000000000000345,-7.399279864156478759
0.514000000000000234,-7.351008712646051713
0.515000000000000346,-7.302673913956749807
0.516000000000000236,-7.254281427745172373
0.517000000000000348,-7.205837261612261457
0.518000000000000238,-7.157347464608191601
0.519000000000000350,-7.108818120916107652
0.520000000000000240,-7.060255343714582743
0.521000000000000352,-7.011665269218136487
0.522000000000000242,-6.963054050895081559
0.523000000000000353,-6.914427853861714546
0.524000000000000243,-6.865792849451810120
0.525000000000000355,-6.817155209960070295
0.526000000000000245,-6.768521103558221341
0.527000000000000357,-6.719896689381974042
0.528000000000000247,-6.671288112787463476
0.529000000000000359,-6.622701500775022510
0.530000000000000249,-6.574142957578627211
0.531000000000000361,-6.525618560418751102
0.532000000000000250,-6.477134355416734657
0.533000000000000362,-6.428696353668172492
0.534000000000000252,-6.380310527473244342
0.535000000000000364,-6.331982806721481616
0.536000000000000254,-6.283719075428608747
0.537000000000000366,-6.235525168422759279
0.538000000000000256,-6.187406868177869335
0.539000000000000368,-6.139369901791146944
0.540000000000000258,-6.091419938102498044
0.541000000000000369,-6.043562584952672623
0.542000000000000259,-5.995803386577930105
0.543000000000000371,-5.948147821138013214
0.544000000000000261,-5.900601298375010018
0.545000000000000373,-5.853169157400062161
0.546000000000000263,-5.805856664605342665
0.547000000000000375,-5.758669011698144047
0.548000000000000265,-5.711611313854801253
0.549000000000000377,-5.664688607990939317
0.550000000000000266,-5.617905851145904350
0.551000000000000378,-5.571267918978016098
0.552000000000000268,-5.524779604368208474
0.553000000000000380,-5.478445616129016926
0.554000000000000270,-5.432270577816328050
0.555000000000000382,-5.386259026640883185
0.556000000000000272,-5.340415412477115709
0.557000000000000384,-5.294744096966188529
0.558000000000000274,-5.249249352710958050
0.559000000000000385,-5.203935362559760414
0.560000000000000275,-5.158806218976772939
0.561000000000000387,-5.113865923495964694
0.562000000000000277,-5.069118386256301179
0.563000000000000389,-5.024567425615479976
0.564000000000000279,-4.980216767839789505
0.565000000000000391,-4.936070046867444105
0.566000000000000281,-4.892130804143116407
0.567000000000000393,-4.848402488521015741
0.568000000000000282,-4.804888456234419181
0.569000000000000394,-4.761591970928924944
0.570000000000000284,-4.718516203757522121
0.571000000000000396,-4.675664233534831737
0.572000000000000286,-4.633039046948621120
0.573000000000000398,-4.590643538826046033
0.574000000000000288,-4.548480512452817592
0.575000000000000400,-4.506552679942901207
0.576000000000000290,-4.464862662656869929
0.577000000000000401,-4.423412991666714866
0.578000000000000291,-4.382206108265305211
0.579000000000000403,-4.341244364518360044
0.580000000000000293,-4.300530023857237261
0.581000000000000405,-4.260065261710403561
0.582000000000000295,-4.219852166172113783
0.583000000000000407,-4.179892738706149302
0.584000000000000297,-4.140188894883179316
0.585000000000000409,-4.100742465149833649
0.586000000000000298,-4.061555195628033132
0.587000000000000410,-4.022628748942695509
0.588000000000000300,-3.983964705076575630
0.589000000000000412,-3.945564562250345464
0.590000000000000302,-3.907429737826742411
0.591000000000000414,-3.869561569237110810
0.592000000000000304,-3.831961314929054563
0.593000000000000416,-3.794630155333673649
0.594000000000000306,-3.757569193851270306
0.595000000000000417,-3.720779457853973238
0.596000000000000307,-3.684261899704216692
0.597000000000000419,-3.648017397787712390
0.598000000000000309,-3.612046757559844057
0.599000000000000421,-3.576350712604173143
0.600000000000000311,-3.540929925702139602
0.601000000000000423,-3.505784989912632543
0.602000000000000313,-3.470916429660674485
0.603000000000000425,-3.436324701833827877
0.604000000000000314,-3.402010196885802085
0.605000000000000426,-3.367973239945803776
0.606000000000000316,-3.334214091933191959
0.607000000000000428,-3.300732950676138699
0.608000000000000318,-3.267529952033799923
0.609000000000000430,-3.234605171020829228
0.610000000000000320,-3.201958622933768428
0.611000000000000432,-3.169590264478221453
0.612000000000000322,-3.137499994896400857
0.613000000000000433,-3.105687657094018395
0.614000000000000323,-3.074153038766110235
0.615000000000000435,-3.042895873520934380
0.616000000000000325,-3.011915842001450905
0.617000000000000437,-2.981212573003662047
0.618000000000000327,-2.950785644591371604
0.619000000000000439,-2.920634585206625999
0.620000000000000329,-2.890758874775490650
0.621000000000000441,-2.861157945808525227
0.622000000000000330,-2.831831184495531062
0.623000000000000442,-2.802777931794055100
0.624000000000000332,-2.773997484511297795
0.625000000000000444,-2.745489096378878280
0.626000000000000334,-2.717251979120198335
0.627000000000000446,-2.689285303509872271
0.628000000000000336,-2.661588200424998440
0.629000000000000448,-2.634159761887818973
0.630000000000000338,-2.606999042099562569
0.631000000000000449,-2.580105058464991608
0.632000000000000339,-2.553476792607567880
0.633000000000000451,-2.527113191374787515
0.634000000000000341,-2.501013167833552764
0.635000000000000453,-2.475175602255258234
0.636000000000000343,-2.449599343090420156
0.637000000000000455,-2.424283207932599105
0.638000000000000345,-2.399225984471488715
0.639000000000000457,-2.374426431434847551
0.640000000000000346,-2.349883279519321633
0.641000000000000458,-2.325595232309757510
0.642000000000000348,-2.301560967187109785
0.643000000000000460,-2.277779136224565626
0.644000000000000350,-2.254248367072034576
0.645000000000000462,-2.230967263828618208
0.646000000000000352,-2.207934407903245244
0.647000000000000464,-2.185148358863105322
0.648000000000000353,-2.162607655270122109
0.649000000000000465,-2.140310815505043429
0.650000000000000355,-2.118256338579475262
0.651000000000000467,-2.096442704935459922
0.652000000000000357,-2.074868377232870653
0.653000000000000469,-2.053531801124326872
0.654000000000000359,-2.032431406017869868
0.655000000000000471,-2.011565605827131620
0.656000000000000361,-1.990932799709248302
0.657000000000000473,-1.970531372790276903
0.658000000000000362,-1.950359696878361415
0.659000000000000474,-1.930416131164464533
