# Al2O3-001_CHOL-AC
# h[nm],U(h)[kJ/mol]
0.200000000000000011,151.623091001752243301
0.201000000000000012,148.829329635405258614
0.202000000000000013,146.443724309872465028
0.203000000000000014,144.288387159096856749
0.204000000000000015,142.250536693056460535
0.205000000000000016,140.262489275522000298
0.206000000000000016,138.286969906822037046
0.207000000000000017,136.306490953870365956
0.208000000000000018,134.315812019045239367
0.209000000000000019,132.316708080701658901
0.210000000000000020,130.314445080719593761
0.211000000000000021,128.315499681858540271
0.212000000000000022,126.326169219075296724
0.213000000000000023,124.351804165872096064
0.214000000000000024,122.396463099404883224
0.215000000000000024,120.462842799838085739
0.216000000000000025,118.552376748134207674
0.217000000000000026,116.665426343004739351
0.218000000000000027,114.801512641953166849
0.219000000000000028,112.959553966486666354
0.220000000000000029,111.138087608149319863
0.221000000000000030,109.335463182137189619
0.222000000000000031,107.550001738636098025
0.223000000000000032,105.780119224724288074
0.224000000000000032,104.024415816458798645
0.225000000000000033,102.281734421996162610
0.226000000000000034,100.551192610581352938
0.227000000000000035,98.832192593577957496
0.228000000000000036,97.124413858330726157
0.229000000000000037,95.427792773129041848
0.230000000000000038,93.742493045028865595
0.231000000000000039,92.068870396606058648
0.232000000000000040,90.407434285776290039
0.233000000000000040,88.758808960826598877
0.234000000000000041,87.123695644338255306
0.235000000000000042,85.502837188924189604
0.236000000000000043,83.896986151983725222
0.237000000000000044,82.306876898416632571
0.238000000000000045,80.733202058475498575
0.239000000000000046,79.176593439471517399
0.240000000000000047,77.637607310289055818
0.241000000000000048,76.116713841294910026
0.242000000000000048,74.614290383619973568
0.243000000000000049,73.130618205370723217
0.244000000000000050,71.665882262773507705
0.245000000000000051,70.220173566623032002
0.246000000000000052,68.793493704254260024
0.247000000000000053,67.385761090621898006
0.248000000000000054,65.996818545528057598
0.249000000000000055,64.626441824653369395
0.250000000000000056,63.274348767356322298
0.251000000000000056,61.940208762179267410
0.252000000000000057,60.623652269997862163
0.253000000000000058,59.324280183476822970
0.254000000000000059,58.041672838946965385
0.255000000000000060,56.775398532263253060
0.256000000000000061,55.525021423111319052
0.257000000000000062,54.290108742264671093
0.258000000000000063,53.070237243261068727
0.259000000000000064,51.864998863792621364
0.260000000000000064,50.674005582811645354
0.261000000000000065,49.496893477039179743
0.262000000000000066,48.333325995370230999
0.263000000000000067,47.182996481792159216
0.264000000000000068,46.045629987078754652
0.265000000000000069,44.920984416919218063
0.266000000000000070,43.808851069529147537
0.267000000000000071,42.709054619392460950
0.268000000000000071,41.621452605836957162
0.269000000000000072,40.545934485861970131
0.270000000000000073,39.482420310223602655
0.271000000000000074,38.430859080430437302
0.272000000000000075,37.391226842185076862
0.273000000000000076,36.363524568084372390
0.274000000000000077,35.347775879203751970
0.275000000000000078,34.344024651666771319
0.276000000000000079,33.352332550550009671
0.277000000000000079,32.372776529589188499
0.278000000000000080,31.405446331221931189
0.279000000000000081,30.450442017588613908
0.280000000000000082,29.507871559278719076
0.281000000000000083,28.577848504897453097
0.282000000000000084,27.660489750978051404
0.283000000000000085,26.755913428404387133
0.284000000000000086,25.864236918357079276
0.285000000000000087,24.985575007873322306
0.286000000000000087,24.120038192418380874
0.287000000000000088,23.267731130414485818
0.288000000000000089,22.428751252458141607
0.289000000000000090,21.603187525975755534
0.290000000000000091,20.791119374316870960
0.291000000000000092,19.992615747749972854
0.292000000000000093,19.207734342504146241
0.293000000000000094,18.436520962874404006
0.294000000000000095,17.679009020469351299
0.295000000000000095,16.935219163911831686
0.296000000000000096,16.205159031696339866
0.297000000000000097,15.488823120443743875
0.298000000000000098,14.786192760464022200
0.299000000000000099,14.097236190326469796
0.300000000000000100,13.421908722032757311
0.301000000000000101,12.760152988376857408
0.302000000000000102,12.111899264150215672
0.303000000000000103,11.477065852992119233
0.304000000000000103,10.855559531893410607
0.305000000000000104,10.247276045617486062
0.306000000000000105,9.652100643603846564
0.307000000000000106,9.069908652254861536
0.308000000000000107,8.500566075869139482
0.309000000000000108,7.943930219869072218
0.310000000000000109,7.399850330367411466
0.311000000000000110,6.868168244527164568
0.312000000000000111,6.348719046578661818
0.313000000000000111,5.841331724771931633
0.314000000000000112,5.345829824949791309
0.315000000000000113,4.862032096829328687
0.316000000000000114,4.389753129471622550
0.317000000000000115,3.928803972800282374
0.318000000000000116,3.478992742395893067
0.319000000000000117,3.040125205145392862
0.320000000000000118,2.612005343660498191
0.321000000000000119,2.194435897696661364
0.322000000000000119,1.787218881104337243
0.323000000000000120,1.390156073125735414
0.324000000000000121,1.003049483112127049
0.325000000000000122,0.625701787981671531
0.326000000000000123,0.257916741962922580
0.327000000000000124,-0.100500441623732104
0.328000000000000125,-0.449742736604920368
0.329000000000000126,-0.790000978099461904
0.330000000000000127,-1.121463564301089733
0.331000000000000127,-1.444316185490415183
0.332000000000000128,-1.758741579744502515
0.333000000000000129,-2.064919314703595354
0.334000000000000130,-2.363025594659231565
0.335000000000000131,-2.653233092147087469
0.336000000000000132,-2.935710803157461690
0.337000000000000133,-3.210623925019550740
0.338000000000000134,-3.478133755968666030
0.339000000000000135,-3.738397615367794025
0.340000000000000135,-3.991568783528852471
0.341000000000000136,-4.237796460058528503
0.342000000000000137,-4.477225739643368563
0.343000000000000138,-4.709997604183821629
0.344000000000000139,-4.936248930190225259
0.345000000000000140,-5.156112510360875589
0.346000000000000141,-5.369717088276297012
0.347000000000000142,-5.577187405161298628
0.348000000000000143,-5.778644257688696051
0.349000000000000143,-5.974204565823766799
0.350000000000000144,-6.163981449737386598
0.351000000000000145,-6.348084314846438758
0.352000000000000146,-6.526618944074110473
0.353000000000000147,-6.699687596457084560
0.354000000000000148,-6.867389111263729085
0.355000000000000149,-7.029819016824744082
0.356000000000000150,-7.187069643316213785
0.357000000000000151,-7.339230238773916781
0.358000000000000151,-7.486387087657000450
0.359000000000000152,-7.628623631318200538
0.360000000000000153,-7.766020589777133054
0.361000000000000154,-7.898656084231310714
0.362000000000000155,-8.026605759778213667
0.363000000000000156,-8.149942907858953589
0.364000000000000157,-8.268738587970513976
0.365000000000000158,-8.383061748229998500
0.366000000000000159,-8.492979344408007947
0.367000000000000159,-8.598556457083013527
0.368000000000000160,-8.699856406600265046
0.369000000000000161,-8.796940865550523014
0.370000000000000162,-8.889869968513831822
0.371000000000000163,-8.978702418842260613
0.372000000000000164,-9.063495592283119962
0.373000000000000165,-9.144305637270162990
0.374000000000000166,-9.221187571735534050
0.375000000000000167,-9.294195376317906820
0.376000000000000167,-9.363382083865520400
0.377000000000000168,-9.428799865152909021
0.378000000000000169,-9.490500110750108576
0.379000000000000170,-9.548533509001476460
0.380000000000000171,-9.602950120088411978
0.381000000000000172,-9.653799446166090092
0.382000000000000173,-9.701130497579219636
0.383000000000000174,-9.744991855175618056
0.384000000000000175,-9.785431728748594793
0.385000000000000175,-9.822498011650926841
0.386000000000000176,-9.856238331633841554
0.387000000000000177,-9.886700097973269763
0.388000000000000178,-9.913930544955235291
0.389000000000000179,-9.937976771798876285
0.390000000000000180,-9.958885779103244573
0.391000000000000181,-9.976704501909743783
0.392000000000000182,-9.991479839477182878
0.393000000000000183,-10.003258681871340485
0.394000000000000183,-10.012087933474534296
0.395000000000000184,-10.018014533523977860
0.396000000000000185,-10.021085473790373399
0.397000000000000186,-10.021347813510134372
0.398000000000000187,-10.018848691686288888
0.399000000000000188,-10.013635336874093795
0.400000000000000189,-10.005755074567787233
0.401000000000000190,-9.995255332305399421
0.402000000000000191,-9.982183642607992624
0.403000000000000191,-9.966587643869157631
0.404000000000000192,-9.948515079309848019
0.405000000000000193,-9.928013794112018786
0.406000000000000194,-9.905131730843425686
0.407000000000000195,-9.879916923283927233
0.408000000000000196,-9.852417488761622266
0.409000000000000197,-9.822681619105102513
0.410000000000000198,-9.790757570315793856
0.411000000000000199,-9.756693651061391748
0.412000000000000199,-9.720538210089411990
0.413000000000000200,-9.682339622656446210
0.414000000000000201,-9.642146276066380750
0.415000000000000202,-9.600006554407370274
0.416000000000000203,-9.555968822574770982
0.417000000000000204,-9.510081409663833085
0.418000000000000205,-9.462392591813006959
0.419000000000000206,-9.412950574575571494
0.420000000000000207,-9.361803474893834576
0.421000000000000207,-9.308999302747633209
0.422000000000000208,-9.254585942544739652
0.423000000000000209,-9.198611134318708693
0.424000000000000210,-9.141122454795675978
0.425000000000000211,-9.082167298388933219
0.426000000000000212,-9.021792858177210661
0.427000000000000213,-8.960046106919024922
0.428000000000000214,-8.896973778153142831
0.429000000000000214,-8.832622347431744458
0.430000000000000215,-8.767038013730324764
0.431000000000000216,-8.700266681075657260
0.432000000000000217,-8.632353940430018469
0.433000000000000218,-8.563345051867614188
0.434000000000000219,-8.493284927076418356
0.435000000000000220,-8.422218112216169672
0.436000000000000221,-8.350188771160702572
0.437000000000000222,-8.277240669150563335
0.438000000000000222,-8.203417156879662997
0.439000000000000223,-8.128761155037267372
0.440000000000000224,-8.053315139324803695
0.441000000000000225,-7.977121125964569792
0.442000000000000226,-7.900220657716014117
0.443000000000000227,-7.822654790412618020
0.444000000000000228,-7.744464080031465691
0.445000000000000229,-7.665688570305145610
0.446000000000000230,-7.586367780884319068
0.447000000000000230,-7.506540696057856898
0.448000000000000231,-7.426245754035607938
0.449000000000000232,-7.345520836797541975
0.450000000000000233,-7.264403260512096949
0.451000000000000234,-7.182929766524426718
0.452000000000000235,-7.101136512915033450
0.453000000000000236,-7.019059066627188592
0.454000000000000237,-6.936732396161367831
0.455000000000000238,-6.854190864833080710
0.456000000000000238,-6.771468224590232232
0.457000000000000239,-6.688597610384796610
0.458000000000000240,-6.605611535093092179
0.459000000000000241,-6.522541884977788307
0.460000000000000242,-6.439419915684654327
0.461000000000000243,-6.356276248765695414
0.462000000000000244,-6.273140868720467722
0.463000000000000245,-6.190043120545936972
0.464000000000000246,-6.107011707785788168
0.465000000000000246,-6.024074691068640242
0.466000000000000247,-5.941259487124844973
0.467000000000000248,-5.858592868270898535
0.468000000000000249,-5.776100962350330548
0.469000000000000250,-5.693809253119423985
0.470000000000000251,-5.611742581066097912
0.471000000000000252,-5.529925144649826763
0.472000000000000253,-5.448380501950638610
0.473000000000000254,-5.367131572714550991
0.474000000000000254,-5.286200640783293991
0.475000000000000255,-5.205609356895478435
0.476000000000000256,-5.125378741846831510
0.477000000000000257,-5.045529189996684316
0.478000000000000258,-4.966080473108050342
0.479000000000000259,-4.887051744508683626
0.480000000000000260,-4.808461543560449414
0.481000000000000261,-4.730327800424272588
0.482000000000000262,-4.652667841108369728
0.483000000000000262,-4.575498392787162416
0.484000000000000263,-4.498835589378475497
0.485000000000000264,-4.422694977367005009
0.486000000000000265,-4.347091521861737640
0.487000000000000266,-4.272039612875468073
0.488000000000000267,-4.197553071814626335
0.489000000000000268,-4.123645158167808411
0.490000000000000269,-4.050328576381436285
0.491000000000000270,-3.977615482911495803
0.492000000000000270,-3.905517493440054722
0.493000000000000271,-3.834045690245917459
0.494000000000000272,-3.763210629718649614
0.495000000000000273,-3.693022350005503718
0.496000000000000274,-3.623490378781219157
0.497000000000000275,-3.554623741130501280
0.498000000000000276,-3.486430967533598935
0.499000000000000277,-3.418920101945416068
0.500000000000000222,-3.352098709958799994
0.501000000000000334,-3.285973887043145858
0.502000000000000224,-3.220552266849419532
0.503000000000000336,-3.155840029572979599
0.504000000000000226,-3.091842910366171981
0.505000000000000338,-3.028566207792219522
0.506000000000000227,-2.966014792313116377
0.507000000000000339,-2.904193114803420350
0.508000000000000229,-2.843105215083110870
0.509000000000000341,-2.782754730461976855
0.510000000000000231,-2.723144904289219514
0.511000000000000343,-2.664278594501089170
0.512000000000000233,-2.606158282160723427
0.513000000000000345,-2.548786079983617281
0.514000000000000234,-2.492163740843321929
0.515000000000000346,-2.436292666251098193
0.516000000000000236,-2.381173914804726177
0.517000000000000348,-2.326808210600734395
0.518000000000000238,-2.273195951605464948
0.519000000000000350,-2.220337217979847289
0.520000000000000240,-2.168231780353605753
0.521000000000000352,-2.116879108044397384
0.522000000000000242,-2.066278377217786844
0.523000000000000353,-2.016428478984062966
0.524000000000000243,-1.967328027428239867
0.525000000000000355,-1.918975367569591750
0.526000000000000245,-1.871368583247501105
0.527000000000000357,-1.824505504930209465
0.528000000000000247,-1.778383717443796641
0.529000000000000359,-1.733000567618224963
0.530000000000000249,-1.688353171848110845
0.531000000000000361,-1.644438423565512952
0.532000000000000250,-1.601253000622600897
0.533000000000000362,-1.558793372581893877
0.534000000000000252,-1.517055807912202514
0.535000000000000364,-1.476036381088326799
0.536000000000000254,-1.435730979592940493
0.537000000000000366,-1.396135310818855446
0.538000000000000256,-1.357244908870605782
0.539000000000000368,-1.319055141263658637
0.540000000000000258,-1.281561215520506947
0.541000000000000369,-1.244758185662183436
0.542000000000000259,-1.208640958594718429
0.543000000000000371,-1.173204300389358412
0.544000000000000261,-1.138442842456139470
0.545000000000000373,-1.104351087610099480
0.546000000000000263,-1.070923416029756714
0.547000000000000375,-1.038154091107303278
0.548000000000000265,-1.006037265190591334
0.549000000000000377,-0.974566985216298365
0.550000000000000266,-0.943737198234598340
0.551000000000000378,-0.913541756825041018
0.552000000000000268,-0.883974424403887959
0.553000000000000380,-0.855028880423003179
0.554000000000000270,-0.826698725460615291
0.555000000000000382,-0.798977486204090925
0.556000000000000272,-0.771858620325389544
0.557000000000000384,-0.745335521249292698
0.558000000000000274,-0.719401522815306449
0.559000000000000385,-0.694049903833430237
0.560000000000000275,-0.669273892534766324
0.561000000000000387,-0.645066670917407103
0.562000000000000277,-0.621421378988442408
0.563000000000000389,-0.598331118902889036
0.564000000000000279,-0.575788959000342881
0.565000000000000391,-0.553787937740210068
0.566000000000000281,-0.532321067536492665
0.567000000000000393,-0.511381338493018811
0.568000000000000282,-0.490961722040213711
0.569000000000000394,-0.471055174474278804
0.570000000000000284,-0.451654640400016294
0.571000000000000396,-0.432753056078234888
0.572000000000000286,-0.414343352679018284
0.573000000000000398,-0.396418459441773896
0.574000000000000288,-0.378971306743456082
0.575000000000000400,-0.361994829076034585
0.576000000000000290,-0.345481967934401446
0.577000000000000401,-0.329425674616005359
0.578000000000000291,-0.313818912933420013
0.579000000000000403,-0.298654661841089741
0.580000000000000293,-0.283925917977577102
0.581000000000000405,-0.269625698124508317
0.582000000000000295,-0.255747041583622159
0.583000000000000407,-0.242283012473099024
0.584000000000000297,-0.229226701944560796
0.585000000000000409,-0.216571230322050751
0.586000000000000298,-0.204309749164253873
0.587000000000000410,-0.192435443251359611
0.588000000000000300,-0.180941532497834651
0.589000000000000412,-0.169821273792426147
0.590000000000000302,-0.159067962766754167
0.591000000000000414,-0.148674935493858879
0.592000000000000304,-0.138635570117885576
0.593000000000000416,-0.128943288416357993
0.594000000000000306,-0.119591557296348405
0.595000000000000417,-0.110573890225760252
0.596000000000000307,-0.101883848601113686
0.597000000000000419,-0.093515043053138139
0.598000000000000309,-0.085461134691432197
0.599000000000000421,-0.077715836289437373
0.600000000000000311,-0.070272913411134758
0.601000000000000423,-0.063126185480583658
0.602000000000000313,-0.056269526795688793
0.603000000000000425,-0.049696867487305507
0.604000000000000314,-0.043402194425133309
0.605000000000000426,-0.037379552071368359
0.606000000000000316,-0.031623043283555009
0.607000000000000428,-0.026126830067701511
0.608000000000000318,-0.020885134282949025
0.609000000000000430,-0.015892238298874962
0.610000000000000320,-0.011142485606709274
0.611000000000000432,-0.006630281385528525
0.612000000000000322,-0.002350093024602496
0.613000000000000433,0.001703549396947546
0.614000000000000323,0.005536052672129266
0.615000000000000435,0.009152760068532028
0.616000000000000325,0.012558950970232120
0.617000000000000437,0.015759840558031101
0.618000000000000327,0.018760579526970699
0.619000000000000439,0.021566253840149631
0.620000000000000329,0.024181884517734776
0.621000000000000441,0.026612427460178979
0.622000000000000330,0.028862773304716538
0.623000000000000442,0.030937747314035757
0.624000000000000332,0.032842109296312018
0.625000000000000444,0.034580553555489148
0.626000000000000334,0.036157708871037572
0.627000000000000446,0.037578138506146219
0.628000000000000336,0.038846340243531771
0.629000000000000448,0.039966746447914314
0.630000000000000338,0.040943724154353787
0.631000000000000449,0.041781575181514305
0.632000000000000339,0.042484536269124608
0.633000000000000451,0.043056779238683320
0.634000000000000341,0.043502411176726617
0.635000000000000453,0.043825474639730098
0.636000000000000343,0.044029947880047507
0.637000000000000455,0.044119745091910856
0.638000000000000345,0.044098716676923069
0.639000000000000457,0.043970649528225228
0.640000000000000346,0.043739267332617640
0.641000000000000458,0.043408230889980845
0.642000000000000348,0.042981138449260901
0.643000000000000460,0.042461526060363949
0.644000000000000350,0.041852867941327053
0.645000000000000462,0.041158576860054863
0.646000000000000352,0.040382004530076121
0.647000000000000464,0.039526442019642907
0.648000000000000353,0.038595120173572674
0.649000000000000465,0.037591210047291421
0.650000000000000355,0.036517823352451260
0.651000000000000467,0.035378012913597191
0.652000000000000357,0.034174773135299354
0.653000000000000469,0.032911040479258122
0.654000000000000359,0.031589693950814055
0.655000000000000471,0.030213555594414854
0.656000000000000361,0.028785390997453454
0.657000000000000473,0.027307909802094122
0.658000000000000362,0.025783766224521630
0.659000000000000474,0.024215559581236314
0.660000000000000364,0.022605834821867999
0.661000000000000476,0.020957083068140349
0.662000000000000366,0.019271742158526582
0.663000000000000478,0.017552197198163054
0.664000000000000368,0.015800781113691632
