# Al2O3-001_ATRAZINE-AC
# h[nm],U(h)[kJ/mol]
0.149999999999999994,152.291449004808413292
0.150999999999999995,150.063506418808685794
0.151999999999999996,147.810847273209986952
0.152999999999999997,145.549542930904834748
0.153999999999999998,143.288416345210862346
0.154999999999999999,141.033565429908463784
0.156000000000000000,138.790433640233743517
0.157000000000000001,136.564517453210982012
0.158000000000000002,134.361385278399296794
0.159000000000000002,132.186408864686256948
0.160000000000000003,130.044431759143520821
0.161000000000000004,127.939488455845548742
0.162000000000000005,125.874620705476715443
0.163000000000000006,123.851798955290206550
0.164000000000000007,121.871936736358605913
0.165000000000000008,119.934977039846558000
0.166000000000000009,118.040027686872605273
0.167000000000000010,116.185524369612764417
0.168000000000000010,114.369403499392575441
0.169000000000000011,112.589271060227062549
0.170000000000000012,110.842557648465088960
0.171000000000000013,109.126653418251521543
0.172000000000000014,107.439019590048332020
0.173000000000000015,105.777275481281321845
0.174000000000000016,104.139261721130424121
0.175000000000000017,102.523081488758663227
0.176000000000000018,100.927122353495022367
0.177000000000000018,99.350061685443705528
0.178000000000000019,97.790858728110862330
0.179000000000000020,96.248736353186629344
0.180000000000000021,94.723155312349078372
0.181000000000000022,93.213783511097773271
0.182000000000000023,91.720462493802600079
0.183000000000000024,90.243172976612399339
0.184000000000000025,88.782000916917382938
0.185000000000000026,87.337105279463742136
0.186000000000000026,85.908688359510122723
0.187000000000000027,84.496969258040138584
0.188000000000000028,83.102160875359999181
0.189000000000000029,81.724450597508592864
0.190000000000000030,80.363984693288756489
0.191000000000000031,79.020856315833540862
0.192000000000000032,77.695096908264915214
0.193000000000000033,76.386670744659880938
0.194000000000000034,75.095472291620126271
0.195000000000000034,73.821326048727115676
0.196000000000000035,72.563988514731263990
0.197000000000000036,71.323151927431496233
0.198000000000000037,70.098449436102654886
0.199000000000000038,68.889461383616946932
0.200000000000000039,67.695722399000018754
0.201000000000000040,66.516729028291663894
0.202000000000000041,65.351947660774058591
0.203000000000000042,64.200822537687869840
0.204000000000000042,63.062783660507953698
0.205000000000000043,61.937254444958945498
0.206000000000000044,60.823658994642798348
0.207000000000000045,59.721428894025464729
0.208000000000000046,58.630009444314524103
0.209000000000000047,57.548865287288037962
0.210000000000000048,56.477485381336393289
0.211000000000000049,55.415387310850995561
0.212000000000000050,54.362120924686578860
0.213000000000000050,53.317271311839647296
0.214000000000000051,52.280461132842752647
0.215000000000000052,51.251352333826559970
0.216000000000000053,50.229647276906405295
0.217000000000000054,49.215089325673510245
0.218000000000000055,48.207462928283689507
0.219000000000000056,47.206593243103746715
0.220000000000000057,46.212345353253247993
0.221000000000000058,45.224623116829235414
0.222000000000000058,44.243367699251649583
0.223000000000000059,43.268555833164683122
0.224000000000000060,42.300197849782257720
0.225000000000000061,41.338335523591396736
0.226000000000000062,40.383039770018726244
0.227000000000000063,39.434408233111312825
0.228000000000000064,38.492562797560829324
0.229000000000000065,37.557647056570665711
0.230000000000000066,36.629823764193766067
0.231000000000000066,35.709272297894216308
0.232000000000000067,34.796186154255579481
0.233000000000000068,33.890770498000748034
0.234000000000000069,32.993239781832507163
0.235000000000000070,32.103815452069163427
0.236000000000000071,31.222723752653660512
0.237000000000000072,30.350193637865267249
0.238000000000000073,29.486454801972286077
0.239000000000000073,28.631735832133603736
0.240000000000000074,27.786262489086009708
0.241000000000000075,26.950256118547667228
0.242000000000000076,26.123932194817047758
0.243000000000000077,25.307498996749792752
0.244000000000000078,24.501156415146869705
0.245000000000000079,23.705094889578937511
0.246000000000000080,22.919494471797897006
0.247000000000000081,22.144524012135651247
0.248000000000000081,21.380340464659401079
0.249000000000000082,20.627088306328424494
0.250000000000000111,19.884899064974302263
0.251000000000000112,19.153890950594949061
0.252000000000000113,18.434168584203952435
0.253000000000000114,17.725822818305609019
0.254000000000000115,17.028930642959757336
0.255000000000000115,16.343555171357014189
0.256000000000000116,15.669745698833949632
0.257000000000000117,15.007537829313218225
0.258000000000000118,14.356953663251250219
0.259000000000000119,13.718002041307361338
0.260000000000000120,13.090678838109351290
0.261000000000000121,12.474967300677580084
0.262000000000000122,11.870838426275392763
0.263000000000000123,11.278251374677310537
0.264000000000000123,10.697153910081183881
0.265000000000000124,10.127482868135468053
0.266000000000000125,9.569164643803670600
0.267000000000000126,9.022115696042295241
0.268000000000000127,8.486243065524018192
0.269000000000000128,7.961444901893304227
0.270000000000000129,7.447610997293187651
0.271000000000000130,6.944623323150016958
0.272000000000000131,6.452356567445681534
0.273000000000000131,5.970678669942200756
0.274000000000000132,5.499451353052242197
0.275000000000000133,5.038530646268712943
0.276000000000000134,4.587767402277378892
0.277000000000000135,4.147007803079023169
0.278000000000000136,3.716093854638492733
0.279000000000000137,3.294863868760462999
0.280000000000000138,2.883152931064263402
0.281000000000000139,2.480793354090999880
0.282000000000000139,2.087615114729190591
0.283000000000000140,1.703446275286307765
0.284000000000000141,1.328113387666580936
0.285000000000000142,0.961441880237643431
0.286000000000000143,0.603256427082400015
0.287000000000000144,0.253381299437103635
0.288000000000000145,-0.088359300788079770
0.289000000000000146,-0.422140925421256696
0.290000000000000147,-0.748138582310452493
0.291000000000000147,-1.066526455338552060
0.292000000000000148,-1.377477641971530442
0.293000000000000149,-1.681163908081155345
0.294000000000000150,-1.977755459732865262
0.295000000000000151,-2.267420731583554616
0.296000000000000152,-2.550326191495000394
0.297000000000000153,-2.826636160934026698
0.298000000000000154,-3.096512650701762848
0.299000000000000155,-3.360115211509684396
0.300000000000000155,-3.617600798900043824
0.301000000000000156,-3.869123651991995594
0.302000000000000157,-4.114835185522787597
0.303000000000000158,-4.354883894643738707
0.304000000000000159,-4.589415271925364692
0.305000000000000160,-4.818571736022508212
0.306000000000000161,-5.042492571450177152
0.307000000000000162,-5.261313878922488918
0.308000000000000163,-5.475168535711077311
0.309000000000000163,-5.684186165485143327
0.310000000000000164,-5.888493117102880703
0.311000000000000165,-6.088212451833003414
0.312000000000000166,-6.283463938495426504
0.313000000000000167,-6.474364056021421732
0.314000000000000168,-6.661026002946238478
0.315000000000000169,-6.843559713360127361
0.316000000000000170,-7.022071878858019645
0.317000000000000171,-7.196665976042202928
0.318000000000000171,-7.367442299147486828
0.319000000000000172,-7.534497997373925671
0.320000000000000173,-7.697927116527244706
0.321000000000000174,-7.857820644583145331
0.322000000000000175,-8.014266560807635997
0.323000000000000176,-8.167349888080890352
0.324000000000000177,-8.317152748088560088
0.325000000000000178,-8.463754419059490886
0.326000000000000179,-8.607231395744964431
0.327000000000000179,-8.747657451349367008
0.328000000000000180,-8.885103701137483156
0.329000000000000181,-9.019638667458544035
0.330000000000000182,-9.151328345941239562
0.331000000000000183,-9.280236272628446415
0.332000000000000184,-9.406423591833888764
0.333000000000000185,-9.529949124516431169
0.334000000000000186,-9.650869436980702432
0.335000000000000187,-9.769238909725240561
0.336000000000000187,-9.885109806271714206
0.337000000000000188,-9.998532341819942104
0.338000000000000189,-10.109554751585482890
0.339000000000000190,-10.218223358686820745
0.340000000000000191,-10.324582641459729260
0.341000000000000192,-10.428675300086538869
0.342000000000000193,-10.530542322437341340
0.343000000000000194,-10.630223049029590143
0.344000000000000195,-10.727755237020648593
0.345000000000000195,-10.823175123157053434
0.346000000000000196,-10.916517485611093363
0.347000000000000197,-11.007815704643578059
0.348000000000000198,-11.097101822038377250
0.349000000000000199,-11.184406599260922732
0.350000000000000200,-11.269759574299605731
0.351000000000000201,-11.353189117154453669
0.352000000000000202,-11.434722483943513538
0.353000000000000203,-11.514385869602341117
0.354000000000000203,-11.592204459157253282
0.355000000000000204,-11.668202477557242602
0.356000000000000205,-11.742403238054148318
0.357000000000000206,-11.814829189124665731
0.358000000000000207,-11.885501959931190186
0.359000000000000208,-11.954442404322447757
0.360000000000000209,-12.021670643377934340
0.361000000000000210,-12.087206106502893732
0.362000000000000210,-12.151067571083835617
0.363000000000000211,-12.213273200716603384
0.364000000000000212,-12.273840582021794177
0.365000000000000213,-12.332786760063978448
0.366000000000000214,-12.390128272393445386
0.367000000000000215,-12.445881181730751308
0.368000000000000216,-12.500061107316030373
0.369000000000000217,-12.552683254946176206
0.370000000000000218,-12.603762445724644436
0.371000000000000218,-12.653313143549246078
0.372000000000000219,-12.701349481364669458
0.373000000000000220,-12.747885286207095490
0.374000000000000221,-12.792934103068967389
0.375000000000000222,-12.836509217612450229
0.376000000000000223,-12.878623677761131816
0.377000000000000224,-12.919290314199084690
0.378000000000000225,-12.958521759807377194
0.379000000000000226,-12.996330468067901265
0.380000000000000226,-13.032728730464882005
0.381000000000000227,-13.067728692913940236
0.382000000000000228,-13.101342371249222296
0.383000000000000229,-13.133581665798384819
0.384000000000000230,-13.164458375075446028
0.385000000000000231,-13.193984208621378329
0.386000000000000232,-13.222170799021602861
0.387000000000000233,-13.249029713129861108
0.388000000000000234,-13.274572462526979422
0.389000000000000234,-13.298810513243315867
0.390000000000000235,-13.321755294772561484
0.391000000000000236,-13.343418208404774106
0.392000000000000237,-13.363810634905547658
0.393000000000000238,-13.382943941568152368
0.394000000000000239,-13.400829488664504296
0.395000000000000240,-13.417478635320776448
0.396000000000000241,-13.432902744842550646
0.397000000000000242,-13.447113189513927978
0.398000000000000242,-13.460121354894699408
0.399000000000000243,-13.471938643638557309
0.400000000000000244,-13.482576478855410329
0.401000000000000245,-13.492046307039668562
0.402000000000000246,-13.500359600586142150
0.403000000000000247,-13.507527859914398860
0.404000000000000248,-13.513562615222031837
0.405000000000000249,-13.518475427886377460
0.406000000000000250,-13.522277891533946104
0.407000000000000250,-13.524981632795995523
0.408000000000000251,-13.526598311768273319
0.409000000000000252,-13.527139622192148494
0.410000000000000253,-13.526617291374009255
0.411000000000000254,-13.525043079859074169
0.412000000000000255,-13.522428780875170418
0.413000000000000256,-13.518786219561707895
0.414000000000000257,-13.514127251998178991
0.415000000000000258,-13.508463764046263478
0.416000000000000258,-13.501807670018990848
0.417000000000000259,-13.494170911189783624
0.418000000000000260,-13.485565454153908505
0.419000000000000261,-13.476003289054167666
0.420000000000000262,-13.465496427682257519
0.421000000000000263,-13.454056901466788787
0.422000000000000264,-13.441696759358364943
0.423000000000000265,-13.428428065621764276
0.424000000000000266,-13.414262897544904973
0.425000000000000266,-13.399213343073506977
0.426000000000000267,-13.383291498380398110
0.427000000000000268,-13.366509465377683696
0.428000000000000269,-13.348879349179622267
0.429000000000000270,-13.330413255523913207
0.430000000000000271,-13.311123288158295708
0.431000000000000272,-13.291021546199550230
0.432000000000000273,-13.270120121471062902
0.433000000000000274,-13.248431095825230486
0.434000000000000274,-13.225966538456365384
0.435000000000000275,-13.202738503209621612
0.436000000000000276,-13.178759025891045198
0.437000000000000277,-13.154040121583573608
0.438000000000000278,-13.128593781973540544
0.439000000000000279,-13.102431972692070161
0.440000000000000280,-13.075566630675149682
0.441000000000000281,-13.048009661546341675
0.442000000000000282,-13.019772937025596349
0.443000000000000282,-12.990868292367258263
0.444000000000000283,-12.961307523830637223
0.445000000000000284,-12.931102386185603592
0.446000000000000285,-12.900264590256043107
0.447000000000000286,-12.868805800503594128
0.448000000000000287,-12.836737632653647978
0.449000000000000288,-12.804071651365976692
0.450000000000000289,-12.770819367951494527
0.451000000000000290,-12.736992238137073485
0.452000000000000290,-12.702601659879899643
0.453000000000000291,-12.667658971232562237
0.454000000000000292,-12.632175448260337447
0.455000000000000293,-12.596162303011524841
0.456000000000000294,-12.559630681541909425
0.457000000000000295,-12.522591661994153966
0.458000000000000296,-12.485056252732654514
0.459000000000000297,-12.447035390534724186
0.460000000000000298,-12.408539938838234917
0.461000000000000298,-12.369580686046376172
0.462000000000000299,-12.330168343889599925
0.463000000000000300,-12.290313545844934850
0.464000000000000301,-12.250026845612920212
0.465000000000000302,-12.209318715651928500
0.466000000000000303,-12.168199545769926573
0.467000000000000304,-12.126679641773568719
0.468000000000000305,-12.084769224174205959
0.469000000000000306,-12.042478426950719239
0.470000000000000306,-11.999817296368794572
0.471000000000000307,-11.956795789856069945
0.472000000000000308,-11.913423774932898169
0.473000000000000309,-11.869711028198139502
0.474000000000000310,-11.825667234369367620
0.475000000000000311,-11.781301985376941843
0.476000000000000312,-11.736624779511393157
0.477000000000000313,-11.691645020623250062
0.478000000000000314,-11.646372017374746477
0.479000000000000314,-11.600814982542702936
0.480000000000000315,-11.554983032371568541
0.481000000000000316,-11.508885185976202692
0.482000000000000317,-11.462530364793231286
0.483000000000000318,-11.415927392080316594
0.484000000000000319,-11.369084992462486383
0.485000000000000320,-11.322011791524554170
0.486000000000000321,-11.274716315448861437
0.487000000000000322,-11.227206990697322198
0.488000000000000322,-11.179492143736888821
0.489000000000000323,-11.131580000807623776
0.490000000000000324,-11.083478687732297274
0.491000000000000325,-11.035196229766658149
0.492000000000000326,-10.986740551489369011
0.493000000000000327,-10.938119476730829405
0.494000000000000328,-10.889340728539686154
0.495000000000000329,-10.840411929186327455
0.496000000000000330,-10.791340600202214972
0.497000000000000330,-10.742134162454345159
0.498000000000000331,-10.692799936253559068
0.499000000000000332,-10.643345141496151740
0.500000000000000333,-10.593776897837580364
0.501000000000000334,-10.544102224897370590
0.502000000000000335,-10.494328042494446507
0.503000000000000336,-10.444461170911813142
0.504000000000000337,-10.394508331189781458
0.505000000000000338,-10.344476145446776627
0.506000000000000338,-10.294371137226884017
0.507000000000000339,-10.244199731873242953
0.508000000000000340,-10.193968256926343230
0.509000000000000341,-10.143682942546586645
0.510000000000000342,-10.093349921959930526
0.511000000000000343,-10.042975231926115853
0.512000000000000344,-9.992564813228376863
0.513000000000000345,-9.942124511183990876
0.514000000000000346,-9.891660076174865424
0.515000000000000346,-9.841177164197233651
0.516000000000000347,-9.790681337429809616
0.517000000000000348,-9.740178064819669856
0.518000000000000349,-9.689672722684909090
0.519000000000000350,-9.639170595333634850
0.520000000000000351,-9.588676875698263657
0.521000000000000352,-9.538196665984694178
0.522000000000000353,-9.487734978335456759
0.523000000000000353,-9.437296735506205181
0.524000000000000354,-9.386886771555015940
0.525000000000000355,-9.336509832543629983
0.526000000000000356,-9.286170577250143054
0.527000000000000357,-9.235873577892517616
0.528000000000000358,-9.185623320862147168
0.529000000000000359,-9.135424207467155000
0.530000000000000360,-9.085280554684514343
0.531000000000000361,-9.035196595920718110
0.532000000000000361,-8.985176481780200675
0.533000000000000362,-8.935224280841140398
0.534000000000000363,-8.885343980438017653
0.535000000000000364,-8.835539487450432716
0.536000000000000365,-8.785814629097696837
0.537000000000000366,-8.736173153738707953
0.538000000000000367,-8.686618731676524874
0.539000000000000368,-8.637154955967433878
0.540000000000000369,-8.587785343233695912
0.541000000000000369,-8.538513334479908679
0.542000000000000370,-8.489342295912226888
0.543000000000000371,-8.440275519760250589
0.544000000000000372,-8.391316225101073556
0.545000000000000373,-8.342467558685154216
0.546000000000000374,-8.293732595763554372
0.547000000000000375,-8.245114340916241957
0.548000000000000376,-8.196615728881102569
0.549000000000000377,-8.148239625383279616
0.550000000000000377,-8.099988827964521576
0.551000000000000378,-8.051866066812184641
0.552000000000000379,-8.003874005587670482
0.553000000000000380,-7.956015242253886122
0.554000000000000381,-7.908292309901443495
0.555000000000000382,-7.860707677573488539
0.556000000000000383,-7.813263751088529219
0.557000000000000384,-7.765962873861466775
0.558000000000000385,-7.718807327722133849
0.559000000000000385,-7.671799333731374126
0.560000000000000386,-7.624941052994373081
0.561000000000000387,-7.578234587470921824
0.562000000000000388,-7.531681980782487074
0.563000000000000389,-7.485285219015873182
0.564000000000000390,-7.439046231523223973
0.565000000000000391,-7.392966891718214306
0.566000000000000392,-7.347049017868224396
0.567000000000000393,-7.301294373882387667
0.568000000000000393,-7.255704670095207476
0.569000000000000394,-7.210281564045668112
0.570000000000000395,-7.165026661251802764
0.571000000000000396,-7.119941515980251268
0.572000000000000397,-7.075027632011037682
0.573000000000000398,-7.030286463397156460
0.574000000000000399,-6.985719415219010742
0.575000000000000400,-6.941327844333462060
0.576000000000000401,-6.897113060117450622
0.577000000000000401,-6.853076325206134634
0.578000000000000402,-6.809218856225233374
0.579000000000000403,-6.765541824517718794
0.580000000000000404,-6.722046356864677996
0.581000000000000405,-6.678733536200157417
0.582000000000000406,-6.635604402320099737
0.583000000000000407,-6.592659952585113281
0.584000000000000408,-6.549901142617164496
0.585000000000000409,-6.507328886990026540
0.586000000000000409,-6.464944059913409369
0.587000000000000410,-6.422747495910866355
0.588000000000000411,-6.380739990491195002
0.589000000000000412,-6.338922300813537802
0.590000000000000413,-6.297295146345905259
0.591000000000000414,-6.255859209517252495
0.592000000000000415,-6.214615136363043746
0.593000000000000416,-6.173563537164165282
0.594000000000000417,-6.132704987079273806
0.595000000000000417,-6.092040026770644268
0.596000000000000418,-6.051569163023127196
0.597000000000000419,-6.011292869356744006
0.598000000000000420,-5.971211586632369617
0.599000000000000421,-5.931325723650917148
0.600000000000000422,-5.891635657745730725
0.601000000000000423,-5.852141735368340036
0.602000000000000424,-5.812844272667534007
0.603000000000000425,-5.773743556061727844
0.604000000000000425,-5.734839842804658971
0.605000000000000426,-5.696133361544402085
0.606000000000000427,-5.657624312875800143
0.607000000000000428,-5.619312869886057271
0.608000000000000429,-5.581199178693951879
