# Al2O3-001_TANNIC-ARM-NEUTRAL-AC
# h[nm],U(h)[kJ/mol]
0.149999999999999994,157.383950113063121989
0.150999999999999995,155.339173945587873504
0.151999999999999996,152.358668431079621541
0.152999999999999997,149.262316663693610508
0.153999999999999998,146.315952856963946260
0.154999999999999999,143.543797239625746442
0.156000000000000000,140.888718017599273935
0.157000000000000001,138.286174437936693948
0.158000000000000002,135.691778564616328140
0.159000000000000002,133.085949380969680078
0.160000000000000003,130.468876476508512496
0.161000000000000004,127.852778637436898634
0.162000000000000005,125.254779103200547752
0.163000000000000006,122.691663087988672487
0.164000000000000007,120.176708017586094002
0.165000000000000008,117.718280698543054541
0.166000000000000009,115.319725063676443710
0.167000000000000010,112.980063587168586992
0.168000000000000010,110.695112393256977157
0.169000000000000011,108.458712007023493129
0.170000000000000012,106.263874965081498658
0.171000000000000013,104.103735397906163485
0.172000000000000014,101.972250076265225971
0.173000000000000015,99.864645748062997654
0.174000000000000016,97.777636527086457363
0.175000000000000017,95.709451044850268886
0.176000000000000018,93.659715440032556444
0.177000000000000018,91.629238036681158519
0.178000000000000019,89.619737202731386105
0.179000000000000020,87.633547267746038756
0.180000000000000021,85.673329880986216267
0.181000000000000022,83.741810741496038872
0.182000000000000023,81.841554818676314653
0.183000000000000024,79.974787330434040200
0.184000000000000025,78.143262992382275911
0.185000000000000026,76.348182401740842806
0.186000000000000026,74.590151796516039440
0.187000000000000027,72.869180709605046786
0.188000000000000028,71.184711072146683364
0.189000000000000029,69.535670960099608351
0.190000000000000030,67.920546279515065180
0.191000000000000031,66.337464120553974567
0.192000000000000032,64.784282167179100043
0.193000000000000033,63.258679336883538724
0.194000000000000034,61.758243669655897179
0.195000000000000034,60.280554331600868068
0.196000000000000035,58.823255405337079083
0.197000000000000036,57.384119878455365438
0.198000000000000037,55.961102895538182622
0.199000000000000038,54.552383899584654614
0.200000000000000039,53.156397752776726406
0.201000000000000040,51.771855296828107384
0.202000000000000041,50.397754095568146226
0.203000000000000042,49.033380305061221804
0.204000000000000042,47.678302748863657712
0.205000000000000043,46.332360347956196733
0.206000000000000044,44.995644076425598712
0.207000000000000045,43.668474594677363143
0.208000000000000046,42.351376660724227463
0.209000000000000047,41.045051344945292726
0.210000000000000048,39.750346981732882057
0.211000000000000049,38.468229688747030082
0.212000000000000050,37.199754176221738078
0.213000000000000050,35.946035459148049540
0.214000000000000051,34.708221977571511729
0.215000000000000052,33.487470527310428281
0.216000000000000053,32.284923307064858022
0.217000000000000054,31.101687299502998485
0.218000000000000055,29.938816124339240332
0.219000000000000056,28.797294431105051160
0.220000000000000057,27.678024838359124971
0.221000000000000058,26.581817374338335469
0.222000000000000058,25.509381331133067050
0.223000000000000059,24.461319409872963604
0.224000000000000060,23.438124007493883028
0.225000000000000061,22.440175475733337151
0.226000000000000062,21.467742169334645297
0.227000000000000063,20.520982092287681553
0.228000000000000064,19.599945947563995219
0.229000000000000065,18.704581396506107183
0.230000000000000066,17.834738338141356451
0.231000000000000066,16.990175025580068535
0.232000000000000067,16.170564845760004857
0.233000000000000068,15.375503599592082793
0.234000000000000069,14.604517131587281042
0.235000000000000070,13.857069170892771126
0.236000000000000071,13.132569258984721827
0.237000000000000072,12.430380652750230297
0.238000000000000073,11.749828105089651586
0.239000000000000073,11.090205438271356186
0.240000000000000074,10.450782837899424749
0.241000000000000075,9.830813807382801528
0.242000000000000076,9.229541734114746987
0.243000000000000077,8.646206029112320834
0.244000000000000078,8.080047811579706973
0.245000000000000079,7.530315118717429534
0.246000000000000080,6.996267629094704787
0.247000000000000081,6.477180895038503472
0.248000000000000081,5.972350085791736873
0.249000000000000082,5.481093248681313312
0.250000000000000111,5.002754100251559422
0.251000000000000112,4.536704363303654119
0.252000000000000113,4.082345669081503203
0.253000000000000114,3.639111046513511472
0.254000000000000115,3.206466022502554747
0.255000000000000115,2.783909358812380219
0.256000000000000116,2.370973452172754126
0.257000000000000117,1.967224424872918487
0.258000000000000118,1.572261933380527221
0.259000000000000119,1.185718722457071328
0.260000000000000120,0.807259951886676541
0.261000000000000121,0.436582322334763517
0.262000000000000122,0.073413026043470969
0.263000000000000123,-0.282491452909379326
0.264000000000000123,-0.631346665181685363
0.265000000000000124,-0.973341627190990599
0.266000000000000125,-1.308640335524446252
0.267000000000000126,-1.637383345036047988
0.268000000000000127,-1.959689392337280678
0.269000000000000128,-2.275657047807408517
0.270000000000000129,-2.585366380671133335
0.271000000000000130,-2.888880623097934475
0.272000000000000131,-3.186247820657181595
0.273000000000000131,-3.477502457806224356
0.274000000000000132,-3.762667048385677671
0.275000000000000133,-4.041753682341080456
0.276000000000000134,-4.314765521076587618
0.277000000000000135,-4.581698234970092543
0.278000000000000136,-4.842541377638862166
0.279000000000000137,-5.097279692535868101
0.280000000000000138,-5.345894348380269001
0.281000000000000139,-5.588364100780715660
0.282000000000000139,-5.824666378196199368
0.283000000000000140,-6.054778291099356835
0.284000000000000141,-6.278677563860716404
0.285000000000000142,-6.496343389463189233
0.286000000000000143,-6.707757207685422607
0.287000000000000144,-6.912903407862776461
0.288000000000000145,-7.111769957750139426
0.289000000000000146,-7.304348960371447319
0.290000000000000147,-7.490637141053504422
0.291000000000000147,-7.670636267105665596
0.292000000000000148,-7.844353502828869118
0.293000000000000149,-8.011801702717226803
0.294000000000000150,-8.172999645858791240
0.295000000000000151,-8.327972214650346316
0.296000000000000152,-8.476750521017732964
0.297000000000000153,-8.619371983381372004
0.298000000000000154,-8.755880357628500477
0.299000000000000155,-8.886325725352332228
0.300000000000000155,-9.010764442595998958
0.301000000000000156,-9.129259052298067445
0.302000000000000157,-9.241878163579720251
0.303000000000000158,-9.348696300941757187
0.304000000000000159,-9.449793726356535473
0.305000000000000160,-9.545256237145409273
0.306000000000000161,-9.635174942429948430
0.307000000000000162,-9.719646020835137179
0.308000000000000163,-9.798770462007210469
0.309000000000000163,-9.872653794388792647
0.310000000000000164,-9.941405801571082890
0.311000000000000165,-10.005140229417285980
0.312000000000000166,-10.063974486025596633
0.313000000000000167,-10.118029336473169266
0.314000000000000168,-10.167428594156746158
0.315000000000000169,-10.212298810420817219
0.316000000000000170,-10.252768964041756306
0.317000000000000171,-10.288970152015446402
0.318000000000000171,-10.321035282978900938
0.319000000000000172,-10.349098774482081708
0.320000000000000173,-10.373296255215466388
0.321000000000000174,-10.393764273192184433
0.322000000000000175,-10.410640010781230913
0.323000000000000176,-10.424061007389573419
0.324000000000000177,-10.434164890497561018
0.325000000000000178,-10.441089115662039788
0.326000000000000179,-10.444970716017465406
0.327000000000000179,-10.445946061724475484
0.328000000000000180,-10.444150629739796798
0.329000000000000181,-10.439718784210699098
0.330000000000000182,-10.432783567729568830
0.331000000000000183,-10.423476503623058775
0.332000000000000184,-10.411927409391264376
0.333000000000000185,-10.398264221359308834
0.334000000000000186,-10.382612830553812344
0.335000000000000187,-10.365096929770889034
0.336000000000000187,-10.345837871760849680
0.337000000000000188,-10.324954538415937577
0.338000000000000189,-10.302563220813432565
0.339000000000000190,-10.278777509934815981
0.340000000000000191,-10.253708197853386608
0.341000000000000192,-10.227463189158422452
0.342000000000000193,-10.200147422361000693
0.343000000000000194,-10.171862801008209942
0.344000000000000195,-10.142708134214654336
0.345000000000000195,-10.112779086307067899
0.346000000000000196,-10.082168135264803155
0.347000000000000197,-10.050964539629827499
0.348000000000000198,-10.019254313551719804
0.349000000000000199,-9.987120209627223133
0.350000000000000200,-9.954641709189903764
0.351000000000000201,-9.921895019702517970
0.352000000000000202,-9.888953078903851335
0.353000000000000203,-9.855885565361905520
0.354000000000000203,-9.822758915086827969
0.355000000000000204,-9.789636343859491774
0.356000000000000205,-9.756577874935386419
0.357000000000000206,-9.723640371788219383
0.358000000000000207,-9.690877575562533153
0.359000000000000208,-9.658340146911388757
0.360000000000000209,-9.626075711901716403
0.361000000000000210,-9.594128911677222149
0.362000000000000210,-9.562541455576978322
0.363000000000000211,-9.531352177415829630
0.364000000000000212,-9.500597094641825890
0.365000000000000213,-9.470309470094537829
0.366000000000000214,-9.440519876097750895
0.367000000000000215,-9.411256260629205173
0.368000000000000216,-9.382544015320014807
0.369000000000000217,-9.354406045045706719
0.370000000000000218,-9.326862838881066153
0.371000000000000218,-9.299932542200378904
0.372000000000000219,-9.273631029714735519
0.373000000000000220,-9.247971979247738616
0.374000000000000221,-9.222966946060598303
0.375000000000000222,-9.198625437547050865
0.376000000000000223,-9.174954988128440903
0.377000000000000224,-9.151961234187925953
0.378000000000000225,-9.129647988892566346
0.379000000000000226,-9.108017316760481208
0.380000000000000226,-9.087069607839447727
0.381000000000000227,-9.066803651371435180
0.382000000000000228,-9.047216708826312015
0.383000000000000229,-9.028304586195687875
0.384000000000000230,-9.010061705445918889
0.385000000000000231,-8.992481175036916241
0.386000000000000232,-8.975554859420562082
0.387000000000000233,-8.959273447439917604
0.388000000000000234,-8.943626519556939769
0.389000000000000234,-8.928602613843397151
0.390000000000000235,-8.914189290675521349
0.391000000000000236,-8.900373196079582883
0.392000000000000237,-8.887140123680763892
0.393000000000000238,-8.874475075213883457
0.394000000000000239,-8.862362319559323964
0.395000000000000240,-8.850785450272940835
0.396000000000000241,-8.839727441583308476
0.397000000000000242,-8.829170702834403528
0.398000000000000242,-8.819097131356068431
0.399000000000000243,-8.809488163748724787
0.400000000000000244,-8.800324825572696241
0.401000000000000245,-8.791587779436275341
0.402000000000000246,-8.783257371479850306
0.403000000000000247,-8.775313676256917717
0.404000000000000248,-8.767736540015757640
0.405000000000000249,-8.760505622388340186
0.406000000000000250,-8.753600436495675652
0.407000000000000250,-8.747000387481472572
0.408000000000000251,-8.740684809487968110
0.409000000000000252,-8.734633001090220006
0.410000000000000253,-8.728824259206854563
0.411000000000000254,-8.723237911507265352
0.412000000000000255,-8.717853347336694370
0.413000000000000256,-8.712650047182471269
0.414000000000000257,-8.707607610705554890
0.415000000000000258,-8.702705783363326120
0.416000000000000258,-8.697924481650156636
0.417000000000000259,-8.693243816983681427
0.418000000000000260,-8.688644118265298033
0.419000000000000261,-8.684105953144337420
0.420000000000000262,-8.679610148015882487
0.421000000000000263,-8.675137806783000727
0.422000000000000264,-8.670670328414198380
0.423000000000000265,-8.666189423327802288
0.424000000000000266,-8.661677128634918787
0.425000000000000266,-8.657115822272876571
0.426000000000000267,-8.652488236061342874
0.427000000000000268,-8.647777467713318345
0.428000000000000269,-8.642966991833096913
0.429000000000000270,-8.638040669933458204
0.430000000000000271,-8.632982759504033154
0.431000000000000272,-8.627777922162817248
0.432000000000000273,-8.622411230922420344
0.433000000000000274,-8.616868176602491047
0.434000000000000274,-8.611134673419552854
0.435000000000000275,-8.605197063784791212
0.436000000000000276,-8.599042122340538441
0.437000000000000277,-8.592657059265174979
0.438000000000000278,-8.586029522876239994
0.439000000000000279,-8.579147601560798364
0.440000000000000280,-8.571999825061736189
0.441000000000000281,-8.564575165148067271
0.442000000000000282,-8.556863035697039876
0.443000000000000282,-8.548853292214909416
0.444000000000000283,-8.540536230823070341
0.445000000000000284,-8.531902586735446548
0.446000000000000285,-8.522943532252458709
0.447000000000000286,-8.513650674296535215
0.448000000000000287,-8.504016051513145769
0.449000000000000288,-8.494032130961121752
0.450000000000000289,-8.483691804415141036
0.451000000000000290,-8.472988384302800213
0.452000000000000290,-8.461915599298071911
0.453000000000000291,-8.450467589592205897
0.454000000000000292,-8.438638901862677955
0.455000000000000293,-8.426424483960136769
0.456000000000000294,-8.413819679332588564
0.457000000000000295,-8.400820221205634653
0.458000000000000296,-8.387422226536758174
0.459000000000000297,-8.373622189761324108
0.460000000000000298,-8.359416976347104011
0.461000000000000298,-8.344803816173754996
0.462000000000000299,-8.329780296752977264
0.463000000000000300,-8.314344356304578909
0.464000000000000301,-8.298494276703113570
0.465000000000000302,-8.282228676309156157
0.466000000000000303,-8.265546502698791542
0.467000000000000304,-8.248447025304342262
0.468000000000000305,-8.230929827978828328
0.469000000000000306,-8.212994801496122932
0.470000000000000306,-8.194642135998412513
0.471000000000000307,-8.175872313401701064
0.472000000000000308,-8.156686099770217524
0.473000000000000309,-8.137084537669462492
0.474000000000000310,-8.117068938507651765
0.475000000000000311,-8.096640874874630356
0.476000000000000312,-8.075802172887014407
0.477000000000000313,-8.054554904547760685
0.478000000000000314,-8.032901380128034674
0.479000000000000314,-8.010844140578932127
0.480000000000000315,-7.988385949979958767
0.481000000000000316,-7.965529788031100011
0.482000000000000317,-7.942278842594676647
0.483000000000000318,-7.918636502293018964
0.484000000000000319,-7.894606349167501591
0.485000000000000320,-7.870192151404275194
0.486000000000000321,-7.845397856131556935
0.487000000000000322,-7.820227582293178159
0.488000000000000322,-7.794685613602584162
0.489000000000000323,-7.768776391581512897
0.490000000000000324,-7.742504508686860909
0.491000000000000325,-7.715874701529344293
0.492000000000000326,-7.688891844187081048
0.493000000000000327,-7.661560941617080900
0.494000000000000328,-7.633887123167246713
0.495000000000000329,-7.605875636191482769
0.496000000000000330,-7.577531839769934940
0.497000000000000330,-7.548861198536613415
0.498000000000000331,-7.519869276615899878
0.499000000000000332,-7.490561731669816758
0.500000000000000333,-7.460944309057279789
0.501000000000000334,-7.431022836106551566
0.502000000000000335,-7.400803216502000126
0.503000000000000336,-7.370291424786006296
0.504000000000000337,-7.339493500976668194
0.505000000000000338,-7.308415545301889082
0.506000000000000338,-7.277063713050266003
0.507000000000000339,-7.245444209538963953
0.508000000000000340,-7.213563285198731023
0.509000000000000341,-7.181427230776138870
0.510000000000000342,-7.149042372652708366
0.511000000000000343,-7.116415068280906198
0.512000000000000344,-7.083551701736466200
0.513000000000000345,-7.050458679386709449
0.514000000000000346,-7.017142425674289363
0.515000000000000346,-6.983609379015599750
0.516000000000000347,-6.949865987813268475
0.517000000000000348,-6.915918706581841491
0.518000000000000349,-6.881773992185711286
0.519000000000000350,-6.847438300188460225
0.520000000000000351,-6.812918081312425045
0.521000000000000352,-6.778219778007551710
0.522000000000000353,-6.743349821128215460
0.523000000000000353,-6.708314626716896711
0.524000000000000354,-6.673120592893494241
0.525000000000000355,-6.637774096848803040
0.526000000000000356,-6.602281491940962255
0.527000000000000357,-6.566649104893416578
0.528000000000000358,-6.530883233092940721
0.529000000000000359,-6.494990141986332510
0.530000000000000360,-6.458976062574189214
0.531000000000000361,-6.422847189000338020
0.532000000000000361,-6.386609676235329935
0.533000000000000362,-6.350269637852430371
0.534000000000000363,-6.313833143894544087
0.535000000000000364,-6.277306218830467799
0.536000000000000365,-6.240694839598836197
0.537000000000000366,-6.204004933738195504
0.538000000000000367,-6.167242377601451331
0.539000000000000368,-6.130412994653245740
0.540000000000000369,-6.093522553848354839
0.541000000000000369,-6.056576768089763085
0.542000000000000370,-6.019581292764450531
0.543000000000000371,-5.982541724355498580
0.544000000000000372,-5.945463599128703258
0.545000000000000373,-5.908352391892151445
0.546000000000000374,-5.871213514827029911
0.547000000000000375,-5.834052316388090631
0.548000000000000376,-5.796874080272159446
0.549000000000000377,-5.759684024453022744
0.550000000000000377,-5.722487300281096978
0.551000000000000378,-5.685288991646280543
0.552000000000000379,-5.648094114202463878
0.553000000000000380,-5.610907614652020037
0.554000000000000381,-5.573734370088764933
0.555000000000000382,-5.536579187397942192
0.556000000000000383,-5.499446802711461579
0.557000000000000384,-5.462341880917189307
0.558000000000000385,-5.425269015220496094
0.559000000000000385,-5.388232726756822188
0.560000000000000386,-5.351237464253651765
0.561000000000000387,-5.314287603740523558
0.562000000000000388,-5.277387448305622009
0.563000000000000389,-5.240541227897590915
0.564000000000000390,-5.203753099171121832
0.565000000000000391,-5.167027145375012509
0.566000000000000392,-5.130367376281333769
0.567000000000000393,-5.093777728154380569
0.568000000000000393,-5.057262063758104276
0.569000000000000394,-5.020824172400716989
0.570000000000000395,-4.984467770015363897
0.571000000000000396,-4.948196499275336890
0.572000000000000397,-4.912013929742954588
0.573000000000000398,-4.875923558050635265
0.574000000000000399,-4.839928808113187486
0.575000000000000400,-4.804033031370034124
0.576000000000000401,-4.768239507056314608
0.577000000000000401,-4.732551442501811145
0.578000000000000402,-4.696971973456463445
0.579000000000000403,-4.661504164441536702
0.580000000000000404,-4.626151009125410773
0.581000000000000405,-4.590915430722882107
0.582000000000000406,-4.555800282417073355
0.583000000000000407,-4.520808347802877769
0.584000000000000408,-4.485942341351144336
0.585000000000000409,-4.451204908892507639
0.586000000000000409,-4.416598628120015135
0.587000000000000410,-4.382126009109746256
0.588000000000000411,-4.347789494858385950
0.589000000000000412,-4.313591461837084751
0.590000000000000413,-4.279534220560637259
0.591000000000000414,-4.245620016171245403
0.592000000000000415,-4.211851029036105309
0.593000000000000416,-4.178229375357945585
0.594000000000000417,-4.144757107797852669
0.595000000000000417,-4.111436216109732200
0.596000000000000418,-4.078268627785421430
0.597000000000000419,-4.045256208710151569
0.598000000000000420,-4.012400763827306704
0.599000000000000421,-3.979704037812137329
0.600000000000000422,-3.947167715753571393
0.601000000000000423,-3.914793423843641484
0.602000000000000424,-3.882582730073862454
0.603000000000000425,-3.850537144938006584
0.604000000000000425,-3.818658122140690558
0.605000000000000426,-3.786947059311231101
0.606000000000000427,-3.755405298722310992
0.607000000000000428,-3.724034128012706724
0.608000000000000429,-3.692834780913964554
0.609000000000000430,-3.661808437980096365
0.610000000000000431,-3.630956227320229601
0.611000000000000432,-3.600279225333461675
