# Al2O3-001_DIHYDROXYPHOSPHANIUM-AC
# h[nm],U(h)[kJ/mol]
0.149999999999999994,131.555872799314613530
0.150999999999999995,128.933981245456408260
0.151999999999999996,126.646507183143015141
0.152999999999999997,124.456876243651166192
0.153999999999999998,122.278951585851586970
0.154999999999999999,120.096292963549984734
0.156000000000000000,117.919168033107013116
0.157000000000000001,115.763496821674877424
0.158000000000000002,113.641984887457084596
0.159000000000000002,111.561599406595590267
0.160000000000000003,109.524002591777531279
0.161000000000000004,107.527076745660636448
0.162000000000000005,105.566588908975901973
0.163000000000000006,103.637572346051982208
0.164000000000000007,101.735292776124893521
0.165000000000000008,99.855813803772846882
0.166000000000000009,97.996238702128067644
0.167000000000000010,96.154722226021704046
0.168000000000000010,94.330339397229678866
0.169000000000000011,92.522881653718087591
0.170000000000000012,90.732631862919589594
0.171000000000000013,88.960152272434157794
0.172000000000000014,87.206105141000776371
0.173000000000000015,85.471114961014876599
0.174000000000000016,83.755673614982427466
0.175000000000000017,82.060084981024559170
0.176000000000000018,80.384442814750428852
0.177000000000000018,78.728634612477947030
0.178000000000000019,77.092364109269354344
0.179000000000000020,75.475185686595096968
0.180000000000000021,73.876544955950990357
0.181000000000000022,72.295820928140543060
0.182000000000000023,70.732366324910145750
0.183000000000000024,69.185543646933837181
0.184000000000000025,67.654755527919434144
0.185000000000000026,66.139468656681629000
0.186000000000000026,64.639231135465408329
0.187000000000000027,63.153683574534831280
0.188000000000000028,61.682564518347703597
0.189000000000000029,60.225710979181734217
0.190000000000000030,58.783054942188400105
0.191000000000000031,57.354616722754009572
0.192000000000000032,55.940496021830618645
0.193000000000000033,54.540861453976319240
0.194000000000000034,53.155939229823502501
0.195000000000000034,51.786001570414292416
0.196000000000000035,50.431355323643408894
0.197000000000000036,49.092331149042365723
0.198000000000000037,47.769273540554536339
0.199000000000000038,46.462531870481043939
0.200000000000000039,45.172452562877204230
0.201000000000000040,43.899372441862780647
0.202000000000000041,42.643613249387357200
0.203000000000000042,41.405477287289677690
0.204000000000000042,40.185244108998716683
0.205000000000000043,38.983168165764567448
0.206000000000000044,37.799477299598294167
0.207000000000000045,36.634371968874702929
0.208000000000000046,35.488025091581761217
0.209000000000000047,34.360582394351396829
0.210000000000000048,33.252163161659140656
0.211000000000000049,32.162861288037440488
0.212000000000000050,31.092746546037979272
0.213000000000000050,30.041865993368087828
0.214000000000000051,29.010245453582694353
0.215000000000000052,27.997891015529301484
0.216000000000000053,27.004790507099734498
0.217000000000000054,26.030914908507973848
0.218000000000000055,25.076219679130634432
0.219000000000000056,24.140645979820952505
0.220000000000000057,23.224121779487102657
0.221000000000000058,22.326562840614634808
0.222000000000000058,21.447873583324742697
0.223000000000000059,20.587947831555958089
0.224000000000000060,19.746669448093008725
0.225000000000000061,18.923912867525690018
0.226000000000000062,18.119543537884091222
0.227000000000000063,17.333418282749033068
0.228000000000000064,16.565385596167732984
0.229000000000000065,15.815285882790471206
0.230000000000000066,15.082951655371104493
0.231000000000000066,14.368207701206804572
0.232000000000000067,13.670871228303827394
0.233000000000000068,12.990752001100114299
0.234000000000000069,12.327652474508571601
0.235000000000000070,11.681367933909466927
0.236000000000000071,11.051686647557728449
0.237000000000000072,10.438390036710256226
0.238000000000000073,9.841252867649618707
0.239000000000000073,9.260043468703246461
0.240000000000000074,8.694523974345415240
0.241000000000000075,8.144450597540281223
0.242000000000000076,7.609573930640742390
0.243000000000000077,7.089639274407906200
0.244000000000000078,6.584386994060951181
0.245000000000000079,6.093552900706382225
0.246000000000000080,5.616868656028573881
0.247000000000000081,5.154062197743700224
0.248000000000000081,4.704858183025310225
0.249000000000000082,4.268978446893969547
0.250000000000000111,3.846142472419376013
0.251000000000000112,3.436067869506354899
0.252000000000000113,3.038470859015981240
0.253000000000000114,2.653066759007838726
0.254000000000000115,2.279570469966105684
0.255000000000000115,1.917696955990215502
0.256000000000000116,1.567161719079423587
0.257000000000000117,1.227681263816245760
0.258000000000000118,0.898973549950609851
0.259000000000000119,0.580758430598318220
0.260000000000000120,0.272758073990454653
0.261000000000000121,-0.025302633059041391
0.262000000000000122,-0.313695701568054708
0.263000000000000123,-0.592689678050151825
0.264000000000000123,-0.862549304565455421
0.265000000000000124,-1.123535202071865191
0.266000000000000125,-1.375903577773968323
0.267000000000000126,-1.619905956959700521
0.268000000000000127,-1.855788939619311906
0.269000000000000128,-2.083793981956477914
0.270000000000000129,-2.304157202730315657
0.271000000000000130,-2.517109214209075851
0.272000000000000131,-2.722874977371549488
0.273000000000000131,-2.921673680861792910
0.274000000000000132,-3.113718643085606974
0.275000000000000133,-3.299217236734028003
0.276000000000000134,-3.478370834928909971
0.277000000000000135,-3.651374778108051000
0.278000000000000136,-3.818418360702748426
0.279000000000000137,-3.979684836607137122
0.280000000000000138,-4.135351442396448363
0.281000000000000139,-4.285589437219824660
0.282000000000000139,-4.430564158271121045
0.283000000000000140,-4.570435090728313554
0.284000000000000141,-4.705355951047353713
0.285000000000000142,-4.835474782499302293
0.286000000000000143,-4.960934061849373578
0.287000000000000144,-5.081870816092202148
0.288000000000000145,-5.198416748179623070
0.289000000000000146,-5.310698370702807480
0.290000000000000147,-5.418837146521708448
0.291000000000000147,-5.522949635368341603
0.292000000000000148,-5.623147645488051793
0.293000000000000149,-5.719538389422067937
0.294000000000000150,-5.812224643076675079
0.295000000000000151,-5.901304907267490130
0.296000000000000152,-5.986873570971589231
0.297000000000000153,-6.069021075565568246
0.298000000000000154,-6.147834079372972660
0.299000000000000155,-6.223395621890260188
0.300000000000000155,-6.295785287105802652
0.301000000000000156,-6.365079365371269837
0.302000000000000157,-6.431351013329101640
0.303000000000000158,-6.494670411442902136
0.304000000000000159,-6.555104918719932172
0.305000000000000160,-6.612719224255672046
0.306000000000000161,-6.667575495270186892
0.307000000000000162,-6.719733521344137372
0.308000000000000163,-6.769250854598699796
0.309000000000000163,-6.816182945598711740
0.310000000000000164,-6.860583274791743236
0.311000000000000165,-6.902503479326979274
0.312000000000000166,-6.941993475128084512
0.313000000000000167,-6.979101574121886919
0.314000000000000168,-7.013874596551305629
0.315000000000000169,-7.046357978325373139
0.316000000000000170,-7.076595873382375501
0.317000000000000171,-7.104631251062971664
0.318000000000000171,-7.130505988510060789
0.319000000000000172,-7.154260958130062242
0.320000000000000173,-7.175936110166655446
0.321000000000000174,-7.195570550452996983
0.322000000000000175,-7.213202613422022402
0.323000000000000176,-7.228869930466446547
0.324000000000000177,-7.242609493750944871
0.325000000000000178,-7.254457715588451094
0.326000000000000179,-7.264450483501033951
0.327000000000000179,-7.272623211092735573
0.328000000000000180,-7.279010884868052145
0.329000000000000181,-7.283648107134979455
0.330000000000000182,-7.286569135135228414
0.331000000000000183,-7.287807916548191933
0.332000000000000184,-7.287398121517012051
0.333000000000000185,-7.285373171347210075
0.334000000000000186,-7.281766264029184477
0.335000000000000187,-7.276610396736049147
0.336000000000000187,-7.269938385448351248
0.337000000000000188,-7.261782881855791238
0.338000000000000189,-7.252176387685326908
0.339000000000000190,-7.241151266602881442
0.340000000000000191,-7.228739753833539616
0.341000000000000192,-7.214973963643027233
0.342000000000000193,-7.199885894819702870
0.343000000000000194,-7.183507434293806782
0.344000000000000195,-7.165870359026401459
0.345000000000000195,-7.147006336297714313
0.346000000000000196,-7.126946922519910466
0.347000000000000197,-7.105723560695802021
0.348000000000000198,-7.083367576640720031
0.349000000000000199,-7.059910174080423317
0.350000000000000200,-7.035382428733818472
0.351000000000000201,-7.009815281484719662
0.352000000000000202,-6.983239530742460843
0.353000000000000203,-6.955685824086941693
0.354000000000000203,-6.927184649289094054
0.355000000000000204,-6.897766324793332515
0.356000000000000205,-6.867460989744370359
0.357000000000000206,-6.836298593636416676
0.358000000000000207,-6.804308885658239880
0.359000000000000208,-6.771521403803855144
0.360000000000000209,-6.737965463814160394
0.361000000000000210,-6.703670148010866470
0.362000000000000210,-6.668664294080274502
0.363000000000000211,-6.632976483860469230
0.364000000000000212,-6.596635032181947800
0.365000000000000213,-6.559667975807869311
0.366000000000000214,-6.522103062516885430
0.367000000000000215,-6.483967740367853949
0.368000000000000216,-6.445289147182791112
0.369000000000000217,-6.406094100280924408
0.370000000000000218,-6.366409086494074998
0.371000000000000218,-6.326260252490326863
0.372000000000000219,-6.285673395430492860
0.373000000000000220,-6.244673953979078540
0.374000000000000221,-6.203286999688922165
0.375000000000000222,-6.161537228776267305
0.376000000000000223,-6.119448954300932719
0.377000000000000224,-6.077046098763750237
0.378000000000000225,-6.034352187131693412
0.379000000000000226,-5.991390340298923256
0.380000000000000226,-5.948183268990449690
0.381000000000000227,-5.904753268112989062
0.382000000000000228,-5.861122211556375916
0.383000000000000229,-5.817311547447134856
0.384000000000000230,-5.773342293854357266
0.385000000000000231,-5.729235034947031124
0.386000000000000232,-5.685009917600290841
0.387000000000000233,-5.640686648447314155
0.388000000000000234,-5.596284491372236936
0.389000000000000234,-5.551822265438792314
0.390000000000000235,-5.507318343248111425
0.391000000000000236,-5.462790649718757052
0.392000000000000237,-5.418256661280841158
0.393000000000000238,-5.373733405475896063
0.394000000000000239,-5.329237460953109462
0.395000000000000240,-5.284784957852353138
0.396000000000000241,-5.240391578563781572
0.397000000000000242,-5.196072558853302326
0.398000000000000242,-5.151842689343094861
0.399000000000000243,-5.107716317335766476
0.400000000000000244,-5.063707348970572397
0.401000000000000245,-5.019829251700095085
0.402000000000000246,-4.976095057075222705
0.403000000000000247,-4.932517363826470991
0.404000000000000248,-4.889108341229442267
0.405000000000000249,-4.845879732742210955
0.406000000000000250,-4.802842859902280992
0.407000000000000250,-4.760008626471001314
0.408000000000000251,-4.717387522813071499
0.409000000000000252,-4.674989630499116089
0.410000000000000253,-4.632824627119128458
0.411000000000000254,-4.590901791294936807
0.412000000000000255,-4.549230007879769389
0.413000000000000256,-4.507817773333348654
0.414000000000000257,-4.466673201260844550
0.415000000000000258,-4.425804028104577625
0.416000000000000258,-4.385217618977142351
0.417000000000000259,-4.344920973625198357
0.418000000000000260,-4.304920732513151549
0.419000000000000261,-4.265223183016322750
0.420000000000000262,-4.225834265713361404
0.421000000000000263,-4.186759580768051769
0.422000000000000264,-4.148004394390667038
0.423000000000000265,-4.109573645369547279
0.424000000000000266,-4.071471951663806266
0.425000000000000266,-4.033703617048102430
0.426000000000000267,-3.996272637801058458
0.427000000000000268,-3.959182709428896718
0.428000000000000269,-3.922437233416280922
0.429000000000000270,-3.886039323996631545
0.430000000000000271,-3.849991814934373480
0.431000000000000272,-3.814297266311991841
0.432000000000000273,-3.778957971314914399
0.433000000000000274,-3.743975963007648566
0.434000000000000274,-3.709353021094742076
0.435000000000000275,-3.675090678660525079
0.436000000000000276,-3.641190228881836077
0.437000000000000277,-3.607652731708091753
0.438000000000000278,-3.574479020503512405
0.439000000000000279,-3.541669708646446590
0.440000000000000280,-3.509225196080972609
0.441000000000000281,-3.477145675816303960
0.442000000000000282,-3.445431140369758172
0.443000000000000282,-3.414081388149114993
0.444000000000000283,-3.383096029770749080
0.445000000000000284,-3.352474494309820585
0.446000000000000285,-3.322216035479178764
0.447000000000000286,-3.292319737734020091
0.448000000000000287,-3.262784522299118528
0.449000000000000288,-3.233609153116174806
0.450000000000000289,-3.204792242708597083
0.451000000000000290,-3.176332257961473893
0.452000000000000290,-3.148227525814658367
0.453000000000000291,-3.120476238866903618
0.454000000000000292,-3.093076460889430557
0.455000000000000293,-3.066026132247213987
0.456000000000000294,-3.039323075226659565
0.457000000000000295,-3.012964999268350930
0.458000000000000296,-2.986949506103770524
0.459000000000000297,-2.961274094795064649
0.460000000000000298,-2.935936166676977876
0.461000000000000298,-2.910933030200339999
0.462000000000000299,-2.886261905676529516
0.463000000000000300,-2.861919929922460248
0.464000000000000301,-2.837904160805864162
0.465000000000000302,-2.814211581690641673
0.466000000000000303,-2.790839105782190188
0.467000000000000304,-2.767783580372789931
0.468000000000000305,-2.745041790987161168
0.469000000000000306,-2.722610465428387361
0.470000000000000306,-2.700486277724635009
0.471000000000000307,-2.678665851976901990
0.472000000000000308,-2.657145766108484075
0.473000000000000309,-2.635922555516571286
0.474000000000000310,-2.614992716626696634
0.475000000000000311,-2.594352710350714908
0.476000000000000312,-2.573998965449146414
0.477000000000000313,-2.553927881798624178
0.478000000000000314,-2.534135833565419826
0.479000000000000314,-2.514619172285996740
0.480000000000000315,-2.495374229855525261
0.481000000000000316,-2.476397321425502618
0.482000000000000317,-2.457684748211473647
0.483000000000000318,-2.439232800212056684
0.484000000000000319,-2.421037758840392851
0.485000000000000320,-2.403095899469260388
0.486000000000000321,-2.385403493891072646
0.487000000000000322,-2.367956812694011148
0.488000000000000322,-2.350752127555569615
0.489000000000000323,-2.333785713454893163
0.490000000000000324,-2.317053850805156578
0.491000000000000325,-2.300552827507384102
0.492000000000000326,-2.284278940927047419
0.493000000000000327,-2.268228499794862962
0.494000000000000328,-2.252397826033129657
0.495000000000000329,-2.236783256509063733
0.496000000000000330,-2.221381144716469969
0.497000000000000330,-2.206187862387269938
0.498000000000000331,-2.191199801034160011
0.499000000000000332,-2.176413373425979625
0.500000000000000333,-2.161825014997112770
0.501000000000000334,-2.147431185192346437
0.502000000000000335,-2.133228368748661286
0.503000000000000336,-2.119213076915333449
0.504000000000000337,-2.105381848613768536
0.505000000000000338,-2.091731251538463177
0.506000000000000338,-2.078257883200523182
0.507000000000000339,-2.064958371915097679
0.508000000000000340,-2.051829377734114779
0.509000000000000341,-2.038867593325739414
0.510000000000000342,-2.026069744801830108
0.511000000000000343,-2.013432592494833084
0.512000000000000344,-2.000952931685362479
0.513000000000000345,-1.988627593281862671
0.514000000000000346,-1.976453444453649455
0.515000000000000346,-1.964427389218569742
0.516000000000000347,-1.952546368986606051
0.517000000000000348,-1.940807363060735202
0.518000000000000349,-1.929207389096142977
0.519000000000000350,-1.917743503519195425
0.520000000000000351,-1.906412801907256149
0.521000000000000352,-1.895212419330612352
0.522000000000000353,-1.884139530657647610
0.523000000000000353,-1.873191350824440660
0.524000000000000354,-1.862365135069944388
0.525000000000000355,-1.851658179137823712
0.526000000000000356,-1.841067819446089882
0.527000000000000357,-1.830591433225627895
0.528000000000000358,-1.820226438628623100
0.529000000000000359,-1.809970294808006530
0.530000000000000360,-1.799820501968875774
0.531000000000000361,-1.789774601392958076
0.532000000000000361,-1.779830175437051576
0.533000000000000362,-1.769984847506447023
0.534000000000000363,-1.760236282004263186
0.535000000000000364,-1.750582184257625018
0.536000000000000365,-1.741020300421584066
0.537000000000000366,-1.731548417361707282
0.538000000000000367,-1.722164362516124925
0.539000000000000368,-1.712866003738007237
0.540000000000000369,-1.703651249119162658
0.541000000000000369,-1.694518046795698840
0.542000000000000370,-1.685464384736439003
0.543000000000000371,-1.676488290514922763
0.544000000000000372,-1.667587831065738602
0.545000000000000373,-1.658761112425916950
0.546000000000000374,-1.650006279462093328
0.547000000000000375,-1.641321515584156954
0.548000000000000376,-1.632705042446081389
0.549000000000000377,-1.624155119634569600
0.550000000000000377,-1.615670044346172229
0.551000000000000378,-1.607248151053517260
0.552000000000000379,-1.598887811161266104
0.553000000000000380,-1.590587432652385891
0.554000000000000381,-1.582345459725291281
0.555000000000000382,-1.574160372422493293
0.556000000000000383,-1.566030686251200565
0.557000000000000384,-1.557954951796505227
0.558000000000000385,-1.549931754327582789
0.559000000000000385,-1.541959713397470511
0.560000000000000386,-1.534037482436871436
0.561000000000000387,-1.526163748342471260
0.562000000000000388,-1.518337231060209902
0.563000000000000389,-1.510556683163977398
0.564000000000000390,-1.502820889430113160
0.565000000000000391,-1.495128666408179541
0.566000000000000392,-1.487478861988355217
0.567000000000000393,-1.479870354965886259
0.568000000000000393,-1.472302054602910637
0.569000000000000394,-1.464772900188076044
0.570000000000000395,-1.457281860594263456
0.571000000000000396,-1.449827933834738181
0.572000000000000397,-1.442410146618122502
0.573000000000000398,-1.435027553902397779
0.574000000000000399,-1.427679238448344767
0.575000000000000400,-1.420364310372619565
0.576000000000000401,-1.413081906700795809
0.577000000000000401,-1.405831190920656226
0.578000000000000402,-1.398611352535924057
0.579000000000000403,-1.391421606620731222
0.580000000000000404,-1.384261193375077026
0.581000000000000405,-1.377129377681443279
0.582000000000000406,-1.370025448662841150
0.583000000000000407,-1.362948719242459195
0.584000000000000408,-1.355898525705146573
0.585000000000000409,-1.348874227260882908
0.586000000000000409,-1.341875205610457034
0.587000000000000410,-1.334900864513499652
0.588000000000000411,-1.327950629359038626
0.589000000000000412,-1.321023946738768329
0.590000000000000413,-1.314120284023120311
0.591000000000000414,-1.307239128940326456
0.592000000000000415,-1.300379989158624294
0.593000000000000416,-1.293542391871654651
0.594000000000000417,-1.286725883387255021
0.595000000000000417,-1.279930028719746593
0.596000000000000418,-1.273154411185752011
0.597000000000000419,-1.266398632003768787
0.598000000000000420,-1.259662309897470411
0.599000000000000421,-1.252945080702916325
0.600000000000000422,-1.246246596979702081
0.601000000000000423,-1.239566527626149162
0.602000000000000424,-1.232904557498600395
0.603000000000000425,-1.226260387034905586
0.604000000000000425,-1.219633731882123540
0.605000000000000426,-1.213024322528524213
0.606000000000000427,-1.206431903939985784
0.607000000000000428,-1.199856235200682963
0.608000000000000429,-1.193297089158364077
0.609000000000000430,-1.186754252073952243
0.610000000000000431,-1.180227523275798385
0.611000000000000432,-1.173716714818397566
0.612000000000000433,-1.167221651145696537
