# AuFCC100_CS-693-AC
# h[nm],U(h)[kJ/mol]
0.200000000000000011,116.724105526446507497
0.201000000000000012,110.537554896177041996
0.202000000000000013,106.683773755601507105
0.203000000000000014,103.841880053686239194
0.204000000000000015,101.304664088775297159
0.205000000000000016,98.739828996910574688
0.206000000000000016,96.031876067997444579
0.207000000000000017,93.180280355983853724
0.208000000000000018,90.236336236067629102
0.209000000000000019,87.266049064801620716
0.210000000000000020,84.330132796134662954
0.211000000000000021,81.474869527550509929
0.212000000000000022,78.729543714796861309
0.213000000000000023,76.107570027362157816
0.214000000000000024,73.609432643103374971
0.215000000000000024,71.226253241746491085
0.216000000000000025,68.943286242423781118
0.217000000000000026,66.742963636141837469
0.218000000000000027,64.607323200296221444
0.219000000000000028,62.519786250345156020
0.220000000000000029,60.466328775622194769
0.221000000000000030,58.436130524988776358
0.222000000000000031,56.421803061798598833
0.223000000000000032,54.419298998430861047
0.224000000000000032,52.427596820326222371
0.225000000000000033,50.448243195973951458
0.226000000000000034,48.484820279072110338
0.227000000000000035,46.542391049130657166
0.228000000000000036,44.626962290118228793
0.229000000000000037,42.744992956959400487
0.230000000000000038,40.902965674548205754
0.231000000000000039,39.107030983317045525
0.232000000000000040,37.362727585013303155
0.233000000000000040,35.674777072330861927
0.234000000000000041,34.046948230966968652
0.235000000000000042,32.481983758011693908
0.236000000000000043,30.981580929562575477
0.237000000000000044,29.546417174064544042
0.238000000000000045,28.176211490005478311
0.239000000000000046,26.869813036070304690
0.240000000000000047,25.625308892259521798
0.241000000000000048,24.440143838732399928
0.242000000000000048,23.311245943292849603
0.243000000000000049,22.235152725124724071
0.244000000000000050,21.208133624183226118
0.245000000000000051,20.226305418486454357
0.246000000000000052,19.285738072363876938
0.247000000000000053,18.382549253255085375
0.248000000000000054,17.512986415625913850
0.249000000000000055,16.673495916015202312
0.250000000000000056,15.860779095137775840
0.251000000000000056,15.071835646174713830
0.252000000000000057,14.303994889606832075
0.253000000000000058,13.554935802096428787
0.254000000000000059,12.822696808482911379
0.255000000000000060,12.105676450582347314
0.256000000000000061,11.402626102635156968
0.257000000000000062,10.712635918996513240
0.258000000000000063,10.035115182501650466
0.259000000000000064,9.369768178693545835
0.260000000000000064,8.716566657881076097
0.261000000000000065,8.075719869180446153
0.262000000000000066,7.447643062930689339
0.263000000000000067,6.832925264133447918
0.264000000000000068,6.232297023156627702
0.265000000000000069,5.646598753583087493
0.266000000000000070,5.076750172960467822
0.267000000000000071,4.523721272015182926
0.268000000000000071,3.988505152917976027
0.269000000000000072,3.472092998341827386
0.270000000000000073,2.975451360944369128
0.271000000000000074,2.499501897878750434
0.272000000000000075,2.045103617114578221
0.273000000000000076,1.613037651688572494
0.274000000000000077,1.203994534310008691
0.275000000000000078,0.818563907725435080
0.276000000000000079,0.457226575520508383
0.277000000000000079,0.120348773169673254
0.278000000000000080,-0.191821480333573546
0.279000000000000081,-0.479156104516915371
0.280000000000000082,-0.741646917577532094
0.281000000000000083,-0.979404005361246055
0.282000000000000084,-1.192652672760392774
0.283000000000000085,-1.381729151025529401
0.284000000000000086,-1.547075231871408052
0.285000000000000087,-1.689231994530770109
0.286000000000000087,-1.808832785446955471
0.287000000000000088,-1.906595602444162152
0.288000000000000089,-1.983315026285490390
0.289000000000000090,-2.039853832804879197
0.290000000000000091,-2.077134408528081178
0.291000000000000092,-2.096130082100950531
0.292000000000000093,-2.097856473108986819
0.293000000000000094,-2.083362949165997069
0.294000000000000095,-2.053724271608886820
0.295000000000000095,-2.010032499876179823
0.296000000000000096,-1.953389214764511550
0.297000000000000097,-1.884898111324978087
0.298000000000000098,-1.805658003237793352
0.299000000000000099,-1.716756272133691308
0.300000000000000100,-1.619262787541445148
0.301000000000000101,-1.514224315951764543
0.302000000000000102,-1.402659430906936455
0.303000000000000103,-1.285553930049893490
0.304000000000000103,-1.163856759689361198
0.305000000000000104,-1.038476442644267861
0.306000000000000105,-0.910278000901032724
0.307000000000000106,-0.780080360927875360
0.308000000000000107,-0.648654226315721560
0.309000000000000108,-0.516720399725014490
0.310000000000000109,-0.384948533882242316
0.311000000000000110,-0.253956289558109893
0.312000000000000111,-0.124308877037647883
0.313000000000000111,0.003481043469125611
0.314000000000000112,0.128953127761881087
0.315000000000000113,0.251698805654359481
0.316000000000000114,0.371360456943885531
0.317000000000000115,0.487630331176125753
0.318000000000000116,0.600249236759582416
0.319000000000000117,0.709005024525045213
0.320000000000000118,0.813730890207661872
0.321000000000000119,0.914303519575967227
0.322000000000000119,1.010641099064724990
0.323000000000000120,1.102701213807672831
0.324000000000000121,1.190478653929489594
0.325000000000000122,1.274003148861273527
0.326000000000000123,1.353337048305691459
0.327000000000000124,1.428572967310661745
0.328000000000000125,1.499831411725790931
0.329000000000000126,1.567258399126614465
0.330000000000000127,1.631023089106139468
0.331000000000000127,1.691315435660524003
0.332000000000000128,1.748343873244445401
0.333000000000000129,1.802333046946667183
0.334000000000000130,1.853521596144565908
0.335000000000000131,1.902159999941338331
0.336000000000000132,1.948508491676314236
0.337000000000000133,1.992835048828932587
0.338000000000000134,2.035413463714399906
0.339000000000000135,2.076521499493714451
0.340000000000000135,2.116439135196011456
0.341000000000000136,2.155446902675580478
0.342000000000000137,2.193824317701157600
0.343000000000000138,2.231848406700375431
0.344000000000000139,2.269792330057243568
0.345000000000000140,2.307924102284082402
0.346000000000000141,2.346505408861225384
0.347000000000000142,2.385790519055635439
0.348000000000000143,2.426025293592600107
0.349000000000000143,2.467446285661391236
0.350000000000000144,2.510279933383597228
0.351000000000000145,2.554741841560962179
0.352000000000000146,2.601036150245377598
0.353000000000000147,2.649354987435478481
0.354000000000000148,2.699878003000031335
0.355000000000000149,2.752771980756269610
0.356000000000000150,2.808190525488858391
0.357000000000000151,2.866273821581162728
0.358000000000000151,2.927148459842325856
0.359000000000000152,2.990927329049720917
0.360000000000000153,3.057709568684706447
0.361000000000000154,3.127580579318526066
0.362000000000000155,3.200612087102913783
0.363000000000000156,3.276862258834613240
0.364000000000000157,3.356375864093487760
0.365000000000000158,3.439184480997766968
0.366000000000000159,3.525306742176904429
0.367000000000000159,3.614748617630306970
0.368000000000000160,3.707503731217320908
0.369000000000000161,3.803553707610434653
0.370000000000000162,3.902868546636725888
0.371000000000000163,4.005407022032134279
0.372000000000000164,4.111117101738528845
0.373000000000000165,4.219936386982020338
0.374000000000000166,4.331792567484196610
0.375000000000000167,4.446603890272677440
0.376000000000000167,4.564279639674506228
0.377000000000000168,4.684720626194107673
0.378000000000000169,4.807819682096032388
0.379000000000000170,4.933462161631223530
0.380000000000000171,5.061526443963797917
0.381000000000000172,5.191884436971738737
0.382000000000000173,5.324402080210841604
0.383000000000000174,5.458939845444334082
0.384000000000000175,5.595353233252332359
0.385000000000000175,5.733493264343813678
0.386000000000000176,5.873206964300291766
0.387000000000000177,6.014337840583205086
0.388000000000000178,6.156726350737286246
0.389000000000000179,6.300210360818903510
0.390000000000000180,6.444625593171484645
0.391000000000000181,6.589806062760372285
0.392000000000000182,6.735584501364992427
0.393000000000000183,6.881792769009587474
0.394000000000000183,7.028262252091979079
0.395000000000000184,7.174824247745296368
0.396000000000000185,7.321310334039317524
0.397000000000000186,7.467552725695410842
0.398000000000000187,7.613384615053723437
0.399000000000000188,7.758640498091781801
0.400000000000000189,7.903156485350424809
0.401000000000000190,8.046770597677248560
0.402000000000000191,8.189323046747130519
0.403000000000000191,8.330656500367126682
0.404000000000000192,8.470616332616119237
0.405000000000000193,8.609050858910400450
0.406000000000000194,8.745811556123852526
0.407000000000000195,8.880753267925857841
0.408000000000000196,9.013734395531900034
0.409000000000000197,9.144617074090868769
0.410000000000000198,9.273267334959191643
0.411000000000000199,9.399555254136163995
0.412000000000000199,9.523355087156042842
0.413000000000000200,9.644545390751686043
0.414000000000000201,9.763009131621529946
0.415000000000000202,9.878633782646714323
0.416000000000000203,9.991311406917663618
0.417000000000000204,10.100938729941107752
0.418000000000000205,10.207417200407169489
0.419000000000000206,10.310653039904122963
0.420000000000000207,10.410557281974465837
0.421000000000000207,10.507045800910136180
0.422000000000000208,10.600039330688401762
0.423000000000000209,10.689463474451297742
0.424000000000000210,10.775248704932518962
0.425000000000000211,10.857330356235060265
0.426000000000000212,10.935648607361338591
0.427000000000000213,11.010148457895223117
0.428000000000000214,11.080779696231854103
0.429000000000000214,11.147496860747160952
0.430000000000000215,11.210259194293870522
0.431000000000000216,11.269030592405306024
0.432000000000000217,11.323779545582119965
0.433000000000000218,11.374479076030151958
0.434000000000000219,11.421106669210470130
0.435000000000000220,11.463644200554938379
0.436000000000000221,11.502077857692480478
0.437000000000000222,11.536398058522767229
0.438000000000000222,11.566599365465370042
0.439000000000000223,11.592680396203295601
0.440000000000000224,11.614643731230781754
0.441000000000000225,11.632495818505729446
0.442000000000000226,11.646246875497507034
0.443000000000000227,11.655910788911560516
0.444000000000000228,11.661505012362228584
0.445000000000000229,11.663050462255654338
0.446000000000000230,11.660571412134688174
0.447000000000000230,11.654095385728290069
0.448000000000000231,11.643653048937860461
0.449000000000000232,11.629278100983416522
0.450000000000000233,11.611007164923179857
0.451000000000000234,11.588879677750108854
0.452000000000000235,11.562937780260231335
0.453000000000000236,11.533226206877815301
0.454000000000000237,11.499792175613595901
0.455000000000000238,11.462685278323290206
0.456000000000000238,11.421957371424792171
0.457000000000000239,11.377662467223901288
0.458000000000000240,11.329856625989966901
0.459000000000000241,11.278597848914520441
0.460000000000000242,11.223945972078146482
0.461000000000000243,11.165962561542732701
0.462000000000000244,11.104710809678845607
0.463000000000000245,11.040255432830409887
0.464000000000000246,10.972662570411714000
0.465000000000000246,10.901999685524851103
0.466000000000000247,10.828335467178749951
0.467000000000000248,10.751739734184628361
0.468000000000000249,10.672283340796278495
0.469000000000000250,10.590038084157319176
0.470000000000000251,10.505076613612056136
0.471000000000000252,10.417472341930508861
0.472000000000000253,10.327299358492892267
0.473000000000000254,10.234632344473714838
0.474000000000000254,10.139546490060416417
0.475000000000000255,10.042117413736690423
0.476000000000000256,9.942421083656205028
0.477000000000000257,9.840533741127869050
0.478000000000000258,9.736531826229390063
0.479000000000000259,9.630491905562509558
0.480000000000000260,9.522490602158615758
0.481000000000000261,9.412604527540491262
0.482000000000000262,9.300910215942124637
0.483000000000000262,9.187484060685488174
0.484000000000000263,9.072402252709796500
0.485000000000000264,8.955740721246217007
0.486000000000000265,8.837575076627825155
0.487000000000000266,8.717980555222357708
0.488000000000000267,8.597031966472712838
0.489000000000000268,8.474803642027778139
0.490000000000000269,8.351369386944295314
0.491000000000000270,8.226802432938123744
0.492000000000000270,8.101175393661726787
0.493000000000000271,7.974560221982690322
0.494000000000000272,7.847028169236911488
0.495000000000000273,7.718649746427812097
0.496000000000000274,7.589494687342765999
0.497000000000000275,7.459631913555495153
0.498000000000000276,7.329129501282790393
0.499000000000000277,7.198054650062819526
0.500000000000000222,7.066473653220873175
0.501000000000000334,6.934451870088348180
0.502000000000000224,6.802053699939373921
0.503000000000000336,6.669342557608999300
0.504000000000000226,6.536380850756875027
0.505000000000000338,6.403229958738609007
0.506000000000000227,6.269950213048359977
0.507000000000000339,6.136600879293922617
0.508000000000000229,6.003240140667277736
0.509000000000000341,5.869925082871437994
0.510000000000000231,5.736711680466351382
0.511000000000000343,5.603654784594374050
0.512000000000000233,5.470808112048062277
0.513000000000000345,5.338224235640860016
0.514000000000000234,5.205954575843518839
0.515000000000000346,5.074049393647110051
0.516000000000000236,4.942557784615810412
0.517000000000000348,4.811527674090728901
0.518000000000000238,4.681005813508431146
0.519000000000000350,4.551037777796040018
0.520000000000000240,4.421667963807201396
0.521000000000000352,4.292939589761600949
0.522000000000000242,4.164894695652973766
0.523000000000000353,4.037574144589109792
0.524000000000000243,3.911017625029840072
0.525000000000000355,3.785263653887382951
0.526000000000000245,3.660349580455918961
0.527000000000000357,3.536311591135894439
0.528000000000000247,3.413184714920945773
0.529000000000000359,3.291002829614127823
0.530000000000000249,3.169798668742247916
0.531000000000000361,3.049603829136370514
0.532000000000000250,2.930448779148396632
0.533000000000000362,2.812362867472798289
0.534000000000000252,2.695374332545005025
0.535000000000000364,2.579510312486325674
0.536000000000000254,2.464796855568422984
0.537000000000000366,2.351258931168474398
0.538000000000000256,2.238920441189052202
0.539000000000000368,2.127804231915439548
0.540000000000000258,2.017932106285500460
0.541000000000000369,1.909324836546033355
0.542000000000000259,1.802002177272224115
0.543000000000000371,1.695982878725305287
0.544000000000000261,1.591284700526024887
0.545000000000000373,1.487924425620810398
0.546000000000000263,1.385917874519184023
0.547000000000000375,1.285279919780405233
0.548000000000000265,1.186024500729568887
0.549000000000000377,1.088164638382062455
0.550000000000000266,0.991712450557831415
0.551000000000000378,0.896679167165787105
0.552000000000000268,0.803075145640714583
0.553000000000000380,0.710909886514450529
0.554000000000000270,0.620192049104714149
0.555000000000000382,0.530929467304545377
0.556000000000000272,0.443129165456872198
0.557000000000000384,0.356797374298369996
0.558000000000000274,0.271939546958049561
0.559000000000000385,0.188560374995990376
0.560000000000000275,0.106663804468705742
0.561000000000000387,0.026253052007504309
0.562000000000000277,-0.052669379102485002
0.563000000000000389,-0.130101682855392115
0.564000000000000279,-0.206042734481023782
0.565000000000000391,-0.280492074436445582
0.566000000000000281,-0.353449892443018499
0.567000000000000393,-0.424917011579755255
0.568000000000000282,-0.494894872442403710
0.569000000000000394,-0.563385517378225842
0.570000000000000284,-0.630391574804887056
0.571000000000000396,-0.695916243622771491
0.572000000000000286,-0.759963277728216813
0.573000000000000398,-0.822536970636010167
0.574000000000000288,-0.883642140218105943
0.575000000000000400,-0.943284113565971749
0.576000000000000290,-1.001468711982768101
0.577000000000000401,-1.058202236112112837
0.578000000000000291,-1.113491451208862504
0.579000000000000403,-1.167343572557928422
0.580000000000000293,-1.219766251045971028
0.581000000000000405,-1.270767558891290783
0.582000000000000295,-1.320355975536061210
0.583000000000000407,-1.368540373705714908
0.584000000000000297,-1.415330005638918198
0.585000000000000409,-1.460734489492403032
0.586000000000000298,-1.504763795923577785
0.587000000000000410,-1.547428234854507867
0.588000000000000300,-1.588738442419777686
0.589000000000000412,-1.628705368101251993
0.590000000000000302,-1.667340262051766775
0.591000000000000414,-1.704654662610244120
0.592000000000000304,-1.740660384009911521
0.593000000000000416,-1.775369504281481214
0.594000000000000306,-1.808794353352698225
0.595000000000000417,-1.840947501345695958
0.596000000000000307,-1.871841747073021534
0.597000000000000419,-1.901490106733473073
0.598000000000000309,-1.929905802808333792
0.599000000000000421,-1.957102253158560901
0.600000000000000311,-1.983093060323350754
0.601000000000000423,-2.007892001020306960
0.602000000000000313,-2.031513015847092873
0.603000000000000425,-2.053970199184834478
0.604000000000000314,-2.075277789302583553
0.605000000000000426,-2.095450158662898854
0.606000000000000316,-2.114501804427704190
0.607000000000000428,-2.132447339164004418
0.608000000000000318,-2.149301481748644882
0.609000000000000430,-2.165079048471213685
0.610000000000000320,-2.179794944334147999
0.611000000000000432,-2.193464154548995904
0.612000000000000322,-2.206101736227602750
0.613000000000000433,-2.217722810266972377
0.614000000000000323,-2.228342553426498007
0.615000000000000435,-2.237976190596058235
0.616000000000000325,-2.246638987253421149
0.617000000000000437,-2.254346242109537712
0.618000000000000327,-2.261113279939831244
0.619000000000000439,-2.266955444599908276
0.620000000000000329,-2.271888092223858457
0.621000000000000441,-2.275926584603233049
0.622000000000000330,-2.279086282744889225
0.623000000000000442,-2.281382540605676024
0.624000000000000332,-2.282830699001936914
0.625000000000000444,-2.283446079691866082
0.626000000000000334,-2.283243979628544640
0.627000000000000446,-2.282239665381543325
0.628000000000000336,-2.280448367724974279
0.629000000000000448,-2.277885276389749691
0.630000000000000338,-2.274565534977813552
0.631000000000000449,-2.270504236036160250
0.632000000000000339,-2.265716416288324098
0.633000000000000451,-2.260217052021012307
0.634000000000000341,-2.254021054623649434
0.635000000000000453,-2.247143266278472051
0.636000000000000343,-2.239598455798801790
0.637000000000000455,-2.231401314613201681
0.638000000000000345,-2.222566452893110167
0.639000000000000457,-2.213108395821611118
0.640000000000000346,-2.203041580000983046
0.641000000000000458,-2.192380349996590372
0.642000000000000348,-2.181138955014851444
0.643000000000000460,-2.169331545712762210
0.644000000000000350,-2.156972171136774641
0.645000000000000462,-2.144074775788465725
0.646000000000000352,-2.130653196814839667
0.647000000000000464,-2.116721161320717748
0.648000000000000353,-2.102292283801048267
0.649000000000000465,-2.087380063690577714
0.650000000000000355,-2.071997883028830145
0.651000000000000467,-2.056159004237771093
0.652000000000000357,-2.039876568010186908
0.653000000000000469,-2.023163591306100351
0.654000000000000359,-2.006032965455372352
0.655000000000000471,-1.988497454363874040
0.656000000000000361,-1.970569692821209973
0.657000000000000473,-1.952262184907629150
0.658000000000000362,-1.933587302498047666
0.659000000000000474,-1.914557283860887749
0.660000000000000364,-1.895184232349633735
0.661000000000000476,-1.875480115184900543
0.662000000000000366,-1.855456762325004005
0.663000000000000478,-1.835125865422739810
0.664000000000000368,-1.814498976866526281
0.665000000000000480,-1.793587508903649708
0.666000000000000369,-1.772402732843708861
0.667000000000000481,-1.750955778340194557
