# AuFCC100_CS-3970-AC
# h[nm],U(h)[kJ/mol]
0.149999999999999994,136.097862400040639841
0.150999999999999995,136.272221601947762792
0.151999999999999996,133.030817662146375824
0.152999999999999997,129.083458408291363639
0.153999999999999998,125.469831093170711256
0.154999999999999999,122.416882025282262703
0.156000000000000000,119.814419408256000565
0.157000000000000001,117.460978865088549128
0.158000000000000002,115.176533854542256563
0.159000000000000002,112.842054115550325832
0.160000000000000003,110.402127109524485604
0.161000000000000004,107.851654380719011783
0.162000000000000005,105.218129758290885434
0.163000000000000006,102.545232419198825369
0.164000000000000007,99.880096704853031042
0.165000000000000008,97.264764565449709721
0.166000000000000009,94.731399844404123201
0.167000000000000010,92.300465754984159616
0.168000000000000010,89.980995401036551584
0.169000000000000011,87.772169504328104495
0.170000000000000012,85.665565348246417443
0.171000000000000013,83.647604894850104529
0.172000000000000014,81.701881097206310756
0.173000000000000015,79.811167555385310379
0.174000000000000016,77.959014510097446760
0.175000000000000017,76.130905135604791667
0.176000000000000018,74.314993863141339148
0.177000000000000018,72.502477516594197482
0.178000000000000019,70.687664815183694600
0.179000000000000020,68.867814267460957467
0.180000000000000021,67.042807973321359327
0.181000000000000022,65.214722010047722733
0.182000000000000023,63.387344912550851461
0.183000000000000024,61.565685722609501340
0.184000000000000025,59.755503177351386057
0.185000000000000026,57.962878473708329352
0.186000000000000026,56.193846049366449336
0.187000000000000027,54.454090127511662445
0.188000000000000028,52.748709407772501834
0.189000000000000029,51.082048181739075687
0.190000000000000030,49.457589184457660281
0.191000000000000031,47.877901510128836549
0.192000000000000032,46.344635757439839097
0.193000000000000033,44.858558067026862659
0.194000000000000034,43.419614721281732272
0.195000000000000034,42.027019362012133286
0.196000000000000035,40.679355529694973370
0.197000000000000036,39.374688043469589616
0.198000000000000037,38.110677646023361831
0.199000000000000038,36.884694271252477904
0.200000000000000039,35.693925208976786223
0.201000000000000040,34.535475306766322490
0.202000000000000041,33.406457141515957687
0.203000000000000042,32.304069798962636639
0.204000000000000042,31.225665511006230446
0.205000000000000043,30.168803916997244841
0.206000000000000044,29.131294138611554700
0.207000000000000045,28.111225193942050993
0.208000000000000046,27.106985532290497787
0.209000000000000047,26.117272655283692018
0.210000000000000048,25.141093911342530021
0.211000000000000049,24.177759618259639041
0.212000000000000050,23.226869691481418556
0.213000000000000050,22.288294941934498894
0.214000000000000051,21.362154164504694620
0.215000000000000052,20.448788073432531576
0.216000000000000053,19.548731059990664960
0.217000000000000054,18.662681656101888450
0.218000000000000055,17.791472489502844212
0.219000000000000056,16.936040415375380519
0.220000000000000057,16.097397409079444941
0.221000000000000058,15.276602707141728743
0.222000000000000058,14.474736590824985427
0.223000000000000059,13.692876119798293999
0.224000000000000060,12.932073043589241479
0.225000000000000061,12.193334046220590139
0.226000000000000062,11.477603415011818910
0.227000000000000063,10.785748168014933412
0.228000000000000064,10.118545625818281763
0.229000000000000065,9.476673372199019951
0.230000000000000066,8.860701513939645224
0.231000000000000066,8.271087122558673954
0.232000000000000067,7.708170719210163391
0.233000000000000068,7.172174648010975595
0.234000000000000069,6.663203171983975714
0.235000000000000070,6.181244119081558352
0.236000000000000071,5.726171902818737891
0.237000000000000072,5.297751742359293914
0.238000000000000073,4.895644909957488800
0.239000000000000073,4.519414838990003069
0.240000000000000074,4.168533932981761225
0.241000000000000075,3.842390924645342043
0.242000000000000076,3.540298643658654321
0.243000000000000077,3.261502062386623102
0.244000000000000078,3.005186499732138916
0.245000000000000079,2.770485874540159266
0.246000000000000080,2.556490911269533317
0.247000000000000081,2.362257211816440439
0.248000000000000081,2.186813118277064039
0.249000000000000082,2.029167301957111036
0.250000000000000111,1.888316023978424907
0.251000000000000112,1.763250022327043309
0.252000000000000113,1.652960989079010234
0.253000000000000114,1.556447609795746700
0.254000000000000115,1.472721144676152338
0.255000000000000115,1.400810537982021931
0.256000000000000116,1.339767048515771775
0.257000000000000117,1.288668399537672427
0.258000000000000118,1.246622451480743798
0.259000000000000119,1.212770405178887900
0.260000000000000120,1.186289547096121444
0.261000000000000121,1.166395551264316932
0.262000000000000122,1.152344355336522685
0.263000000000000123,1.143433630380113142
0.264000000000000123,1.139003865803788873
0.265000000000000124,1.138439092173518130
0.266000000000000125,1.141167265659464025
0.267000000000000126,1.146660338507109689
0.268000000000000127,1.154434040273777828
0.269000000000000128,1.164047394651992251
0.270000000000000129,1.175101996544400063
0.271000000000000130,1.187241073692432591
0.272000000000000131,1.200148356620286183
0.273000000000000131,1.213546779964706390
0.274000000000000132,1.227197037442959715
0.275000000000000133,1.240896011790074915
0.276000000000000134,1.254475099992285125
0.277000000000000135,1.267798453075349219
0.278000000000000136,1.280761148591776255
0.279000000000000137,1.293287312804938693
0.280000000000000138,1.305328208404226586
0.281000000000000139,1.316860302416521300
0.282000000000000139,1.327883327815235104
0.283000000000000140,1.338418351178900512
0.284000000000000141,1.348505857624375137
0.285000000000000142,1.358203863142085188
0.286000000000000143,1.367586063397871587
0.287000000000000144,1.376740027043157344
0.288000000000000145,1.385765440594802556
0.289000000000000146,1.394772411012900282
0.290000000000000147,1.403879831219030594
0.291000000000000147,1.413213812962512694
0.292000000000000148,1.422906190657207803
0.293000000000000149,1.433093099078091903
0.294000000000000150,1.443913627124446597
0.295000000000000151,1.455508549224225456
0.296000000000000152,1.468019135372401029
0.297000000000000153,1.481586040261966275
0.298000000000000154,1.496348271480212322
0.299000000000000155,1.512442236301803300
0.300000000000000155,1.530000866213300004
0.301000000000000156,1.549152817948896477
0.302000000000000157,1.570021749502125807
0.303000000000000158,1.592725669301503499
0.304000000000000159,1.617376356496861289
0.305000000000000160,1.644078850096386546
0.306000000000000161,1.672931004518456888
0.307000000000000162,1.704023108976768786
0.308000000000000163,1.737437567999075672
0.309000000000000163,1.773248640286767763
0.310000000000000164,1.811522233053571185
0.311000000000000165,1.852315748934037387
0.312000000000000166,1.895677982524533789
0.313000000000000167,1.941649063609796055
0.314000000000000168,1.990260444134577256
0.315000000000000169,2.041534926001093986
0.316000000000000170,2.095486726807240352
0.317000000000000171,2.152121580686577662
0.318000000000000171,2.211436871467403531
0.319000000000000172,2.273421795433451909
0.320000000000000173,2.338057551041734961
0.321000000000000174,2.405317553033062161
0.322000000000000175,2.475167668455711123
0.323000000000000176,2.547566472212897004
0.324000000000000177,2.622465519838331094
0.325000000000000178,2.699809635300646882
0.326000000000000179,2.779537211736078373
0.327000000000000179,2.861580523108993024
0.328000000000000180,2.945866044900863567
0.329000000000000181,3.032314782028815436
0.330000000000000182,3.120842602296627799
0.331000000000000183,3.211360573780127403
0.332000000000000184,3.303775304648483679
0.333000000000000185,3.397989284019924838
0.334000000000000186,3.493901222545881868
0.335000000000000187,3.591406391510983731
0.336000000000000187,3.690396959327164161
0.337000000000000188,3.790762324388568860
0.338000000000000189,3.892389443339422606
0.339000000000000190,3.995163153889803365
0.340000000000000191,4.098966491393970735
0.341000000000000192,4.203680998482131059
0.342000000000000193,4.309187027110478851
0.343000000000000194,4.415364032463830135
0.344000000000000195,4.522090858212794551
0.345000000000000195,4.629246012690527046
0.346000000000000196,4.736707935614924203
0.347000000000000197,4.844355255039356045
0.348000000000000198,4.952067034268816670
0.349000000000000199,5.059723008529773303
0.350000000000000200,5.167203811229397203
0.351000000000000201,5.274391189685216474
0.352000000000000202,5.381168210247770034
0.353000000000000203,5.487419452778172335
0.354000000000000203,5.593031194478862211
0.355000000000000204,5.697891583109281122
0.356000000000000205,5.801890799649436659
0.357000000000000206,5.904921210502864781
0.358000000000000207,6.006877509356655764
0.359000000000000208,6.107656848840117725
0.360000000000000209,6.207158962145268077
0.361000000000000210,6.305286274792059942
0.362000000000000210,6.401944006738679249
0.363000000000000211,6.497040265053025010
0.364000000000000212,6.590486127375252856
0.365000000000000213,6.682195716413562359
0.366000000000000214,6.772086265725730136
0.367000000000000215,6.860078177048090531
0.368000000000000216,6.946095069441058811
0.369000000000000217,7.030063820526639695
0.370000000000000218,7.111914600098183215
0.371000000000000218,7.191580896386511768
0.372000000000000219,7.268999535269072609
0.373000000000000220,7.344110692710553501
0.374000000000000221,7.416857900723831776
0.375000000000000222,7.487188047140198144
0.376000000000000223,7.555051369476464274
0.377000000000000224,7.620401443185095047
0.378000000000000225,7.683195164570657987
0.379000000000000226,7.743392728653207158
0.380000000000000226,7.800957602255188306
0.381000000000000227,7.855856492584498696
0.382000000000000228,7.908059311581624229
0.383000000000000229,7.957539136293567239
0.384000000000000230,8.004272165532222871
0.385000000000000231,8.048237673068578957
0.386000000000000232,8.089417957608551646
0.387000000000000233,8.127798289789701869
0.388000000000000234,8.163366856431636620
0.389000000000000234,8.196114702266260821
0.390000000000000235,8.226035669367263381
0.391000000000000236,8.253126334491046379
0.392000000000000237,8.277385944534721318
0.393000000000000238,8.298816350309259349
0.394000000000000239,8.317421938819057559
0.395000000000000240,8.333209564231946587
0.396000000000000241,8.346188477716610876
0.397000000000000242,8.356370256317108058
0.398000000000000242,8.363768731027409586
0.399000000000000243,8.368399914221566149
0.400000000000000244,8.370281926588539534
0.401000000000000245,8.369434923713392038
0.402000000000000246,8.365881022440387227
0.403000000000000247,8.359644227146407758
0.404000000000000248,8.350750356046864553
0.405000000000000249,8.339226967649768341
0.406000000000000250,8.325103287467392477
0.407000000000000250,8.308410135088848847
0.408000000000000251,8.289179851710937186
0.409000000000000252,8.267446228218679138
0.410000000000000253,8.243244433901534052
0.411000000000000254,8.216610945885410189
0.412000000000000255,8.187583479355678762
0.413000000000000256,8.156200918640688968
0.414000000000000257,8.122503249220788035
0.415000000000000258,8.086531490722464355
0.416000000000000258,8.048327630953027167
0.417000000000000259,8.007934561026235798
0.418000000000000260,7.965396011625270667
0.419000000000000261,7.920756490445041820
0.420000000000000262,7.874061220851819698
0.421000000000000263,7.825356081794273777
0.422000000000000264,7.774687548996351616
0.423000000000000265,7.722102637458722718
0.424000000000000266,7.667648845292191595
0.425000000000000266,7.611374098903143093
0.426000000000000267,7.553326699548078338
0.427000000000000268,7.493555271271110207
0.428000000000000269,7.432108710235690197
0.429000000000000270,7.369036135459039016
0.430000000000000271,7.304386840955058524
0.431000000000000272,7.238210249289368292
0.432000000000000273,7.170555866547563717
0.433000000000000274,7.101473238715738212
0.434000000000000274,7.031011909470175958
0.435000000000000275,6.959221379371355098
0.436000000000000276,6.886151066455414416
0.437000000000000277,6.811850268214554305
0.438000000000000278,6.736368124956416459
0.439000000000000279,6.659753584530756498
0.440000000000000280,6.582055368410462570
0.441000000000000281,6.503321939112781891
0.442000000000000282,6.423601468945063786
0.443000000000000282,6.342941810058756680
0.444000000000000283,6.261390465793763127
0.445000000000000284,6.178994563294855524
0.446000000000000285,6.095800827380651654
0.447000000000000286,6.011855555645011506
0.448000000000000287,5.927204594769951207
0.449000000000000288,5.841893318028623661
0.450000000000000289,5.755966603956158778
0.451000000000000290,5.669468816165895930
0.452000000000000290,5.582443784287871580
0.453000000000000291,5.494934786006184346
0.454000000000000292,5.406984530171468961
0.455000000000000293,5.318635140964389940
0.456000000000000294,5.229928143085965431
0.457000000000000295,5.140904447950248368
0.458000000000000296,5.051604340854703779
0.459000000000000297,4.962067469103773831
0.460000000000000298,4.872332831060672831
0.461000000000000298,4.782438766102941941
0.462000000000000299,4.692422945456784511
0.463000000000000300,4.602322363885696710
0.464000000000000301,4.512173332208713639
0.465000000000000302,4.422011470623942841
0.466000000000000303,4.331871702812860825
0.467000000000000304,4.241788250801450388
0.468000000000000305,4.151794630554102916
0.469000000000000306,4.061923648276581034
0.470000000000000306,3.972207397404615481
0.471000000000000307,3.882677256254799314
0.472000000000000308,3.793363886314939926
0.473000000000000309,3.704297231151090219
0.474000000000000310,3.615506515909096663
0.475000000000000311,3.527020247388298113
0.476000000000000312,3.438866214666199461
0.477000000000000313,3.351071490252154117
0.478000000000000314,3.263662431749601467
0.479000000000000314,3.176664684005902295
0.480000000000000315,3.090103181729639825
0.481000000000000316,3.004002152555508065
0.482000000000000317,2.918385120537265731
0.483000000000000318,2.833274910049688344
0.484000000000000319,2.748693650080780593
0.485000000000000320,2.664662778896015105
0.486000000000000321,2.581203049056599585
0.487000000000000322,2.498334532774361794
0.488000000000000322,2.416076627586078995
0.489000000000000323,2.334448062330696683
0.490000000000000324,2.253466903412974620
0.491000000000000325,2.173150561337861220
0.492000000000000326,2.093515797499991837
0.493000000000000327,2.014578731213354068
0.494000000000000328,1.936354846966373389
0.495000000000000329,1.858859001888199414
0.496000000000000330,1.782105433412322970
0.497000000000000330,1.706107767123999697
0.498000000000000331,1.630879024778453701
0.499000000000000332,1.556431632477185856
0.500000000000000333,1.482777428989937807
0.501000000000000334,1.409927674210510462
0.502000000000000335,1.337893057734783397
0.503000000000000336,1.266683707549820515
0.504000000000000337,1.196309198823080955
0.505000000000000338,1.126778562781431292
0.506000000000000338,1.058100295669702540
0.507000000000000339,0.990282367779032113
0.508000000000000340,0.923332232535605923
0.509000000000000341,0.857256835640642145
0.510000000000000342,0.792062624252868108
0.511000000000000343,0.727755556204991882
0.512000000000000344,0.664341109246086026
0.513000000000000345,0.601824290302056197
0.514000000000000346,0.540209644746570516
0.515000000000000346,0.479501265675386867
0.516000000000000347,0.419702803177008366
0.517000000000000348,0.360817473593091465
0.518000000000000349,0.302848068762183176
0.519000000000000350,0.245796965240773602
0.520000000000000351,0.189666133495728195
0.521000000000000352,0.134457147062600951
0.522000000000000353,0.080171191664526978
0.523000000000000353,0.026809074286500100
0.524000000000000354,-0.025628767799601750
0.525000000000000355,-0.077142258064042596
0.526000000000000356,-0.127731671806492780
0.527000000000000357,-0.177397627305778793
0.528000000000000358,-0.226141077036096844
0.529000000000000359,-0.273963298953200540
0.530000000000000360,-0.320865887854316412
0.531000000000000361,-0.366850746814934348
0.532000000000000361,-0.411920078705701909
0.533000000000000362,-0.456076377792246190
0.534000000000000363,-0.499322421420777540
0.535000000000000364,-0.541661261792013016
0.536000000000000365,-0.583096217825787133
0.537000000000000366,-0.623630867118657894
0.538000000000000367,-0.663269037996523814
0.539000000000000368,-0.702014801664237575
0.540000000000000369,-0.739872464453939283
0.541000000000000369,-0.776846560173779510
0.542000000000000370,-0.812941842558476679
0.543000000000000371,-0.848163277823130057
0.544000000000000372,-0.882516037321452229
0.545000000000000373,-0.916005490309540038
0.546000000000000374,-0.948637196816201067
0.547000000000000375,-0.980416900620619147
0.548000000000000376,-1.011350522338192670
0.549000000000000377,-1.041444152615102592
0.550000000000000377,-1.070704045432250062
0.551000000000000378,-1.099136611518869877
0.552000000000000379,-1.126748411876291600
0.553000000000000380,-1.153546151411999565
0.554000000000000381,-1.179536672684189602
0.555000000000000382,-1.204726949756929733
0.556000000000000383,-1.229124082165825582
0.557000000000000384,-1.252735288994224927
0.558000000000000385,-1.275567903059686703
0.559000000000000385,-1.297629365210589025
0.560000000000000386,-1.318927218732487194
0.561000000000000387,-1.339469103863934585
0.562000000000000388,-1.359262752421268150
0.563000000000000389,-1.378315982531974182
0.564000000000000390,-1.396636693475966640
0.565000000000000391,-1.414232860634307531
0.566000000000000392,-1.431112530544650152
0.567000000000000393,-1.447283816062751249
0.568000000000000393,-1.462754891629275855
0.569000000000000394,-1.477533988641176688
0.570000000000000395,-1.491629390926793253
0.571000000000000396,-1.505049430323766924
0.572000000000000397,-1.517802482358992844
0.573000000000000398,-1.529896962029585694
0.574000000000000399,-1.541341319683918742
0.575000000000000400,-1.552144037001786270
0.576000000000000401,-1.562313623072622004
0.577000000000000401,-1.571858610570793457
0.578000000000000402,-1.580787552026835519
0.579000000000000403,-1.589109016193591684
0.580000000000000404,-1.596831584506142487
0.581000000000000405,-1.603963847634366502
0.582000000000000406,-1.610514402127052325
0.583000000000000407,-1.616491847146293903
0.584000000000000408,-1.621904781291162223
0.585000000000000409,-1.626761799509283124
0.586000000000000409,-1.631071490095248766
0.587000000000000410,-1.634842431774648164
0.588000000000000411,-1.638083190872399841
0.589000000000000412,-1.640802318564325901
0.590000000000000413,-1.643008348210567515
0.591000000000000414,-1.644709792769727175
0.592000000000000415,-1.645915142292478706
0.593000000000000416,-1.646632861493333433
0.594000000000000417,-1.646871387399404751
0.595000000000000417,-1.646639127074899012
0.596000000000000418,-1.645944455420028874
0.597000000000000419,-1.644795713043230023
0.598000000000000420,-1.643201204205287924
0.599000000000000421,-1.641169194834264378
0.600000000000000422,-1.638707910609898732
0.601000000000000423,-1.635825535116286700
0.602000000000000424,-1.632530208061600208
0.603000000000000425,-1.628830023563657914
0.604000000000000425,-1.624733028500020326
0.605000000000000426,-1.620247220921537279
0.606000000000000427,-1.615380548528058569
0.607000000000000428,-1.610140907205082073
0.608000000000000429,-1.604536139620265534
0.609000000000000430,-1.598574033878460199
0.610000000000000431,-1.592262322234260452
0.611000000000000432,-1.585608679860750936
0.612000000000000433,-1.578620723673402004
0.613000000000000433,-1.571306011207934894
0.614000000000000434,-1.563672039551011306
0.615000000000000435,-1.555726244322608531
0.616000000000000436,-1.547475998709020972
0.617000000000000437,-1.538928612545357399
0.618000000000000438,-1.530091331446410852
0.619000000000000439,-1.520971335984858008
