# AuFCC100_CS-66579-AC
# h[nm],U(h)[kJ/mol]
0.200000000000000011,135.680583251497466790
0.201000000000000012,126.486027071413644762
0.202000000000000013,121.429032679682066487
0.203000000000000014,118.217100570004987503
0.204000000000000015,115.576852938145407279
0.205000000000000016,112.874955921243326884
0.206000000000000016,109.861951306240896997
0.207000000000000017,106.503179842149691581
0.208000000000000018,102.870583278641333891
0.209000000000000019,99.076363001716657664
0.210000000000000020,95.234826781903592519
0.211000000000000021,91.442716080561382341
0.212000000000000022,87.771215868811623295
0.213000000000000023,84.264968370588277935
0.214000000000000024,80.944941076629135068
0.215000000000000024,77.813089577962500698
0.216000000000000025,74.857522252370600313
0.217000000000000026,72.057403375775180621
0.218000000000000027,69.387188958114734305
0.219000000000000028,66.820024139157879972
0.220000000000000029,64.330278379385418930
0.221000000000000030,61.895281482568847764
0.222000000000000031,59.496369050989983407
0.223000000000000032,57.119364278688500747
0.224000000000000032,54.754623995649374990
0.225000000000000033,52.396767576786103859
0.226000000000000034,50.044192530852519951
0.227000000000000035,47.698463504524887924
0.228000000000000036,45.363644152077725380
0.229000000000000037,43.045625097803601022
0.230000000000000038,40.751486759217463884
0.231000000000000039,38.488923423286721004
0.232000000000000040,36.265744742024217828
0.233000000000000040,34.089462645653135553
0.234000000000000041,31.966965376587904046
0.235000000000000042,29.904275694389429674
0.236000000000000043,27.906387043509244705
0.237000000000000044,25.977169369064995408
0.238000000000000045,24.119335084498040089
0.239000000000000046,22.334455235356294622
0.240000000000000047,20.623015988420057454
0.241000000000000048,18.984506054495710714
0.242000000000000048,17.417526401647428713
0.243000000000000049,15.919914532250256656
0.244000000000000050,14.488876601968073032
0.245000000000000051,13.121121689851127812
0.246000000000000052,11.812993540146617732
0.247000000000000053,10.560596055077530409
0.248000000000000054,9.359909701439976359
0.249000000000000055,8.206896788643797791
0.250000000000000056,7.097594274768430189
0.251000000000000056,6.028193358503754595
0.252000000000000057,4.995105620517226619
0.253000000000000058,3.995015892630577437
0.254000000000000059,3.024922363855821139
0.255000000000000060,2.082164686659966790
0.256000000000000061,1.164441033216915944
0.257000000000000062,0.269815178462997463
0.258000000000000063,-0.603285237056531032
0.259000000000000064,-1.456078078206818560
0.260000000000000064,-2.289442535734059536
0.261000000000000065,-3.103940242085933665
0.262000000000000066,-3.899840580977368631
0.263000000000000067,-4.677149158275793361
0.264000000000000068,-5.435638482854495912
0.265000000000000069,-6.174879994915516868
0.266000000000000070,-6.894276672436808084
0.267000000000000071,-7.593095540969261315
0.268000000000000071,-8.270499505641335958
0.269000000000000072,-8.925578015058146519
0.270000000000000073,-9.557376153359111726
0.271000000000000074,-10.164921837951883532
0.272000000000000075,-10.747250875617927690
0.273000000000000076,-11.303429698301389550
0.274000000000000077,-11.832575661697896763
0.275000000000000078,-12.333874844683384353
0.276000000000000079,-12.806597335752295308
0.277000000000000079,-13.250110034175273555
0.278000000000000080,-13.663887028833880066
0.279000000000000081,-14.047517647013979314
0.280000000000000082,-14.400712289251098142
0.281000000000000083,-14.723306185066727281
0.282000000000000084,-15.015261218574215363
0.283000000000000085,-15.276665982932019716
0.284000000000000086,-15.507734228939892063
0.285000000000000087,-15.708801876156901045
0.286000000000000087,-15.880322755197042284
0.287000000000000088,-16.022863247733489800
0.288000000000000089,-16.137095986593930519
0.289000000000000090,-16.223792772509852966
0.290000000000000091,-16.283816856909645310
0.291000000000000092,-16.318114731915184024
0.292000000000000093,-16.327707559672255400
0.293000000000000094,-16.313682363554150356
0.294000000000000095,-16.277183093828760718
0.295000000000000095,-16.219401670254434578
0.296000000000000096,-16.141569093923227030
0.297000000000000097,-16.044946710635208831
0.298000000000000098,-15.930817698274969629
0.299000000000000099,-15.800478841164892430
0.300000000000000100,-15.655232645261303759
0.301000000000000101,-15.496379839400244549
0.302000000000000102,-15.325212299632202217
0.303000000000000103,-15.143006426042148860
0.304000000000000103,-14.951016994352951173
0.305000000000000104,-14.750471498068524312
0.306000000000000105,-14.542564990930888058
0.307000000000000106,-14.328455434036559524
0.308000000000000107,-14.109259547075566843
0.309000000000000108,-13.886049158802800108
0.310000000000000109,-13.659848048008793597
0.311000000000000110,-13.431629262903346245
0.312000000000000111,-13.202312903934744881
0.313000000000000111,-12.972764352614955641
0.314000000000000112,-12.743792926878061422
0.315000000000000113,-12.516150941837164368
0.316000000000000114,-12.290533153496756569
0.317000000000000115,-12.067576561992185091
0.318000000000000116,-11.847860550239023070
0.319000000000000117,-11.631907333455060893
0.320000000000000118,-11.420182694838183934
0.321000000000000119,-11.213096982720742290
0.322000000000000119,-11.011006344749361574
0.323000000000000120,-10.814214175035496979
0.324000000000000121,-10.622972750764429151
0.325000000000000122,-10.437485035418525570
0.326000000000000123,-10.257906626544309958
0.327000000000000124,-10.084347826854905605
0.328000000000000125,-9.916875818394233377
0.329000000000000126,-9.755516920479109899
0.330000000000000127,-9.600258913169005481
0.331000000000000127,-9.451053409077470491
0.332000000000000128,-9.307818257421002883
0.333000000000000129,-9.170439965293201823
0.334000000000000130,-9.038776122242678568
0.335000000000000131,-8.912657815316702425
0.336000000000000132,-8.791892022799649098
0.337000000000000133,-8.676263975922287486
0.338000000000000134,-8.565539478837324694
0.339000000000000135,-8.459467178146230282
0.340000000000000135,-8.357780774216262643
0.341000000000000136,-8.260201167443705472
0.342000000000000137,-8.166438533496144458
0.343000000000000138,-8.076194322401599734
0.344000000000000139,-7.989163177144151362
0.345000000000000140,-7.905034768173928583
0.346000000000000141,-7.823495540942339233
0.347000000000000142,-7.744230374232563108
0.348000000000000143,-7.666924147670028056
0.349000000000000143,-7.591263217367947291
0.350000000000000144,-7.516936799191038077
0.351000000000000145,-7.443638259605852348
0.352000000000000146,-7.371066314530753338
0.353000000000000147,-7.298926137003361347
0.354000000000000148,-7.226930374849925620
0.355000000000000149,-7.154800079870520690
0.356000000000000150,-7.082265550348753713
0.357000000000000151,-7.009067088955259983
0.358000000000000151,-6.934955678343397878
0.359000000000000152,-6.859693576934070336
0.360000000000000153,-6.783054837557005889
0.361000000000000154,-6.704825751759067032
0.362000000000000155,-6.624805222708339159
0.363000000000000156,-6.542805069717735122
0.364000000000000157,-6.458650267484391527
0.365000000000000158,-6.372179123194411154
0.366000000000000159,-6.283243394675935178
0.367000000000000159,-6.191708352800651127
0.368000000000000160,-6.097452791335081557
0.369000000000000161,-6.000368987429380851
0.370000000000000162,-5.900362615905370589
0.371000000000000163,-5.797352620467690620
0.372000000000000164,-5.691271044912979526
0.373000000000000165,-5.582062827354770995
0.374000000000000166,-5.469685560415110004
0.375000000000000167,-5.354109220260772517
0.376000000000000167,-5.235315867282406721
0.377000000000000168,-5.113299321129527897
0.378000000000000169,-4.988064812725044206
0.379000000000000170,-4.859628615789634232
0.380000000000000171,-4.728017660309707715
0.381000000000000172,-4.593269130284484802
0.382000000000000173,-4.455430047986895126
0.383000000000000174,-4.314556846871997031
0.384000000000000175,-4.170714935164147263
0.385000000000000175,-4.023978252052293314
0.386000000000000176,-3.874428818320700518
0.387000000000000177,-3.722156283141369038
0.388000000000000178,-3.567257468654479347
0.389000000000000179,-3.409835913864263546
0.390000000000000180,-3.250001419281136172
0.391000000000000181,-3.087869593645431010
0.392000000000000182,-2.923561403975825534
0.393000000000000183,-2.757202730094272081
0.394000000000000183,-2.588923924691978407
0.395000000000000184,-2.418859379915177854
0.396000000000000185,-2.247147101366839372
0.397000000000000186,-2.073928290341055636
0.398000000000000187,-1.899346935029730732
0.399000000000000188,-1.723549411367343964
0.400000000000000189,-1.546684094109196383
0.401000000000000190,-1.368900978670009039
0.402000000000000191,-1.190351314186045339
0.403000000000000191,-1.011187248201203204
0.404000000000000192,-0.831561483319717354
0.405000000000000193,-0.651626946111968808
0.406000000000000194,-0.471536468507414264
0.407000000000000195,-0.291442481858953550
0.408000000000000196,-0.111496723815890181
0.409000000000000197,0.068150041901234484
0.410000000000000198,0.247348292771980283
0.411000000000000199,0.425950001780482979
0.412000000000000199,0.603808878775983549
0.413000000000000200,0.780780598945752358
0.414000000000000201,0.956723018488156662
0.415000000000000202,1.131496377602361658
0.416000000000000203,1.304963490937218529
0.417000000000000204,1.476989925667042014
0.418000000000000205,1.647444167383280034
0.419000000000000206,1.816197774011829580
0.420000000000000207,1.983125517984116515
0.421000000000000207,2.148105516905739698
0.422000000000000208,2.311019352982216724
0.423000000000000209,2.471752181473291010
0.424000000000000210,2.630192828459428256
0.425000000000000211,2.786233878213633997
0.426000000000000212,2.939771750480237422
0.427000000000000213,3.090706767969502167
0.428000000000000214,3.238943214382491220
0.429000000000000214,3.384389383285642872
0.430000000000000215,3.526957618157654739
0.431000000000000216,3.666564343933720327
0.432000000000000217,3.803130090374033934
0.433000000000000218,3.936579507583465976
0.434000000000000219,4.066841374009319665
0.435000000000000220,4.193848597242876508
0.436000000000000221,4.317538207948561357
0.437000000000000222,4.437851347242039779
0.438000000000000222,4.554733247835370591
0.439000000000000223,4.668133209263517713
0.440000000000000224,4.778004567502533106
0.441000000000000225,4.884304659284680383
0.442000000000000226,4.986994781410579947
0.443000000000000227,5.086040145353343256
0.444000000000000228,5.181409827443125948
0.445000000000000229,5.273076714914867402
0.446000000000000230,5.361017448095052096
0.447000000000000230,5.445212358997054025
0.448000000000000231,5.525645406587284647
0.449000000000000232,5.602304108977519626
0.450000000000000233,5.675179472791578306
0.451000000000000234,5.744265919946878185
0.452000000000000235,5.809561212084386028
0.453000000000000236,5.871066372872641104
0.454000000000000237,5.928785608404020024
0.455000000000000238,5.982726225894131389
0.456000000000000238,6.032898550887184186
0.457000000000000239,6.079315843163176858
0.458000000000000240,6.121994211534629748
0.459000000000000241,6.160952527713733140
0.460000000000000242,6.196212339422791260
0.461000000000000243,6.227797782914008096
0.462000000000000244,6.255735495057008322
0.463000000000000245,6.280054525145688515
0.464000000000000246,6.300786246568658377
0.465000000000000246,6.317964268480777967
0.466000000000000247,6.331624347606457981
0.467000000000000248,6.341804300298770514
0.468000000000000249,6.348543914971735980
0.469000000000000250,6.351884865016939941
0.470000000000000251,6.351870622309318648
0.471000000000000252,6.348546371400884070
0.472000000000000253,6.341958924495131988
0.473000000000000254,6.332156637289293677
0.474000000000000254,6.319189325765857568
0.475000000000000255,6.303108184009222903
0.476000000000000256,6.283965703118419732
0.477000000000000257,6.261815591281253646
0.478000000000000258,6.236712695070599111
0.479000000000000259,6.208712922018721159
0.480000000000000260,6.177873164520685023
0.481000000000000261,6.144251225113723791
0.482000000000000262,6.107905743174819158
0.483000000000000262,6.068896123074977389
0.484000000000000263,6.027282463824248815
0.485000000000000264,5.983125490238208499
0.486000000000000265,5.936486485652389788
0.487000000000000266,5.887427226208141740
0.488000000000000267,5.836009916729755886
0.489000000000000268,5.782297128209355819
0.490000000000000269,5.726351736913374069
0.491000000000000270,5.668236865121008883
0.492000000000000270,5.608015823502673136
0.493000000000000271,5.545752055143408299
0.494000000000000272,5.481509081214193557
0.495000000000000273,5.415350448290921825
0.496000000000000274,5.347339677319448370
0.497000000000000275,5.277540214222259607
0.498000000000000276,5.206015382140441794
0.499000000000000277,5.132828335303075917
0.500000000000000222,5.058042014513686624
0.501000000000000334,4.981719104242467111
0.502000000000000224,4.903921991310710382
0.503000000000000336,4.824712725152787485
0.504000000000000226,4.744152979639642886
0.505000000000000338,4.662304016446042532
0.506000000000000227,4.579226649943328731
0.507000000000000339,4.494981213597478487
0.508000000000000229,4.409627527852142848
0.509000000000000341,4.323224869474339371
0.510000000000000231,4.235831942340836598
0.511000000000000343,4.147506849641169779
0.512000000000000233,4.058307067473817753
0.513000000000000345,3.968289419810104413
0.514000000000000234,3.877510054801129424
0.515000000000000346,3.786024422401227163
0.516000000000000236,3.693887253282299721
0.517000000000000348,3.601152539011589937
0.518000000000000238,3.507873513466620352
0.519000000000000350,3.414102635459150381
0.520000000000000240,3.319891572541385560
0.521000000000000352,3.225291185965958540
0.522000000000000242,3.130351516772492015
0.523000000000000353,3.035121772971989706
0.524000000000000243,2.939650317801848267
0.525000000000000355,2.843984659022677608
0.526000000000000245,2.748171439229584401
0.527000000000000357,2.652256427149286999
0.528000000000000247,2.556284509895862644
0.529000000000000359,2.460299686156797172
0.530000000000000249,2.364345060282198041
0.531000000000000361,2.268462837249374253
0.532000000000000250,2.172694318476017017
0.533000000000000362,2.077079898454426754
0.534000000000000252,1.981659062180870734
0.535000000000000364,1.886470383352602642
0.536000000000000254,1.791551523307548077
0.537000000000000366,1.696939230679704425
0.538000000000000256,1.602669341745717180
0.539000000000000368,1.508776781436659498
0.540000000000000258,1.415295564990956212
0.541000000000000369,1.322258800223204522
0.542000000000000259,1.229698690385778947
0.543000000000000371,1.137646537598644425
0.544000000000000261,1.046132746824804283
0.545000000000000373,0.955186830368121020
0.546000000000000263,0.864837412871475975
0.547000000000000375,0.775112236792634635
0.548000000000000265,0.686038168337151033
0.549000000000000377,0.597641203826160039
0.550000000000000266,0.509946476479313793
0.551000000000000378,0.422978263591789638
0.552000000000000268,0.336759994086201331
0.553000000000000380,0.251314256419544690
0.554000000000000270,0.166662806826691517
0.555000000000000382,0.082826577881511973
0.556000000000000272,-0.000174312641957863
0.557000000000000384,-0.082320552626249571
0.558000000000000274,-0.163593626201992526
0.559000000000000385,-0.243975804091126236
0.560000000000000275,-0.323450133717813615
0.561000000000000387,-0.402000429103195167
0.562000000000000277,-0.479611260558942987
0.563000000000000389,-0.556267944195060648
0.564000000000000279,-0.631956531255940313
0.565000000000000391,-0.706663797299271534
0.566000000000000281,-0.780377231230969470
0.567000000000000393,-0.853085024209919829
0.568000000000000282,-0.924776058434868986
0.569000000000000394,-0.995439895826451648
0.570000000000000284,-1.065066766615746729
0.571000000000000396,-1.133647557851812593
0.572000000000000286,-1.201173801838697042
0.573000000000000398,-1.267637664513405316
0.574000000000000288,-1.333031933774892375
0.575000000000000400,-1.397350007774650127
0.576000000000000290,-1.460585883178164623
0.577000000000000401,-1.522734143407226792
0.578000000000000291,-1.583789946871634768
0.579000000000000403,-1.643749015199439611
0.580000000000000293,-1.702607621473761768
0.581000000000000405,-1.760362578484669260
0.582000000000000295,-1.817011227003272777
0.583000000000000407,-1.872551424086141392
0.584000000000000297,-1.926981531416437576
0.585000000000000409,-1.980300403689248423
0.586000000000000298,-2.032507377047001462
0.587000000000000410,-2.083602257571749661
0.588000000000000300,-2.133585309839725497
0.589000000000000412,-2.182457245544329627
0.590000000000000302,-2.230219212192465328
0.591000000000000414,-2.276872781879764052
0.592000000000000304,-2.322419940149234918
0.593000000000000416,-2.366863074938176048
0.594000000000000306,-2.410204965617575024
0.595000000000000417,-2.452448772128313248
0.596000000000000307,-2.493598024217806408
0.597000000000000419,-2.533656610781058305
0.598000000000000309,-2.572628769309420971
0.599000000000000421,-2.610519075450303372
0.600000000000000311,-2.647332432680956416
0.601000000000000423,-2.683074062099203960
0.602000000000000313,-2.717749492333533468
0.603000000000000425,-2.751364549575444851
0.604000000000000314,-2.783925347735823230
0.605000000000000426,-2.815438278727931287
0.606000000000000316,-2.845910002878550671
0.607000000000000428,-2.875347439469321920
0.608000000000000318,-2.903757757409762164
0.609000000000000430,-2.931148366043466957
0.610000000000000320,-2.957526906088701502
0.611000000000000432,-2.982901240714741053
0.612000000000000322,-3.007279446754742569
0.613000000000000433,-3.030669806056220494
0.614000000000000323,-3.053080796969818156
0.615000000000000435,-3.074521085977003576
0.616000000000000325,-3.094999519457140913
0.617000000000000437,-3.114525115594525495
0.618000000000000327,-3.133107056425429526
0.619000000000000439,-3.150754680025506627
0.620000000000000329,-3.167477472837577412
0.621000000000000441,-3.183285062139732169
0.622000000000000330,-3.198187208653719082
0.623000000000000442,-3.212193799293360907
0.624000000000000332,-3.225314840052642129
0.625000000000000444,-3.237560449033264121
0.626000000000000334,-3.248940849611005710
0.627000000000000446,-3.259466363740508577
0.628000000000000336,-3.269147405397811124
0.629000000000000448,-3.277994474159991345
0.630000000000000338,-3.286018148921094451
0.631000000000000449,-3.293229081743704878
0.632000000000000339,-3.299637991845140395
0.633000000000000451,-3.305255659717424521
0.634000000000000341,-3.310092921380037190
0.635000000000000453,-3.314160662764513265
0.636000000000000343,-3.317469814229632163
0.637000000000000455,-3.320031345206310824
0.638000000000000345,-3.321856258970817599
0.639000000000000457,-3.322955587545313616
0.640000000000000346,-3.323340386724311202
0.641000000000000458,-3.323021731225923592
0.642000000000000348,-3.322010709966490616
0.643000000000000460,-3.320318421457316926
0.644000000000000350,-3.317955969322135878
0.645000000000000462,-3.314934457933893519
0.646000000000000352,-3.311264988169461354
0.647000000000000464,-3.306958653280859917
0.648000000000000353,-3.302026534881490338
0.649000000000000465,-3.296479699045908429
0.650000000000000355,-3.290329192521724622
0.651000000000000467,-3.283586039051960004
0.652000000000000357,-3.276261235806580796
0.653000000000000469,-3.268365749921350982
0.654000000000000359,-3.259910515142846243
0.655000000000000471,-3.250906428577719165
0.656000000000000361,-3.241364347544896329
0.657000000000000473,-3.231295086529016203
0.658000000000000362,-3.220709414233601908
0.659000000000000474,-3.209618050732355954
0.660000000000000364,-3.198031664717015499
0.661000000000000476,-3.185960870840177872
0.662000000000000366,-3.173416227151548696
0.663000000000000478,-3.160408232625962377
0.664000000000000368,-3.146947324781693478
0.665000000000000480,-3.133043877387410969
