# AuFCC100_ADENINE
# h[nm],U(h)[kJ/mol]
0.149999999999999994,143.339863461684132062
0.150999999999999995,138.931361075681394368
0.151999999999999996,133.953951403704763834
0.152999999999999997,128.924666073210829609
0.153999999999999998,124.061981170097823224
0.154999999999999999,119.425142636931198581
0.156000000000000000,114.998336702317530467
0.157000000000000001,110.738792259495085091
0.158000000000000002,106.602013825510510969
0.159000000000000002,102.553091326800768002
0.160000000000000003,98.570007710425073810
0.161000000000000004,94.642748414979195104
0.162000000000000005,90.770562976455181570
0.163000000000000006,86.958752688412616294
0.164000000000000007,83.215720257012350203
0.165000000000000008,79.550615118615141341
0.166000000000000009,75.971666714039798762
0.167000000000000010,72.485163812691638441
0.168000000000000010,69.094972971664887496
0.169000000000000011,65.802467032493808574
0.170000000000000012,62.606737285137612048
0.171000000000000013,59.504978710442891554
0.172000000000000014,56.492958973049780980
0.173000000000000015,53.565503965509016382
0.174000000000000016,50.716953099057896281
0.175000000000000017,47.941554918045810041
0.176000000000000018,45.233787543737101089
0.177000000000000018,42.588598993784650304
0.178000000000000019,40.001569918154736172
0.179000000000000020,37.469006211109096682
0.180000000000000021,34.987971806539825081
0.181000000000000022,32.556273222901310760
0.182000000000000023,30.172407524085304686
0.183000000000000024,27.835484667756702493
0.184000000000000025,25.545134018143109245
0.185000000000000026,23.301403336265003929
0.186000000000000026,21.104656999401779416
0.187000000000000027,18.955478666201322824
0.188000000000000028,16.854582176779025815
0.189000000000000029,14.802733208865262782
0.190000000000000030,12.800683127401487837
0.191000000000000031,10.849115573656051836
0.192000000000000032,8.948605635818671189
0.193000000000000033,7.099590912511700935
0.194000000000000034,5.302353404976633655
0.195000000000000034,3.557010931506334295
0.196000000000000035,1.863516626970630696
0.197000000000000036,0.221665049602009029
0.198000000000000037,-1.368896553348227796
0.199000000000000038,-2.908653187795704920
0.200000000000000039,-4.398204511246587067
0.201000000000000040,-5.838245794121109888
0.202000000000000041,-7.229548396390157450
0.203000000000000042,-8.572940553908507511
0.204000000000000042,-9.869289113792053314
0.205000000000000043,-11.119482711174617506
0.206000000000000044,-12.324416744248289035
0.207000000000000045,-13.484980382925929376
0.208000000000000046,-14.602045740041669220
0.209000000000000047,-15.676459243166409152
0.210000000000000048,-16.709035169674368859
0.211000000000000049,-17.700551246982612952
0.212000000000000050,-18.651746172896199738
0.213000000000000050,-19.563318876486299303
0.214000000000000051,-20.435929316549124479
0.215000000000000052,-21.270200601012785313
0.216000000000000053,-22.066722205256667166
0.217000000000000054,-22.826054068810293529
0.218000000000000055,-23.548731357006580822
0.219000000000000056,-24.235269685680592033
0.220000000000000057,-24.886170621849895923
0.221000000000000058,-25.501927290514629476
0.222000000000000058,-26.083029936446699537
0.223000000000000059,-26.629971309364897536
0.224000000000000060,-27.143251760619968138
0.225000000000000061,-27.623383958939619731
0.226000000000000062,-28.070897151507910650
0.227000000000000063,-28.486340914368856403
0.228000000000000064,-28.870288352617940575
0.229000000000000065,-29.223338725918175385
0.230000000000000066,-29.546119488445420131
0.231000000000000066,-29.839287744383398149
0.232000000000000067,-30.103531130541409055
0.233000000000000068,-30.339568146584912967
0.234000000000000069,-30.548147960804051593
0.235000000000000070,-30.730049725372857949
0.236000000000000071,-30.886081439763010792
0.237000000000000072,-31.017078404473398479
0.238000000000000073,-31.123901309627438394
0.239000000000000073,-31.207434004387277326
0.240000000000000074,-31.268580993651188038
0.241000000000000075,-31.308264708247641295
0.242000000000000076,-31.327422593924115546
0.243000000000000077,-31.327004062955658981
0.244000000000000078,-31.307967350261787232
0.245000000000000079,-31.271276313610922415
0.246000000000000080,-31.217897214893799429
0.247000000000000081,-31.148795516633690283
0.248000000000000081,-31.064932724941165532
0.249000000000000082,-30.967263307074176737
0.250000000000000111,-30.856731708683433624
0.251000000000000112,-30.734269492753668374
0.252000000000000113,-30.600792619233935454
0.253000000000000114,-30.457198881415600056
0.254000000000000115,-30.304365512294896945
0.255000000000000115,-30.143146971467650985
0.256000000000000116,-29.974372920565230061
0.257000000000000117,-29.798846392866515487
0.258000000000000118,-29.617342160517335259
0.259000000000000119,-29.430605300764966614
0.260000000000000120,-29.239349960771523484
0.261000000000000121,-29.044258318906305050
0.262000000000000122,-28.845979738933078096
0.263000000000000123,-28.645130112197129790
0.264000000000000123,-28.442291381775845593
0.265000000000000124,-28.238011241575954102
0.266000000000000125,-28.032803002535899850
0.267000000000000126,-27.827145617410270262
0.268000000000000127,-27.621483855070085411
0.269000000000000128,-27.416228614835318922
0.270000000000000129,-27.211757371056421562
0.271000000000000130,-27.008414737968603703
0.272000000000000131,-26.806513144749210653
0.273000000000000131,-26.606333610701135228
0.274000000000000132,-26.408126610559200742
0.275000000000000133,-26.212113020059131685
0.276000000000000134,-26.018485132113806202
0.277000000000000135,-25.827407734200097167
0.278000000000000136,-25.639019237863898582
0.279000000000000137,-25.453432851593898789
0.280000000000000138,-25.270737788690208703
0.281000000000000139,-25.091000502154219731
0.282000000000000139,-24.914265939047211873
0.283000000000000140,-24.740558807200706326
0.284000000000000141,-24.569884847606839884
0.285000000000000142,-24.402232106268236578
0.286000000000000143,-24.237572199739453538
0.287000000000000144,-24.075861569042835697
0.288000000000000145,-23.917042717087905856
0.289000000000000146,-23.761045425161611888
0.290000000000000147,-23.607787944485327358
0.291000000000000147,-23.457178159251022009
0.292000000000000148,-23.309114717952198248
0.293000000000000149,-23.163488130212993354
0.294000000000000150,-23.020181826690478744
0.295000000000000151,-22.879073179980409236
0.296000000000000152,-22.740034484792932545
0.297000000000000153,-22.602933895984467227
0.298000000000000154,-22.467636323331234394
0.299000000000000155,-22.334004282212355008
0.300000000000000155,-22.201898699633073164
0.301000000000000156,-22.071179675263056907
0.302000000000000157,-21.941707197391277617
0.303000000000000158,-21.813341813907076272
0.304000000000000159,-21.685945258608178676
0.305000000000000160,-21.559381033309996667
0.306000000000000161,-21.433514946388356748
0.307000000000000162,-21.308215608529494034
0.308000000000000163,-21.183354886587402177
0.309000000000000163,-21.058808316561105300
0.310000000000000164,-20.934455476802384055
0.311000000000000165,-20.810180322649845408
0.312000000000000166,-20.685871483757985345
0.313000000000000167,-20.561422525451206411
0.314000000000000168,-20.436732175482802631
0.315000000000000169,-20.311704517619247667
0.316000000000000170,-20.186249153500501308
0.317000000000000171,-20.060281334248923457
0.318000000000000171,-19.933722063312611539
0.319000000000000172,-19.806498172035567507
0.320000000000000173,-19.678542369445768401
0.321000000000000174,-19.549793267745346981
0.322000000000000175,-19.420195384974185515
0.323000000000000176,-19.289699126300380527
0.324000000000000177,-19.158260745368316691
0.325000000000000178,-19.025842287108297057
0.326000000000000179,-18.892411513381805577
0.327000000000000179,-18.757941812802279458
0.328000000000000180,-18.622412096035354523
0.329000000000000181,-18.485806677844166757
0.330000000000000182,-18.348115147103676748
0.331000000000000183,-18.209332225966853969
0.332000000000000184,-18.069457619320932196
0.333000000000000185,-17.928495855627765820
0.334000000000000186,-17.786456120196859843
0.335000000000000187,-17.643352081893414862
0.336000000000000187,-17.499201714238012073
0.337000000000000188,-17.354027111807663886
0.338000000000000189,-17.207854302802637392
0.339000000000000190,-17.060713058596924441
0.340000000000000191,-16.912636701045233423
0.341000000000000192,-16.763661908275064860
0.342000000000000193,-16.613828519647466209
0.343000000000000194,-16.463179340528188987
0.344000000000000195,-16.311759947467713516
0.345000000000000195,-16.159618494348361395
0.346000000000000196,-16.006805520016136768
0.347000000000000197,-15.853373757876349615
0.348000000000000198,-15.699377947894507912
0.349000000000000199,-15.544874651407434740
0.350000000000000200,-15.389922069114811976
0.351000000000000201,-15.234579862587242616
0.352000000000000202,-15.078908979594967121
0.353000000000000203,-14.922971483530062642
0.354000000000000203,-14.766830387165304828
0.355000000000000204,-14.610549490964661601
0.356000000000000205,-14.454193226133352113
0.357000000000000206,-14.297826502569762397
0.358000000000000207,-14.141514561857022159
0.359000000000000208,-13.985322835409439435
0.360000000000000209,-13.829316807866735672
0.361000000000000210,-13.673561885808837246
0.362000000000000210,-13.518123271844606492
0.363000000000000211,-13.363065844109764058
0.364000000000000212,-13.208454041192444706
0.365000000000000213,-13.054351752488802418
0.366000000000000214,-12.900822213976619324
0.367000000000000215,-12.747927909380980083
0.368000000000000216,-12.595730476693640654
0.369000000000000217,-12.444290619995809877
0.370000000000000218,-12.293668026523640435
0.371000000000000218,-12.143921288905575651
0.372000000000000219,-11.995107832492010402
0.373000000000000220,-11.847283847689523029
0.374000000000000221,-11.700504227204550745
0.375000000000000222,-11.554822508094858335
0.376000000000000223,-11.410290818521332312
0.377000000000000224,-11.266959829087340950
0.378000000000000225,-11.124878708648582304
0.379000000000000226,-10.984095084472174975
0.380000000000000226,-10.844655006620696369
0.381000000000000227,-10.706602916433761052
0.382000000000000228,-10.569981618977875470
0.383000000000000229,-10.434832259333125748
0.384000000000000230,-10.301194302584079310
0.385000000000000231,-10.169105517381584747
0.386000000000000232,-10.038601962941205770
0.387000000000000233,-9.909717979344275562
0.388000000000000234,-9.782486181007495674
0.389000000000000234,-9.656937453187776299
0.390000000000000235,-9.533100951389489097
0.391000000000000236,-9.411004103542774502
0.392000000000000237,-9.290672614822447883
0.393000000000000238,-9.172130474979109493
0.394000000000000239,-9.055399968055253268
0.395000000000000240,-8.940501684361633394
0.396000000000000241,-8.827454534590982504
0.397000000000000242,-8.716275765948436671
0.398000000000000242,-8.606980980180663821
0.399000000000000243,-8.499584153387957031
0.400000000000000244,-8.394097657506211618
0.401000000000000245,-8.290532283348788667
0.402000000000000246,-8.188897265100550271
0.403000000000000247,-8.089200306159435527
0.404000000000000248,-7.991447606224158839
0.405000000000000249,-7.895643889529035064
0.406000000000000250,-7.801792434130414122
0.407000000000000250,-7.709895102151897106
0.408000000000000251,-7.619952370898749550
0.409000000000000252,-7.531963364754950874
0.410000000000000253,-7.445925887779134555
0.411000000000000254,-7.361836456919149896
0.412000000000000255,-7.279690335767480924
0.413000000000000256,-7.199481568783239638
0.414000000000000257,-7.121203015909005174
0.415000000000000258,-7.044846387514075658
0.416000000000000258,-6.970402279598383544
0.417000000000000259,-6.897860209194226044
0.418000000000000260,-6.827208649905979421
0.419000000000000261,-6.758435067530330187
0.420000000000000262,-6.691525955702809725
0.421000000000000263,-6.626466871518711166
0.422000000000000264,-6.563242471079121287
0.423000000000000265,-6.501836544915567728
0.424000000000000266,-6.442232053249158596
0.425000000000000266,-6.384411161042456762
0.426000000000000267,-6.328355272804828680
0.427000000000000268,-6.274045067114336405
0.428000000000000269,-6.221460530821401491
0.429000000000000270,-6.170580992901713024
0.430000000000000271,-6.121385157928007636
0.431000000000000272,-6.073851139132369070
0.432000000000000273,-6.027956491032666619
0.433000000000000274,-5.983678241598755498
0.434000000000000274,-5.940992923935920267
0.435000000000000275,-5.899876607464713985
0.436000000000000276,-5.860304928578337957
0.437000000000000277,-5.822253120760068512
0.438000000000000278,-5.785696044145145045
0.439000000000000279,-5.750608214512910266
0.440000000000000280,-5.716963831696503462
0.441000000000000281,-5.684736807398868663
0.442000000000000282,-5.653900792405275766
0.443000000000000282,-5.624429203183671788
0.444000000000000283,-5.596295247865666234
0.445000000000000284,-5.569471951602008808
0.446000000000000285,-5.543932181287539507
0.447000000000000286,-5.519648669651891382
0.448000000000000287,-5.496594038712954600
0.449000000000000288,-5.474740822591377842
0.450000000000000289,-5.454061489685187780
0.451000000000000290,-5.434528464204463560
0.452000000000000290,-5.416114147066988238
0.453000000000000291,-5.398790936156444786
0.454000000000000292,-5.382531245945604503
0.455000000000000293,-5.367307526487540947
0.456000000000000294,-5.353092281778719652
0.457000000000000295,-5.339858087498273065
0.458000000000000296,-5.327577608128541975
0.459000000000000297,-5.316223613462339515
0.460000000000000298,-5.305768994503074154
0.461000000000000298,-5.296186778764151448
0.462000000000000299,-5.287450144974796373
0.463000000000000300,-5.279532437199508266
0.464000000000000301,-5.272407178379086901
0.465000000000000302,-5.266048083301219762
0.466000000000000303,-5.260429071009202318
0.467000000000000304,-5.255524276657391525
0.468000000000000305,-5.251308062822542588
0.469000000000000306,-5.247755030280176314
0.470000000000000306,-5.244840028255488562
0.471000000000000307,-5.242538164158403013
0.472000000000000308,-5.240824812812730826
0.473000000000000309,-5.239675625189210706
0.474000000000000310,-5.239066536652687844
0.475000000000000311,-5.238973774733596933
0.476000000000000312,-5.239373866434038796
0.477000000000000313,-5.240243645078812129
0.478000000000000314,-5.241560256721835565
0.479000000000000314,-5.243301166118479628
0.480000000000000315,-5.245444162274162991
0.481000000000000316,-5.247967363579873812
0.482000000000000317,-5.250849222544965222
0.483000000000000318,-5.254068530137780968
0.484000000000000319,-5.257604419744526858
0.485000000000000320,-5.261436370756793934
0.486000000000000321,-5.265544211798090402
0.487000000000000322,-5.269908123599651439
0.488000000000000322,-5.274508641535755160
0.489000000000000323,-5.279326657828675273
0.490000000000000324,-5.284343423433337072
0.491000000000000325,-5.289540549611599474
0.492000000000000326,-5.294900009206003233
0.493000000000000327,-5.300404137622772183
0.494000000000000328,-5.306035633533600304
0.495000000000000329,-5.311777559305838281
0.496000000000000330,-5.317613341170321917
0.497000000000000330,-5.323526769136181613
0.498000000000000331,-5.329501996661692331
0.499000000000000332,-5.335523540090089334
0.500000000000000333,-5.341576277859261701
0.501000000000000334,-5.347645449493898973
0.502000000000000335,-5.353716654388668061
0.503000000000000336,-5.359775850390755991
0.504000000000000337,-5.365809352190044734
0.505000000000000338,-5.371803829524885110
0.506000000000000338,-5.377746305211475786
0.507000000000000339,-5.383624153004521240
0.508000000000000340,-5.389425095296762613
0.509000000000000341,-5.395137200664819943
0.510000000000000342,-5.400748881268591539
0.511000000000000343,-5.406248890111315930
0.512000000000000344,-5.411626318167234828
0.513000000000000345,-5.416870591383603717
0.514000000000000346,-5.421971467563748703
0.515000000000000346,-5.426919033137511228
0.516000000000000347,-5.431703699825449760
0.517000000000000348,-5.436316201202949117
0.518000000000000349,-5.440747589170126020
0.519000000000000350,-5.444989230333448837
0.520000000000000351,-5.449032802304693668
0.521000000000000352,-5.452870289922747027
0.522000000000000353,-5.456493981403585103
0.523000000000000353,-5.459896464423733775
0.524000000000000354,-5.463070622142129018
0.525000000000000355,-5.466009629165424322
0.526000000000000356,-5.468706947461373424
0.527000000000000357,-5.471156322225022350
0.528000000000000358,-5.473351777702156973
0.529000000000000359,-5.475287612974232943
0.530000000000000360,-5.476958397709192461
0.531000000000000361,-5.478358967882014596
0.532000000000000361,-5.479484421469111410
0.533000000000000362,-5.480330114120194551
0.534000000000000363,-5.480891654811445690
0.535000000000000364,-5.481164901483393415
0.536000000000000365,-5.481145956666982677
0.537000000000000366,-5.480831163101134607
0.538000000000000367,-5.480217099344893761
0.539000000000000368,-5.479300575387340722
0.540000000000000369,-5.478078628258062466
0.541000000000000369,-5.476548517641142588
0.542000000000000370,-5.474707721495282620
0.543000000000000371,-5.472553931682708317
0.544000000000000372,-5.470085049609369143
0.545000000000000373,-5.467299181878797043
0.546000000000000374,-5.464194635961925783
0.547000000000000375,-5.460769915885083314
0.548000000000000376,-5.457023717938255913
0.549000000000000377,-5.452954926405596758
0.550000000000000377,-5.448562609320132921
0.551000000000000378,-5.443846014244458686
0.552000000000000379,-5.438804564079182668
0.553000000000000380,-5.433437852900753207
0.554000000000000381,-5.427745641830219014
0.555000000000000382,-5.421727854934490054
0.556000000000000383,-5.415384575161366065
0.557000000000000384,-5.408716040309811568
0.558000000000000385,-5.401722639036618645
0.559000000000000385,-5.394404906900726715
0.560000000000000386,-5.386763522446241126
0.561000000000000387,-5.378799303325254577
0.562000000000000388,-5.370513202461417279
0.563000000000000389,-5.361906304255186662
0.564000000000000390,-5.352979820831577307
0.565000000000000391,-5.343735088331269090
0.566000000000000392,-5.334173563245729000
0.567000000000000393,-5.324296818797102482
0.568000000000000393,-5.314106541363399216
0.569000000000000394,-5.303604526949637687
0.570000000000000395,-5.292792677705453919
0.571000000000000396,-5.281672998489522541
0.572000000000000397,-5.270247593481402149
0.573000000000000398,-5.258518662841023428
0.574000000000000399,-5.246488499416214424
0.575000000000000400,-5.234159485498549813
0.576000000000000401,-5.221534089627733799
0.577000000000000401,-5.208614863444768872
0.578000000000000402,-5.195404438594036556
0.579000000000000403,-5.181905523674424252
0.580000000000000404,-5.168120901239614540
0.581000000000000405,-5.154053424847568010
0.582000000000000406,-5.139706016159234281
0.583000000000000407,-5.125081662086469869
0.584000000000000408,-5.110183411989177138
0.585000000000000409,-5.095014374921522204
0.586000000000000409,-5.079577716927165199
0.587000000000000410,-5.063876658383449580
0.588000000000000411,-5.047914471394273406
0.589000000000000412,-5.031694477231588358
0.590000000000000413,-5.015220043825251217
0.591000000000000414,-4.998494583301065219
0.592000000000000415,-4.981521549566748419
0.593000000000000416,-4.964304435945539495
0.594000000000000417,-4.946846772857229624
0.595000000000000417,-4.929152125546276686
0.596000000000000418,-4.911224091856674079
0.597000000000000419,-4.893066300053307671
0.598000000000000420,-4.874682406689355929
0.599000000000000421,-4.856076094519501396
0.600000000000000422,-4.837251070458425062
0.601000000000000423,-4.818211063584333154
0.602000000000000424,-4.798959823187018969
0.603000000000000425,-4.779501116860122245
0.604000000000000425,-4.759838728637069138
0.605000000000000426,-4.739976457170365975
0.606000000000000427,-4.719918113953728955
0.607000000000000428,-4.699667521586594177
0.608000000000000429,-4.679228512080626068
