# AuFCC100_ALANINEZWITTER
# h[nm],U(h)[kJ/mol]
0.200000000000000011,135.160753719421791175
0.201000000000000012,127.891836894566694127
0.202000000000000013,123.299002583246121389
0.203000000000000014,119.942152042970946013
0.204000000000000015,117.011722879020979349
0.205000000000000016,114.096580573263011615
0.206000000000000016,111.026558016105212801
0.207000000000000017,107.768037837708561710
0.208000000000000018,104.356731572569287891
0.209000000000000019,100.856128920836994212
0.210000000000000020,97.333312233605809638
0.211000000000000021,93.846220004227063782
0.212000000000000022,90.438201730101852149
0.213000000000000023,87.136990798974721883
0.214000000000000024,83.956151146622858050
0.215000000000000024,80.897718069592869483
0.216000000000000025,77.955222630291544306
0.217000000000000026,75.116614614566259434
0.218000000000000027,72.366820144110050705
0.219000000000000028,69.689816092834021788
0.220000000000000029,67.070196176666925680
0.221000000000000030,64.494259044768313061
0.222000000000000031,61.950678651848384959
0.223000000000000032,59.430830151414205886
0.224000000000000032,56.928846612198114485
0.225000000000000033,54.441477320997080369
0.226000000000000034,51.967810266581558665
0.227000000000000035,49.508911606499836466
0.228000000000000036,47.067424808901584754
0.229000000000000037,44.647162545273616274
0.230000000000000038,42.252715749446068116
0.231000000000000039,39.889096777111291203
0.232000000000000040,37.561427363473328001
0.233000000000000040,35.274677048434398330
0.234000000000000041,33.033453822494934116
0.235000000000000042,30.841845813915860219
0.236000000000000043,28.703310747641573641
0.237000000000000044,26.620608518014002186
0.238000000000000045,24.595771397350635112
0.239000000000000046,22.630106030423718266
0.240000000000000047,20.724221334819230123
0.241000000000000048,18.878076648437144058
0.242000000000000048,17.091044862243101932
0.243000000000000049,15.361985786875195004
0.244000000000000050,13.689325576408171159
0.245000000000000051,12.071138632946391667
0.246000000000000052,10.505229012646973175
0.247000000000000053,8.989208926003664502
0.248000000000000054,7.520572458029390006
0.249000000000000055,6.096763117893461370
0.250000000000000056,4.715234257315946920
0.251000000000000056,3.373501770555214385
0.252000000000000057,2.069188806548941884
0.253000000000000058,0.800062487876898487
0.254000000000000059,-0.435937154869505572
0.255000000000000060,-1.640675656757933920
0.256000000000000061,-2.815809496966460213
0.257000000000000062,-3.962777788423298198
0.258000000000000063,-5.082799626218177380
0.259000000000000064,-6.176876410344767976
0.260000000000000064,-7.245798448673926195
0.261000000000000065,-8.290155154659402115
0.262000000000000066,-9.310348177424955907
0.263000000000000067,-10.306606836242687919
0.264000000000000068,-11.279005274069536569
0.265000000000000069,-12.227480793225721456
0.266000000000000070,-13.151852888310036960
0.267000000000000071,-14.051842545241186144
0.268000000000000071,-14.927091429385800581
0.269000000000000072,-15.777180638876355800
0.270000000000000073,-16.601648750475511918
0.271000000000000074,-17.400008933977556325
0.272000000000000075,-18.171764956619050224
0.273000000000000076,-18.916425940928107252
0.274000000000000077,-19.633519777653567928
0.275000000000000078,-20.322605129771545762
0.276000000000000079,-20.983281994058717856
0.277000000000000079,-21.615200813419015446
0.278000000000000080,-22.218070156178768570
0.279000000000000081,-22.791662998107408811
0.280000000000000082,-23.335821659182350629
0.281000000000000083,-23.850461460335903752
0.282000000000000084,-24.335573175846331395
0.283000000000000085,-24.791224364922094026
0.284000000000000086,-25.217559671635104479
0.285000000000000087,-25.614800185937678378
0.286000000000000087,-25.983241960296414419
0.287000000000000088,-26.323253776727540298
0.288000000000000089,-26.635274257943642340
0.289000000000000090,-26.919808414130962149
0.290000000000000091,-27.177423713756446944
0.291000000000000092,-27.408745762935428303
0.292000000000000093,-27.614453673428478453
0.293000000000000094,-27.795275194426476872
0.294000000000000095,-27.951981678052202795
0.295000000000000095,-28.085382943068776029
0.296000000000000096,-28.196322095737251345
0.297000000000000097,-28.285670361194849676
0.298000000000000098,-28.354321973202623042
0.299000000000000099,-28.403189164700172853
0.300000000000000100,-28.433197296354329353
0.301000000000000101,-28.445280155241714937
0.302000000000000102,-28.440375450993379047
0.303000000000000103,-28.419420532178872207
0.304000000000000103,-28.383348341435276296
0.305000000000000104,-28.333083623866116341
0.306000000000000105,-28.269539399553298864
0.307000000000000106,-28.193613707643528699
0.308000000000000107,-28.106186626388772964
0.309000000000000108,-28.008117570733539026
0.310000000000000109,-27.900242866541891118
0.311000000000000110,-27.783373598334993204
0.312000000000000111,-27.658293725455258993
0.313000000000000111,-27.525758459870804273
0.314000000000000112,-27.386492897372949784
0.315000000000000113,-27.241190892682471514
0.316000000000000114,-27.090514167955767277
0.317000000000000115,-26.935091643350698831
0.318000000000000116,-26.775518977662670750
0.319000000000000117,-26.612358306556451737
0.320000000000000118,-26.446138165584841317
0.321000000000000119,-26.277353584987576340
0.322000000000000119,-26.106466343187683776
0.323000000000000120,-25.933905365936634979
0.324000000000000121,-25.760067258189177863
0.325000000000000122,-25.585316956003946842
0.326000000000000123,-25.409988486054107426
0.327000000000000124,-25.234385820683058910
0.328000000000000125,-25.058783816845664916
0.329000000000000126,-24.883429227723205202
0.330000000000000127,-24.708541776284832281
0.331000000000000127,-24.534315280581648011
0.332000000000000128,-24.360918821092429454
0.333000000000000129,-24.188497940989780233
0.334000000000000130,-24.017175870752652145
0.335000000000000131,-23.847054769114542694
0.336000000000000132,-23.678216972897264014
0.337000000000000133,-23.510726248838910379
0.338000000000000134,-23.344629041073240217
0.339000000000000135,-23.179955708457328001
0.340000000000000135,-23.016721746468995491
0.341000000000000136,-22.854928988905200526
0.342000000000000137,-22.694566785105003248
0.343000000000000138,-22.535613148892842617
0.344000000000000139,-22.378035875891502116
0.345000000000000140,-22.221793626285283096
0.346000000000000141,-22.066836970523738159
0.347000000000000142,-21.913109395843793692
0.348000000000000143,-21.760548271853846103
0.349000000000000143,-21.609085773764991956
0.350000000000000144,-21.458649762175774356
0.351000000000000145,-21.309164618614246933
0.352000000000000146,-21.160552036317746172
0.353000000000000147,-21.012731765985595445
0.354000000000000148,-20.865622316474507159
0.355000000000000149,-20.719141610620081195
0.356000000000000150,-20.573207596563033661
0.357000000000000151,-20.427738815134752315
0.358000000000000151,-20.282654924014636322
0.359000000000000152,-20.137877179513328230
0.360000000000000153,-19.993328876960436702
0.361000000000000154,-19.848935750785230425
0.362000000000000155,-19.704626335473385268
0.363000000000000156,-19.560332288664582734
0.364000000000000157,-19.415988677723706957
0.365000000000000158,-19.271534231175486696
0.366000000000000159,-19.126911556437043771
0.367000000000000159,-18.982067325317856898
0.368000000000000160,-18.836952428782236524
0.369000000000000161,-18.691522102484981360
0.370000000000000162,-18.545736024599683844
0.371000000000000163,-18.399558387459823194
0.372000000000000164,-18.252957944526098544
0.373000000000000165,-18.105908034182242261
0.374000000000000166,-17.958386581842784580
0.375000000000000167,-17.810376081834306206
0.376000000000000167,-17.661863560484079017
0.377000000000000168,-17.512840521819306616
0.378000000000000169,-17.363302877245303080
0.379000000000000170,-17.213250860534316189
0.380000000000000171,-17.062688929415791961
0.381000000000000172,-16.911625655017793690
0.382000000000000173,-16.760073600364670199
0.383000000000000174,-16.608049189091758535
0.384000000000000175,-16.455572565490651726
0.385000000000000175,-16.302667446952277430
0.386000000000000176,-16.149360969827096568
0.387000000000000177,-15.995683529673758727
0.388000000000000178,-15.841668616819973181
0.389000000000000179,-15.687352648111238196
0.390000000000000180,-15.532774795675868162
0.391000000000000181,-15.377976813487800101
0.392000000000000182,-15.223002862462390539
0.393000000000000183,-15.067899334774898179
0.394000000000000183,-14.912714678046915751
0.395000000000000184,-14.757499220002449292
0.396000000000000185,-14.602304994152641271
0.397000000000000186,-14.447185567027352349
0.398000000000000187,-14.292195867431297884
0.399000000000000188,-14.137392018163968288
0.400000000000000189,-13.982831170605061644
0.401000000000000190,-13.828571342531081001
0.402000000000000191,-13.674671259494312281
0.403000000000000191,-13.521190200061752762
0.404000000000000192,-13.368187845180164786
0.405000000000000193,-13.215724131902721439
0.406000000000000194,-13.063859111683878922
0.407000000000000195,-12.912652813421550135
0.408000000000000196,-12.762165111399335515
0.409000000000000197,-12.612455598256881117
0.410000000000000198,-12.463583463093096171
0.411000000000000199,-12.315607374784567796
0.412000000000000199,-12.168585370580924376
0.413000000000000200,-12.022574750019497714
0.414000000000000201,-11.877631974182987662
0.415000000000000202,-11.733812570307001977
0.416000000000000203,-11.591171041728591362
0.417000000000000204,-11.449760783151685217
0.418000000000000205,-11.309634001192142350
0.419000000000000206,-11.170841640152344709
0.420000000000000207,-11.033433312963333961
0.421000000000000207,-10.897457237222742066
0.422000000000000208,-10.762960176245996990
0.423000000000000209,-10.629987385040447379
0.424000000000000210,-10.498582561103670940
0.425000000000000211,-10.368787799940092142
0.426000000000000212,-10.240643555184112401
0.427000000000000213,-10.114188603211847095
0.428000000000000214,-9.989460012119298682
0.429000000000000214,-9.866493114940013243
0.430000000000000215,-9.745321486972057912
0.431000000000000216,-9.625976927081216772
0.432000000000000217,-9.508489442844574313
0.433000000000000218,-9.392887239397001764
0.434000000000000219,-9.279196711841716905
0.435000000000000220,-9.167442441084977744
0.436000000000000221,-9.057647192954513926
0.437000000000000222,-8.949831920461264190
0.438000000000000222,-8.844015769064268895
0.439000000000000223,-8.740216084799101282
0.440000000000000224,-8.638448425131135977
0.441000000000000225,-8.538726572396312164
0.442000000000000226,-8.441062549693558736
0.443000000000000227,-8.345466639094457406
0.444000000000000228,-8.251947402038265267
0.445000000000000229,-8.160511701782008132
0.446000000000000230,-8.071164727778176839
0.447000000000000230,-7.983910021854681460
0.448000000000000231,-7.898749506074838500
0.449000000000000232,-7.815683512157423074
0.450000000000000233,-7.734710812340227726
0.451000000000000234,-7.655828651573294508
0.452000000000000235,-7.579032780931086677
0.453000000000000236,-7.504317492136104661
0.454000000000000237,-7.431675653089738987
0.455000000000000238,-7.361098744309114927
0.456000000000000238,-7.292576896172389134
0.457000000000000239,-7.226098926877862816
0.458000000000000240,-7.161652381025992220
0.459000000000000241,-7.099223568736310774
0.460000000000000242,-7.038797605215043163
0.461000000000000243,-6.980358450692082606
0.462000000000000244,-6.923888950649701890
0.463000000000000245,-6.869370876268154902
0.464000000000000246,-6.816784965017214759
0.465000000000000246,-6.766110961325239259
0.466000000000000247,-6.717327657260983464
0.467000000000000248,-6.670412933166218750
0.468000000000000249,-6.625343798180499455
0.469000000000000250,-6.582096430602229375
0.470000000000000251,-6.540646218033261405
0.471000000000000252,-6.500967797257021452
0.472000000000000253,-6.463035093803297215
0.473000000000000254,-6.426821361155053758
0.474000000000000254,-6.392299219555868106
0.475000000000000255,-6.359440694378892367
0.476000000000000256,-6.328217254020856330
0.477000000000000257,-6.298599847287206011
0.478000000000000258,-6.270558940236773182
0.479000000000000259,-6.244064552456729089
0.480000000000000260,-6.219086292740915844
0.481000000000000261,-6.195593394146718502
0.482000000000000262,-6.173554748407897641
0.483000000000000262,-6.152938939682710995
0.484000000000000263,-6.133714277618694588
0.485000000000000264,-6.115848829717362101
0.486000000000000265,-6.099310452983979225
0.487000000000000266,-6.084066824849111654
0.488000000000000267,-6.070085473350555816
0.489000000000000268,-6.057333806565865508
0.490000000000000269,-6.045779141286945269
0.491000000000000270,-6.035388730930137058
0.492000000000000270,-6.026129792676131025
0.493000000000000271,-6.017969533835874074
0.494000000000000272,-6.010875177439407580
0.495000000000000273,-6.004813987046373036
0.496000000000000274,-5.999753290777531944
0.497000000000000275,-5.995660504568087745
0.498000000000000276,-5.992503154644651886
0.499000000000000277,-5.990248899228361346
0.500000000000000222,-5.988865549468078697
0.501000000000000334,-5.988321089607934411
0.502000000000000224,-5.988583696394853106
0.503000000000000336,-5.989621757731974583
0.504000000000000226,-5.991403890585014658
0.505000000000000338,-5.993898958149013190
0.506000000000000227,-5.997076086283722240
0.507000000000000339,-6.000904679226384708
0.508000000000000229,-6.005354434591193780
0.509000000000000341,-6.010395357665347937
0.510000000000000231,-6.015997775011943993
0.511000000000000343,-6.022132347390458662
0.512000000000000233,-6.028770082005871167
0.513000000000000345,-6.035882344098001617
0.514000000000000234,-6.043440867882829970
0.515000000000000346,-6.051417766857807301
0.516000000000000236,-6.059785543483562797
0.517000000000000348,-6.068517098254623932
0.518000000000000238,-6.077585738171764618
0.519000000000000350,-6.086965184629129055
0.520000000000000240,-6.096629580728957443
0.521000000000000352,-6.106553498037426309
0.522000000000000242,-6.116711942794549550
0.523000000000000353,-6.127080361591901614
0.524000000000000243,-6.137634646531191507
0.525000000000000355,-6.148351139877492599
0.526000000000000245,-6.159206638220346974
0.527000000000000357,-6.170178396156345002
0.528000000000000247,-6.181244129506582752
0.529000000000000359,-6.192382018082374984
0.530000000000000249,-6.203570708012586365
0.531000000000000361,-6.214789313645880497
0.532000000000000250,-6.226017419041006029
0.533000000000000362,-6.237235079058356391
0.534000000000000252,-6.248422820065517413
0.535000000000000364,-6.259561640270091765
0.536000000000000254,-6.270633009692073934
0.537000000000000366,-6.281618869788713866
0.538000000000000256,-6.292501632744190054
0.539000000000000368,-6.303264180436356057
0.540000000000000258,-6.313889863092758681
0.541000000000000369,-6.324362497647884496
0.542000000000000259,-6.334666365813311550
0.543000000000000371,-6.344786211872508019
0.544000000000000261,-6.354707240211587838
0.545000000000000373,-6.364415112597283652
0.546000000000000263,-6.373895945213101655
0.547000000000000375,-6.383136305464556237
0.548000000000000265,-6.392123208564004067
0.549000000000000377,-6.400844113905586497
0.550000000000000266,-6.409286921240318513
0.551000000000000378,-6.417439966661495632
0.552000000000000268,-6.425292018410023509
0.553000000000000380,-6.432832272509318550
0.554000000000000270,-6.440050348239087619
0.555000000000000382,-6.446936283457063155
0.556000000000000272,-6.453480529777751329
0.557000000000000384,-6.459673947616569656
0.558000000000000274,-6.465507801108293151
0.559000000000000385,-6.470973752907577037
0.560000000000000275,-6.476063858880006130
0.561000000000000387,-6.480770562691233749
0.562000000000000277,-6.485086690301888446
0.563000000000000389,-6.489005444375758991
0.564000000000000279,-6.492520398608247589
0.565000000000000391,-6.495625491982282895
0.566000000000000281,-6.498315022958268905
0.567000000000000393,-6.500583643604815443
0.568000000000000282,-6.502426353676502124
0.569000000000000394,-6.503838494644901047
0.570000000000000284,-6.504815743688763696
0.571000000000000396,-6.505354107649280238
0.572000000000000286,-6.505449916955869938
0.573000000000000398,-6.505099819527910832
0.574000000000000288,-6.504300774657690631
0.575000000000000400,-6.503050046879584656
0.576000000000000290,-6.501345199830208976
0.577000000000000401,-6.499184090104367151
0.578000000000000291,-6.496564861111190581
0.579000000000000403,-6.493485936934780156
0.580000000000000293,-6.489946016203584911
0.581000000000000405,-6.485944065972448769
0.582000000000000295,-6.481479315621141879
0.583000000000000407,-6.476551250773143309
0.584000000000000297,-6.471159607238002209
0.585000000000000409,-6.465304364980889673
0.586000000000000298,-6.458985742122348661
0.587000000000000410,-6.452204188971409238
0.588000000000000300,-6.444960382094987672
0.589000000000000412,-6.437255218426355619
0.590000000000000302,-6.429089809415303947
0.591000000000000414,-6.420465475222604468
0.592000000000000304,-6.411383738961108136
0.593000000000000416,-6.401846320985681515
0.594000000000000306,-6.391855133234308539
0.595000000000000417,-6.381412273622244058
0.596000000000000307,-6.370520020491143853
0.597000000000000419,-6.359180827115034518
0.598000000000000309,-6.347397316264806300
0.599000000000000421,-6.335172274832709505
0.600000000000000311,-6.322508648518517127
0.601000000000000423,-6.309409536578559852
0.602000000000000313,-6.295878186639035867
0.603000000000000425,-6.281917989574713701
0.604000000000000314,-6.267532474454212021
0.605000000000000426,-6.252725303552729486
0.606000000000000316,-6.237500267433327750
0.607000000000000428,-6.221861280097381375
0.608000000000000318,-6.205812374205263993
0.609000000000000430,-6.189357696367582484
0.610000000000000320,-6.172501502507923732
0.611000000000000432,-6.155248153297344871
0.612000000000000322,-6.137602109661331795
0.613000000000000433,-6.119567928359392006
0.614000000000000323,-6.101150257637824481
0.615000000000000435,-6.082353832955758932
0.616000000000000325,-6.063183472784782424
0.617000000000000437,-6.043644074482258155
0.618000000000000327,-6.023740610238474957
0.619000000000000439,-6.003478123097562680
0.620000000000000329,-5.982861723052327108
0.621000000000000441,-5.961896583212769052
0.622000000000000330,-5.940587936048332907
0.623000000000000442,-5.918941069703606672
0.624000000000000332,-5.896961324387348213
0.625000000000000444,-5.874654088834586396
0.626000000000000334,-5.852024796841517329
0.627000000000000446,-5.829078923872835105
0.628000000000000336,-5.805821983741234149
0.629000000000000448,-5.782259525358588448
0.630000000000000338,-5.758397129558497696
0.631000000000000449,-5.734240405989615930
0.632000000000000339,-5.709794990079457122
0.633000000000000451,-5.685066540067934326
0.634000000000000341,-5.660060734110344605
0.635000000000000453,-5.634783267449059885
0.636000000000000343,-5.609239849653381071
0.637000000000000455,-5.583436201927016285
0.638000000000000345,-5.557378054482462915
0.639000000000000457,-5.531071143981637128
0.640000000000000346,-5.504521211042237461
0.641000000000000458,-5.477733997808896582
0.642000000000000348,-5.450715245588715341
0.643000000000000460,-5.423470692550148797
0.644000000000000350,-5.396006071484857891
0.645000000000000462,-5.368327107631400530
0.646000000000000352,-5.340439516560381961
0.647000000000000464,-5.312349002119962194
0.648000000000000353,-5.284061254441267508
0.649000000000000465,-5.255581948002532755
0.650000000000000355,-5.226916739751656493
0.651000000000000467,-5.198071267285840236
0.652000000000000357,-5.169051147088013387
0.653000000000000469,-5.139861972818755120
0.654000000000000359,-5.110509313663353481
0.655000000000000471,-5.080998712732745837
0.656000000000000361,-5.051335685517868157
0.657000000000000473,-5.021525718396309124
0.658000000000000362,-4.991574267190665104
0.659000000000000474,-4.961486755777570146
