# AuFCC100_BSAI8
# h[nm],U(h)[kJ/mol]
0.149999999999999994,118.086270313060680337
0.150999999999999995,113.050732399831417752
0.151999999999999996,109.046652944971100396
0.152999999999999997,105.354795312267654595
0.153999999999999998,101.706463821553185767
0.154999999999999999,98.042686424939290646
0.156000000000000000,94.386226419426179746
0.157000000000000001,90.778936593646832875
0.158000000000000002,87.255293949714229029
0.159000000000000002,83.834683454132189695
0.160000000000000003,80.522379154086863196
0.161000000000000004,77.313714141499275456
0.162000000000000005,74.198650074982296587
0.163000000000000006,71.165523545349287815
0.164000000000000007,68.203600392603917157
0.165000000000000008,65.304494526396879905
0.166000000000000009,62.462685641964789340
0.167000000000000010,59.675412959561029425
0.168000000000000010,56.942197834490670516
0.169000000000000011,54.264196442111710894
0.170000000000000012,51.643526555808684009
0.171000000000000013,49.082660627090618277
0.172000000000000014,46.583935447442094357
0.173000000000000015,44.149197539125182743
0.174000000000000016,41.779582172220173675
0.175000000000000017,39.475410837461609503
0.176000000000000018,37.236185228409752312
0.177000000000000018,35.060653535243261558
0.178000000000000019,32.946925624936405086
0.179000000000000020,30.892616286539766435
0.180000000000000021,28.894999260932273444
0.181000000000000022,26.951158616880842800
0.182000000000000023,25.058127757517709711
0.183000000000000024,23.213009686990989877
0.184000000000000025,21.413075002587675044
0.185000000000000026,19.655836356577417234
0.186000000000000026,17.939099865988353599
0.187000000000000027,16.260995184960343352
0.188000000000000028,14.619986760057098962
0.189000000000000029,13.014869238477484004
0.190000000000000030,11.444750166794358748
0.191000000000000031,9.909023072787224606
0.192000000000000032,8.407333826233418961
0.193000000000000033,6.939542878007304516
0.194000000000000034,5.505685622844312732
0.195000000000000034,4.105932752945467001
0.196000000000000035,2.740552092374749726
0.197000000000000036,1.409873043987421193
0.198000000000000037,0.114254453540379691
0.199000000000000038,-1.145943593032982655
0.200000000000000039,-2.370383769951821762
0.201000000000000040,-3.558771244504922660
0.202000000000000041,-4.710869240692808546
0.203000000000000042,-5.826510656732555304
0.204000000000000042,-6.905606050231952509
0.205000000000000043,-7.948148365476559896
0.206000000000000044,-8.954214812355596464
0.207000000000000045,-9.923966320374733030
0.208000000000000046,-10.857644988136168962
0.209000000000000047,-11.755569932424879909
0.210000000000000048,-12.618131915035794677
0.211000000000000049,-13.445787092676946273
0.212000000000000050,-14.239050198219661780
0.213000000000000050,-14.998487422329992214
0.214000000000000051,-15.724709224811704189
0.215000000000000052,-16.418363266149604840
0.216000000000000053,-17.080127612775324764
0.217000000000000054,-17.710704335216245653
0.218000000000000055,-18.310813587019730164
0.219000000000000056,-18.881188224457883251
0.220000000000000057,-19.422569002641875358
0.221000000000000058,-19.935700362796172413
0.222000000000000058,-20.421326807966810435
0.223000000000000059,-20.880189850172254040
0.224000000000000060,-21.313025500724091188
0.225000000000000061,-21.720562266876033419
0.226000000000000062,-22.103519611815070078
0.227000000000000063,-22.462606830995078155
0.228000000000000064,-22.798522295636306723
0.229000000000000065,-23.111953013594273898
0.230000000000000066,-23.403574458468714425
0.231000000000000066,-23.674050619533648643
0.232000000000000067,-23.924034227594685120
0.233000000000000068,-24.154167115019014034
0.234000000000000069,-24.365080671756981445
0.235000000000000070,-24.557396363026221309
0.236000000000000071,-24.731726278326412682
0.237000000000000072,-24.888673685483063025
0.238000000000000073,-25.028833567388854675
0.239000000000000073,-25.152793122945997339
0.240000000000000074,-25.261132217356035312
0.241000000000000075,-25.354423770308336827
0.242000000000000076,-25.433234073754611870
0.243000000000000077,-25.498123033804503734
0.244000000000000078,-25.549644333824691245
0.245000000000000079,-25.588345518067715290
0.246000000000000080,-25.614767997101353103
0.247000000000000081,-25.629446977962704324
0.248000000000000081,-25.632911323335861198
0.249000000000000082,-25.625683345164748772
0.250000000000000111,-25.608278538981345207
0.251000000000000112,-25.581205265873286692
0.252000000000000113,-25.544964389456477960
0.253000000000000114,-25.500048875475055610
0.254000000000000115,-25.446943361749099211
0.255000000000000115,-25.386123706144815060
0.256000000000000116,-25.318056520076964944
0.257000000000000117,-25.243198694785114355
0.258000000000000118,-25.161996927271996327
0.259000000000000119,-25.074887252371425461
0.260000000000000120,-24.982294586939225667
0.261000000000000121,-24.884632291646134661
0.262000000000000122,-24.782301755311976876
0.263000000000000123,-24.675692006162684322
0.264000000000000123,-24.565179353830291831
0.265000000000000124,-24.451127065354189227
0.266000000000000125,-24.333885077892357884
0.267000000000000126,-24.213789750315417137
0.268000000000000127,-24.091163655342477057
0.269000000000000128,-23.966315413388905142
0.270000000000000129,-23.839539568834915428
0.271000000000000130,-23.711116508994471985
0.272000000000000131,-23.581312425666535404
0.273000000000000131,-23.450379318786996663
0.274000000000000132,-23.318555041370409242
0.275000000000000133,-23.186063384635939855
0.276000000000000134,-23.053114201950723583
0.277000000000000135,-22.919903569996471049
0.278000000000000136,-22.786613985369896795
0.279000000000000137,-22.653414594663146886
0.280000000000000138,-22.520461455936288786
0.281000000000000139,-22.387897829386787407
0.282000000000000139,-22.255854494941154087
0.283000000000000140,-22.124450094437996484
0.284000000000000141,-21.993791496038511468
0.285000000000000142,-21.863974178488511768
0.286000000000000143,-21.735082632862454233
0.287000000000000144,-21.607190779443687489
0.288000000000000145,-21.480362397434532795
0.289000000000000146,-21.354651565241955069
0.290000000000000147,-21.230103109149421670
0.291000000000000147,-21.106753058259965172
0.292000000000000148,-20.984629103679232287
0.293000000000000149,-20.863751059997809989
0.294000000000000150,-20.744131327228842565
0.295000000000000151,-20.625775351458496942
0.296000000000000152,-20.508682082571262129
0.297000000000000153,-20.392844427520170569
0.298000000000000154,-20.278249697719751055
0.299000000000000155,-20.164880049249859439
0.300000000000000155,-20.052712914667058186
0.301000000000000156,-19.941721425328420736
0.302000000000000157,-19.831874823239385108
0.303000000000000158,-19.723138861541468003
0.304000000000000159,-19.615476192857581594
0.305000000000000160,-19.508846744811091156
0.306000000000000161,-19.403208082130174006
0.307000000000000162,-19.298515754840622094
0.308000000000000163,-19.194723632137446145
0.309000000000000163,-19.091784221609319872
0.310000000000000164,-18.989648973568879597
0.311000000000000165,-18.888268570316416373
0.312000000000000166,-18.787593200234972812
0.313000000000000167,-18.687572816680322774
0.314000000000000168,-18.588157381690599834
0.315000000000000169,-18.489297094597191062
0.316000000000000170,-18.390942605670815624
0.317000000000000171,-18.293045214984832825
0.318000000000000171,-18.195557056721405331
0.319000000000000172,-18.098431269186512793
0.320000000000000173,-18.001622150834712954
0.321000000000000174,-17.905085302637353095
0.322000000000000175,-17.808777757155603183
0.323000000000000176,-17.712658094704760714
0.324000000000000177,-17.616686547017483377
0.325000000000000178,-17.520825088831841754
0.326000000000000179,-17.425037517845499480
0.327000000000000179,-17.329289523489144642
0.328000000000000180,-17.233548744982407186
0.329000000000000181,-17.137784819142517279
0.330000000000000182,-17.041969418420411131
0.331000000000000183,-16.946076279642159790
0.332000000000000184,-16.850081223933617736
0.333000000000000185,-16.753962168305353231
0.334000000000000186,-16.657699129371625446
0.335000000000000187,-16.561274219672718289
0.336000000000000187,-16.464671637064178356
0.337000000000000188,-16.367877647628766624
0.338000000000000189,-16.270880562559089100
0.339000000000000190,-16.173670709449094574
0.340000000000000191,-16.076240398422136479
0.341000000000000192,-15.978583883512888164
0.342000000000000193,-15.880697319707525850
0.343000000000000194,-15.782578716035155608
0.344000000000000195,-15.684227885089821797
0.345000000000000195,-15.585646389349751217
0.346000000000000196,-15.486837484646210683
0.347000000000000197,-15.387806061121105827
0.348000000000000198,-15.288558581997932606
0.349000000000000199,-15.189103020476721895
0.350000000000000200,-15.089448795049596797
0.351000000000000201,-14.989606703518898456
0.352000000000000202,-14.889588855986270133
0.353000000000000203,-14.789408607066722112
0.354000000000000203,-14.689080487567840905
0.355000000000000204,-14.588620135860889349
0.356000000000000205,-14.488044229156717080
0.357000000000000206,-14.387370414886726522
0.358000000000000207,-14.286617242375541537
0.359000000000000208,-14.185804094980104750
0.360000000000000209,-14.084951122857244599
0.361000000000000210,-13.984079176509876419
0.362000000000000210,-13.883209741250542635
0.363000000000000211,-13.782364872709660375
0.364000000000000212,-13.681567133505172507
0.365000000000000213,-13.580839531179616841
0.366000000000000214,-13.480205457500943567
0.367000000000000215,-13.379688629213276840
0.368000000000000216,-13.279313030315204713
0.369000000000000217,-13.179102855933621186
0.370000000000000218,-13.079082457853326460
0.371000000000000218,-12.979276291754128891
0.372000000000000219,-12.879708866199658601
0.373000000000000220,-12.780404693414917361
0.374000000000000221,-12.681388241882574519
0.375000000000000222,-12.582683890781517277
0.376000000000000223,-12.484315886285056507
0.377000000000000224,-12.386308299730416138
0.378000000000000225,-12.288684987665618564
0.379000000000000226,-12.191469553774776813
0.380000000000000226,-12.094685312678262079
0.381000000000000227,-11.998355255599321367
0.382000000000000228,-11.902502017885129959
0.383000000000000229,-11.807147848366010834
0.384000000000000230,-11.712314580533178088
0.385000000000000231,-11.618023605512201257
0.386000000000000232,-11.524295846806197119
0.387000000000000233,-11.431151736780176265
0.388000000000000234,-11.338611194855442221
0.389000000000000234,-11.246693607380793267
0.390000000000000235,-11.155417809144951846
0.391000000000000236,-11.064802066493442112
0.392000000000000237,-10.974864062010798449
0.393000000000000238,-10.885620880728321680
0.394000000000000239,-10.797088997815835754
0.395000000000000240,-10.709284267715187156
0.396000000000000241,-10.622221914672314469
0.397000000000000242,-10.535916524623823776
0.398000000000000242,-10.450382038393822626
0.399000000000000243,-10.365631746155965942
0.400000000000000244,-10.281678283115521566
0.401000000000000245,-10.198533626366359073
0.402000000000000246,-10.116209092877268105
0.403000000000000247,-10.034715338562381959
0.404000000000000248,-9.954062358390599385
0.405000000000000249,-9.874259487489124965
0.406000000000000250,-9.795315403196537929
0.407000000000000250,-9.717238128021348231
0.408000000000000251,-9.640035033462314829
0.409000000000000252,-9.563712844647628941
0.410000000000000253,-9.488277645750342160
0.411000000000000254,-9.413734886138431790
0.412000000000000255,-9.340089387218352357
0.413000000000000256,-9.267345349931996878
0.414000000000000257,-9.195506362867330807
0.415000000000000258,-9.124575410944427034
0.416000000000000258,-9.054554884638953638
0.417000000000000259,-8.985446589706411302
0.418000000000000260,-8.917251757371223775
0.419000000000000261,-8.849971054945715565
0.420000000000000262,-8.783604596845069779
0.421000000000000263,-8.718151955965286248
0.422000000000000264,-8.653612175392041195
0.423000000000000265,-8.589983780409564673
0.424000000000000266,-8.527264790779529591
0.425000000000000266,-8.465452733260892870
0.426000000000000267,-8.404544654342704035
0.427000000000000268,-8.344537133162964082
0.428000000000000269,-8.285426294587463047
0.429000000000000270,-8.227207822423583394
0.430000000000000271,-8.169876972745095500
0.431000000000000272,-8.113428587304850836
0.432000000000000273,-8.057857107013246534
0.433000000000000274,-8.003156585461383088
0.434000000000000274,-7.949320702468627431
0.435000000000000275,-7.896342777635308785
0.436000000000000276,-7.844215783882217075
0.437000000000000277,-7.792932360959218485
0.438000000000000278,-7.742484828906574634
0.439000000000000279,-7.692865201453043866
0.440000000000000280,-7.644065199335805971
0.441000000000000281,-7.596076263528142469
0.442000000000000282,-7.548889568361514257
0.443000000000000282,-7.502496034529386293
0.444000000000000283,-7.456886341961125986
0.445000000000000284,-7.412050942554790467
0.446000000000000285,-7.367980072758425258
0.447000000000000286,-7.324663765990369946
0.448000000000000287,-7.282091864889302713
0.449000000000000288,-7.240254033385959076
0.450000000000000289,-7.199139768588596056
0.451000000000000290,-7.158738412475214474
0.452000000000000290,-7.119039163385991742
0.453000000000000291,-7.080031087309953008
0.454000000000000292,-7.041703128960547176
0.455000000000000293,-7.004044122635194825
0.456000000000000294,-6.967042802854503059
0.457000000000000295,-6.930687814777241940
0.458000000000000296,-6.894967724387707442
0.459000000000000297,-6.859871028452526609
0.460000000000000298,-6.825386164244390486
0.461000000000000298,-6.791501519030582301
0.462000000000000299,-6.758205439324690644
0.463000000000000300,-6.725486239900059005
0.464000000000000301,-6.693332212564129691
0.465000000000000302,-6.661731634692991122
0.466000000000000303,-6.630672777525900230
0.467000000000000304,-6.600143914219709806
0.468000000000000305,-6.570133327663635114
0.469000000000000306,-6.540629318054908659
0.470000000000000306,-6.511620210236179318
0.471000000000000307,-6.483094360795780275
0.472000000000000308,-6.455040164932280611
0.473000000000000309,-6.427446063084841121
0.474000000000000310,-6.400300547331140066
0.475000000000000311,-6.373592167554978261
0.476000000000000312,-6.347309537385649847
0.477000000000000313,-6.321441339911411994
0.478000000000000314,-6.295976333169631900
0.479000000000000314,-6.270903355416263203
0.480000000000000315,-6.246211330177374066
0.481000000000000316,-6.221889271085791151
0.482000000000000317,-6.197926286505792248
0.483000000000000318,-6.174311583949057436
0.484000000000000319,-6.151034474285137499
0.485000000000000320,-6.128084375749800472
0.486000000000000321,-6.105450817754655368
0.487000000000000322,-6.083123444501596921
0.488000000000000322,-6.061092018405594750
0.489000000000000323,-6.039346423329519986
0.490000000000000324,-6.017876667634646459
0.491000000000000325,-5.996672887050588763
0.492000000000000326,-5.975725347368364027
0.493000000000000327,-5.955024446960490714
0.494000000000000328,-5.934560719131818374
0.495000000000000329,-5.914324834305052292
0.496000000000000330,-5.894307602044682071
0.497000000000000330,-5.874499972923330482
0.498000000000000331,-5.854893040234241397
0.499000000000000332,-5.835478041553876949
0.500000000000000333,-5.816246360158422668
0.501000000000000334,-5.797189526298057949
0.502000000000000335,-5.778299218332840326
0.503000000000000336,-5.759567263733999631
0.504000000000000337,-5.740985639954443442
0.505000000000000338,-5.722546475172240577
0.506000000000000338,-5.704242048910820984
0.507000000000000339,-5.686064792539610835
0.508000000000000340,-5.668007289658762105
0.509000000000000341,-5.650062276371637715
0.510000000000000342,-5.632222641448643152
0.511000000000000343,-5.614481426385951934
0.512000000000000344,-5.596831825362684754
0.513000000000000345,-5.579267185099936022
0.514000000000000346,-5.561781004625204972
0.515000000000000346,-5.544366934945470504
0.516000000000000347,-5.527018778632310614
0.517000000000000348,-5.509730489322385516
0.518000000000000349,-5.492496171136389549
0.519000000000000350,-5.475310078019785642
0.520000000000000351,-5.458166613008339496
0.521000000000000352,-5.441060327421591403
0.522000000000000353,-5.423985919987190485
0.523000000000000353,-5.406938235899144019
0.524000000000000354,-5.389912265812817793
0.525000000000000355,-5.372903144779535900
0.526000000000000356,-5.355906151123556391
0.527000000000000357,-5.338916705264198370
0.528000000000000358,-5.321930368485721985
0.529000000000000359,-5.304942841657578789
0.530000000000000360,-5.287949963907652595
0.531000000000000361,-5.270947711250887124
0.532000000000000361,-5.253932195175810449
0.533000000000000362,-5.236899661191283251
0.534000000000000363,-5.219846487335837004
0.535000000000000364,-5.202769182651804769
0.536000000000000365,-5.185664385626518325
0.537000000000000366,-5.168528862602668639
0.538000000000000367,-5.151359506159924884
0.539000000000000368,-5.134153333469902769
0.540000000000000369,-5.116907484626376679
0.541000000000000369,-5.099619220952743781
0.542000000000000370,-5.082285923288562657
0.543000000000000371,-5.064905090256985432
0.544000000000000372,-5.047474336514897963
0.545000000000000373,-5.029991390987412991
0.546000000000000374,-5.012454095088425099
0.547000000000000375,-4.994860400928798683
0.548000000000000376,-4.977208369513830277
0.549000000000000377,-4.959496168931374349
0.550000000000000377,-4.941722072532192200
0.551000000000000378,-4.923884457103890000
0.552000000000000379,-4.905981801039841272
0.553000000000000380,-4.888012682504373707
0.554000000000000381,-4.869975777595525912
0.555000000000000382,-4.851869858506625555
0.556000000000000383,-4.833693791687768915
0.557000000000000384,-4.815446536008502143
0.558000000000000385,-4.797127140922650135
0.559000000000000385,-4.778734744636459197
0.560000000000000386,-4.760268572281001198
0.561000000000000387,-4.741727934089865926
0.562000000000000388,-4.723112223583034286
0.563000000000000389,-4.704420915757866695
0.564000000000000390,-4.685653565288041555
0.565000000000000391,-4.666809804731295586
0.566000000000000392,-4.647889342746720054
0.567000000000000393,-4.628891962322414066
0.568000000000000393,-4.609817519014147713
0.569000000000000394,-4.590665939195786471
0.570000000000000395,-4.571437218322118134
0.571000000000000396,-4.552131419204629381
0.572000000000000397,-4.532748670300959404
0.573000000000000398,-4.513289164018450705
0.574000000000000399,-4.493753155032422342
0.575000000000000400,-4.474140958619637232
0.576000000000000401,-4.454452949007406737
0.577000000000000401,-4.434689557738857424
0.578000000000000402,-4.414851272054688636
0.579000000000000403,-4.394938633291872065
0.580000000000000404,-4.374952235299668146
0.581000000000000405,-4.354892722873266564
0.582000000000000406,-4.334760790205406167
0.583000000000000407,-4.314557179356237171
0.584000000000000408,-4.294282678741764059
0.585000000000000409,-4.273938121641047694
0.586000000000000409,-4.253524384722459750
0.587000000000000410,-4.233042386589191075
0.588000000000000411,-4.212493086344169413
0.589000000000000412,-4.191877482174636071
0.590000000000000413,-4.171196609956445478
0.591000000000000414,-4.150451541878327433
0.592000000000000415,-4.129643385086158247
0.593000000000000416,-4.108773280347365997
0.594000000000000417,-4.087842400735576476
0.595000000000000417,-4.066851950335598431
0.596000000000000418,-4.045803162968678812
0.597000000000000419,-4.024697300938294475
0.598000000000000420,-4.003535653796265414
0.599000000000000421,-3.982319537129412446
0.600000000000000422,-3.961050291366630116
0.601000000000000423,-3.939729280606430795
0.602000000000000424,-3.918357891464926634
0.603000000000000425,-3.896937531944227207
0.604000000000000425,-3.875469630321165315
0.605000000000000426,-3.853955634056384305
0.606000000000000427,-3.832397008723653187
0.607000000000000428,-3.810795236959334087
0.608000000000000429,-3.789151817432003355
