# AuFCC100_BSAI16
# h[nm],U(h)[kJ/mol]
0.149999999999999994,133.807618006316602077
0.150999999999999995,128.366970458465175398
0.151999999999999996,124.235958258500971851
0.152999999999999997,120.493035165045242252
0.153999999999999998,116.786016337257890996
0.154999999999999999,113.033179438556587115
0.156000000000000000,109.261573361393033110
0.157000000000000001,105.526020590659072695
0.158000000000000002,101.873638542913482752
0.159000000000000002,98.332526592578744840
0.160000000000000003,94.912075787689431650
0.161000000000000004,91.607863923195736788
0.162000000000000005,88.407452738823309346
0.163000000000000006,85.295378972551972652
0.164000000000000007,82.256739027964599131
0.165000000000000008,79.279343612271844677
0.166000000000000009,76.354680382668107086
0.167000000000000010,73.478006534836296737
0.168000000000000010,70.647884167192657401
0.169000000000000011,67.865419908483545441
0.170000000000000012,65.133405705519692219
0.171000000000000013,62.455495244038480962
0.172000000000000014,59.835497391935497546
0.173000000000000015,57.276826696255476179
0.174000000000000016,54.782121113925299483
0.175000000000000017,52.353017328730665270
0.176000000000000018,49.990062253029897477
0.177000000000000018,47.692733658923245343
0.178000000000000019,45.459541560464131749
0.179000000000000020,43.288183504323043849
0.180000000000000021,41.175730165392323556
0.181000000000000022,39.118821723754336972
0.182000000000000023,37.113859809745264329
0.183000000000000024,35.157183938712378790
0.184000000000000025,33.245225069566934906
0.185000000000000026,31.374632082678225231
0.186000000000000026,29.542369538429291254
0.187000000000000027,27.745787059941751096
0.188000000000000028,25.982662129646019622
0.189000000000000029,24.251219066797794710
0.190000000000000030,22.550127537340607375
0.191000000000000031,20.878484214894140081
0.192000000000000032,19.235781233871875884
0.193000000000000033,17.621864917164554498
0.194000000000000034,16.036887976994158578
0.195000000000000034,14.481258024696106901
0.196000000000000035,12.955584820612164876
0.197000000000000036,11.460628277989730606
0.198000000000000037,9.997248826490418239
0.199000000000000038,8.566361357059118831
0.200000000000000039,7.168893620729912541
0.201000000000000040,5.805749645471463438
0.202000000000000041,4.477778470124781585
0.203000000000000042,3.185748273071659753
0.204000000000000042,1.930325793871502382
0.205000000000000043,0.712060805838182209
0.206000000000000044,-0.468624707299532317
0.207000000000000045,-1.611443091026055097
0.208000000000000046,-2.716243742830893204
0.209000000000000047,-3.783012508775442484
0.210000000000000048,-4.811868249467986303
0.211000000000000049,-5.803057061141581485
0.212000000000000050,-6.756944616031108630
0.213000000000000050,-7.674007056186570530
0.214000000000000051,-8.554820838852716491
0.215000000000000052,-9.400051891801197712
0.216000000000000053,-10.210444395365389170
0.217000000000000054,-10.986809465901687943
0.218000000000000055,-11.730013974173745694
0.219000000000000056,-12.440969692640681643
0.220000000000000057,-13.120622928507454930
0.221000000000000058,-13.769944765123190322
0.222000000000000058,-14.389922003201018441
0.223000000000000059,-14.981548865519936697
0.224000000000000060,-15.545819504301897851
0.225000000000000061,-16.083721329277643974
0.226000000000000062,-16.596229156437324548
0.227000000000000063,-17.084300162433088133
0.228000000000000064,-17.548869617344898586
0.229000000000000065,-17.990847358805648781
0.230000000000000066,-18.411114963055418059
0.231000000000000066,-18.810523563108539236
0.232000000000000067,-19.189892260620482034
0.233000000000000068,-19.550007075994745520
0.234000000000000069,-19.891620380543901803
0.235000000000000070,-20.215450754901205244
0.236000000000000071,-20.522183219171445501
0.237000000000000072,-20.812469782335803359
0.238000000000000073,-21.086930261021262112
0.239000000000000073,-21.346153320769804651
0.240000000000000074,-21.590697696271131889
0.241000000000000075,-21.821093550544862438
0.242000000000000076,-22.037843936681586143
0.243000000000000077,-22.241426329399942574
0.244000000000000078,-22.432294197281699155
0.245000000000000079,-22.610878590057215121
0.246000000000000080,-22.777589718687206499
0.247000000000000081,-22.932818509191537970
0.248000000000000081,-23.076938114186447137
0.249000000000000082,-23.210305368893266120
0.250000000000000111,-23.333262180963092902
0.251000000000000112,-23.446136845817811434
0.252000000000000113,-23.549245281339814539
0.253000000000000114,-23.642892177649631691
0.254000000000000115,-23.727372059405162474
0.255000000000000115,-23.802970259539769415
0.256000000000000116,-23.869963804645227157
0.257000000000000117,-23.928622213307875199
0.258000000000000118,-23.979208209635217486
0.259000000000000119,-24.021978354980205950
0.260000000000000120,-24.057183601493651537
0.261000000000000121,-24.085069771624191048
0.262000000000000122,-24.105877968055875016
0.263000000000000123,-24.119844918834935754
0.264000000000000123,-24.127203262605259937
0.265000000000000124,-24.128181778955109849
0.266000000000000125,-24.123005568889787753
0.267000000000000126,-24.111896190393188988
0.268000000000000127,-24.095071753938331227
0.269000000000000128,-24.072746982659037229
0.270000000000000129,-24.045133241711631911
0.271000000000000130,-24.012438541143559689
0.272000000000000131,-23.974867516351757502
0.273000000000000131,-23.932621389962957181
0.274000000000000132,-23.885897918706803011
0.275000000000000133,-23.834891328584696168
0.276000000000000134,-23.779792241366713768
0.277000000000000135,-23.720787595179039897
0.278000000000000136,-23.658060561678816214
0.279000000000000137,-23.591790462053236155
0.280000000000000138,-23.522152683828750241
0.281000000000000139,-23.449318600234185794
0.282000000000000139,-23.373455493631713153
0.283000000000000140,-23.294726484311357950
0.284000000000000141,-23.213290465739319757
0.285000000000000142,-23.129302047158979860
0.286000000000000143,-23.042911504264900202
0.287000000000000144,-22.954264738505763432
0.288000000000000145,-22.863503245421874510
0.289000000000000146,-22.770764092284711211
0.290000000000000147,-22.676179905182593188
0.291000000000000147,-22.579878865584504410
0.292000000000000148,-22.481984716315245976
0.293000000000000149,-22.382616776787092050
0.294000000000000150,-22.281889967257122009
0.295000000000000151,-22.179914841812980342
0.296000000000000152,-22.076797629733679429
0.297000000000000153,-21.972640284825494916
0.298000000000000154,-21.867540542293617989
0.299000000000000155,-21.761591982680499768
0.300000000000000155,-21.654884102377724986
0.301000000000000156,-21.547502390201792366
0.302000000000000157,-21.439528409512981000
0.303000000000000158,-21.331039885351266605
0.304000000000000159,-21.222110796062519711
0.305000000000000160,-21.112811468891557354
0.306000000000000161,-21.003208679026535322
0.307000000000000162,-20.893365751589374923
0.308000000000000163,-20.783342666080692140
0.309000000000000163,-20.673196162803769482
0.310000000000000164,-20.562979850809888660
0.311000000000000165,-20.452744316927184087
0.312000000000000166,-20.342537235456418898
0.313000000000000167,-20.232403478138770936
0.314000000000000168,-20.122385224024061046
0.315000000000000169,-20.012522068890817195
0.316000000000000170,-19.902851133893825875
0.317000000000000171,-19.793407173138067634
0.318000000000000171,-19.684222679901896669
0.319000000000000172,-19.575327991256045834
0.320000000000000173,-19.466751390847672809
0.321000000000000174,-19.358519209641617209
0.322000000000000175,-19.250655924432816590
0.323000000000000176,-19.143184253965461750
0.324000000000000177,-19.036125252514509043
0.325000000000000178,-18.929498400805346847
0.326000000000000179,-18.823321694166082807
0.327000000000000179,-18.717611727824781553
0.328000000000000180,-18.612383779281067575
0.329000000000000181,-18.507651887697758042
0.330000000000000182,-18.403428930272735187
0.331000000000000183,-18.299726695566160828
0.332000000000000184,-18.196555953770658931
0.333000000000000185,-18.093926523924629635
0.334000000000000186,-17.991847338080308560
0.335000000000000187,-17.890326502448047563
0.336000000000000187,-17.789371355548645681
0.337000000000000188,-17.688988523413154752
0.338000000000000189,-17.589183971878483703
0.339000000000000190,-17.489963056033314359
0.340000000000000191,-17.391330566875417674
0.341000000000000192,-17.293290775247253777
0.342000000000000193,-17.195847473120942084
0.343000000000000194,-17.099004012308402167
0.344000000000000195,-17.002763340675670634
0.345000000000000195,-16.907128035943646438
0.346000000000000196,-16.812100337159492369
0.347000000000000197,-16.717682173925211941
0.348000000000000198,-16.623875193471082667
0.349000000000000199,-16.530680785662511312
0.350000000000000200,-16.438100106029700953
0.351000000000000201,-16.346134096909242572
0.352000000000000202,-16.254783506786889546
0.353000000000000203,-16.164048907930002486
0.354000000000000203,-16.073930712397459075
0.355000000000000204,-15.984429186513619214
0.356000000000000205,-15.895544463891647879
0.357000000000000206,-15.807276557090045088
0.358000000000000207,-15.719625367984201958
0.359000000000000208,-15.632590696933197805
0.360000000000000209,-15.546172250819944693
0.361000000000000210,-15.460369650040314937
0.362000000000000210,-15.375182434515007657
0.363000000000000211,-15.290610068795260190
0.364000000000000212,-15.206651946331174230
0.365000000000000213,-15.123307392968811769
0.366000000000000214,-15.040575669739842724
0.367000000000000215,-14.958455975004730121
0.368000000000000216,-14.876947446008085052
0.369000000000000217,-14.796049159901958348
0.370000000000000218,-14.715760134290508887
0.371000000000000218,-14.636079327346649848
0.372000000000000219,-14.557005637548888544
0.373000000000000220,-14.478537903084074401
0.374000000000000221,-14.400674900959042901
0.375000000000000222,-14.323415345861954862
0.376000000000000223,-14.246757888811632853
0.377000000000000224,-14.170701115630782496
0.378000000000000225,-14.095243545276815667
0.379000000000000226,-14.020383628061646064
0.380000000000000226,-13.946119743789839873
0.381000000000000227,-13.872450199842145224
0.382000000000000228,-13.799373229229711768
0.383000000000000229,-13.726886988642093002
0.384000000000000230,-13.654989556510324533
0.385000000000000231,-13.583678931104705256
0.386000000000000232,-13.512953028684924206
0.387000000000000233,-13.442809681718662418
0.388000000000000234,-13.373246637183196839
0.389000000000000234,-13.304261554963051850
0.390000000000000235,-13.235852006355045773
0.391000000000000236,-13.168015472691219969
0.392000000000000237,-13.100749344088171711
0.393000000000000238,-13.034050918330740032
0.394000000000000239,-12.967917399896284891
0.395000000000000240,-12.902345899125020168
0.396000000000000241,-12.837333431540830730
0.397000000000000242,-12.772876917325689305
0.398000000000000242,-12.708973180950472681
0.399000000000000243,-12.645618950963482874
0.400000000000000244,-12.582810859937627157
0.401000000000000245,-12.520545444576427485
0.402000000000000246,-12.458819145978100806
0.403000000000000247,-12.397628310056566292
0.404000000000000248,-12.336969188117604901
0.405000000000000249,-12.276837937587831817
0.406000000000000250,-12.217230622893630709
0.407000000000000250,-12.158143216486841709
0.408000000000000251,-12.099571600013549144
0.409000000000000252,-12.041511565621986435
0.410000000000000253,-11.983958817405170549
0.411000000000000254,-11.926908972973764733
0.412000000000000255,-11.870357565154238344
0.413000000000000256,-11.814300043807346441
0.414000000000000257,-11.758731777761573412
0.415000000000000258,-11.703648056856270188
0.416000000000000258,-11.649044094088887746
0.417000000000000259,-11.594915027860697165
0.418000000000000260,-11.541255924315342085
0.419000000000000261,-11.488061779764379366
0.420000000000000262,-11.435327523194143140
0.421000000000000263,-11.383048018848132443
0.422000000000000264,-11.331218068879000072
0.423000000000000265,-11.279832416064493827
0.424000000000000266,-11.228885746581743987
0.425000000000000266,-11.178372692833974611
0.426000000000000267,-11.128287836324204818
0.427000000000000268,-11.078625710570461749
0.428000000000000269,-11.029380804056945209
0.429000000000000270,-10.980547563215917961
0.430000000000000271,-10.932120395435109828
0.431000000000000272,-10.884093672085485949
0.432000000000000273,-10.836461731564435595
0.433000000000000274,-10.789218882349613793
0.434000000000000274,-10.742359406058628934
0.435000000000000275,-10.695877560510094639
0.436000000000000276,-10.649767582781652919
0.437000000000000277,-10.604023692260636125
0.438000000000000278,-10.558640093683351324
0.439000000000000279,-10.513610980159024066
0.440000000000000280,-10.468930536174557488
0.441000000000000281,-10.424592940576525635
0.442000000000000282,-10.380592369526990382
0.443000000000000282,-10.336922999429665637
0.444000000000000283,-10.293579009823471182
0.445000000000000284,-10.250554586240363975
0.446000000000000285,-10.207843923024572774
0.447000000000000286,-10.165441226110816686
0.448000000000000287,-10.123340715758564201
0.449000000000000288,-10.081536629240405389
0.450000000000000289,-10.040023223481991721
0.451000000000000290,-9.998794777651621501
0.452000000000000290,-9.957845595697563112
0.453000000000000291,-9.917170008831245553
0.454000000000000292,-9.876762377954749539
0.455000000000000293,-9.836617096031062601
0.456000000000000294,-9.796728590395746394
0.457000000000000295,-9.757091325008767413
0.458000000000000296,-9.717699802645345386
0.459000000000000297,-9.678548567024940041
0.460000000000000298,-9.639632204877361943
0.461000000000000298,-9.600945347945346597
0.462000000000000299,-9.562482674922963000
0.463000000000000300,-9.524238913329249101
0.464000000000000301,-9.486208841316715379
0.465000000000000302,-9.448387289414373669
0.466000000000000303,-9.410769142205055005
0.467000000000000304,-9.373349339936858371
0.468000000000000305,-9.336122880068774776
0.469000000000000306,-9.299084818750403159
0.470000000000000306,-9.262230272236001483
0.471000000000000307,-9.225554418232977838
0.472000000000000308,-9.189052497185187462
0.473000000000000309,-9.152719813491321688
0.474000000000000310,-9.116551736658820460
0.475000000000000311,-9.080543702393809369
0.476000000000000312,-9.044691213627615411
0.477000000000000313,-9.008989841480421035
0.478000000000000314,-8.973435226162722600
0.479000000000000314,-8.938023077815362427
0.480000000000000315,-8.902749177288777460
0.481000000000000316,-8.867609376862390036
0.482000000000000317,-8.832599600904897486
0.483000000000000318,-8.797715846476354074
0.484000000000000319,-8.762954183873004510
0.485000000000000320,-8.728310757115782081
0.486000000000000321,-8.693781784383496358
0.487000000000000322,-8.659363558391666160
0.488000000000000322,-8.625052446718054711
0.489000000000000323,-8.590844892076008321
0.490000000000000324,-8.556737412536662646
0.491000000000000325,-8.522726601701066329
0.492000000000000326,-8.488809128823394445
0.493000000000000327,-8.454981738886399256
0.494000000000000328,-8.421241252630146334
0.495000000000000329,-8.387584566535362995
0.496000000000000330,-8.354008652762335174
0.497000000000000330,-8.320510559046772059
0.498000000000000331,-8.287087408553583501
0.499000000000000332,-8.253736399689937997
0.500000000000000333,-8.220454805878656401
0.501000000000000334,-8.187239975293206129
0.502000000000000335,-8.154089330555375881
0.503000000000000336,-8.121000368396980917
0.504000000000000337,-8.087970659286566999
0.505000000000000338,-8.054997847022445256
0.506000000000000338,-8.022079648293150456
0.507000000000000339,-7.989213852206479949
0.508000000000000340,-7.956398319788289264
0.509000000000000341,-7.923630983452167875
0.510000000000000342,-7.890909846441137354
0.511000000000000343,-7.858232982242475018
0.512000000000000344,-7.825598533976764415
0.513000000000000345,-7.793004713762290869
0.514000000000000346,-7.760449802055893187
0.515000000000000346,-7.727932146971238758
0.516000000000000347,-7.695450163575647373
0.517000000000000348,-7.663002333166576641
0.518000000000000349,-7.630587202528566593
0.519000000000000350,-7.598203383171922454
0.520000000000000351,-7.565849550553901182
0.521000000000000352,-7.533524443283551086
0.522000000000000353,-7.501226862311000332
0.523000000000000353,-7.468955670102237931
0.524000000000000354,-7.436709789800348247
0.525000000000000355,-7.404488204373914861
0.526000000000000356,-7.372289955753688950
0.527000000000000357,-7.340114143958271775
0.528000000000000358,-7.307959926209681711
0.529000000000000359,-7.275826516039638037
0.530000000000000360,-7.243713182387351068
0.531000000000000361,-7.211619248689689066
0.532000000000000361,-7.179544091964364938
0.533000000000000362,-7.147487141886982087
0.534000000000000363,-7.115447879862701441
0.535000000000000364,-7.083425838093131865
0.536000000000000365,-7.051420598639244197
0.537000000000000366,-7.019431792480949284
0.538000000000000367,-6.987459098573959970
0.539000000000000368,-6.955502242904676002
0.540000000000000369,-6.923560997543576789
0.541000000000000369,-6.891635179697854774
0.542000000000000370,-6.859724650763799225
0.543000000000000371,-6.827829315379483788
0.544000000000000372,-6.795949120478377736
0.545000000000000373,-6.764084054344354335
0.546000000000000374,-6.732234145668606118
0.547000000000000375,-6.700399462608979562
0.548000000000000376,-6.668580111852231873
0.549000000000000377,-6.636776237679638868
0.550000000000000377,-6.604988021036374057
0.551000000000000378,-6.573215678605123458
0.552000000000000379,-6.541459461884397975
0.553000000000000380,-6.509719656271788502
0.554000000000000381,-6.477996580152681538
0.555000000000000382,-6.446290583994807477
0.556000000000000383,-6.414602049448776100
0.557000000000000384,-6.382931388455230781
0.558000000000000385,-6.351279042358652482
0.559000000000000385,-6.319645481028334899
0.560000000000000386,-6.288031201986674645
0.561000000000000387,-6.256436729545158393
0.562000000000000388,-6.224862613948221046
0.563000000000000389,-6.193309430525304471
0.564000000000000390,-6.161777778851273091
0.565000000000000391,-6.130268281915496331
0.566000000000000392,-6.098781585299720476
0.567000000000000393,-6.067318356365025700
0.568000000000000393,-6.035879283447949106
0.569000000000000394,-6.004465075066010016
0.570000000000000395,-5.973076459132871996
0.571000000000000396,-5.941714182183075010
0.572000000000000397,-5.910379008606766682
0.573000000000000398,-5.879071719894318093
0.574000000000000399,-5.847793113891111005
0.575000000000000400,-5.816544004062494722
0.576000000000000401,-5.785325218769091116
0.577000000000000401,-5.754137600552533094
0.578000000000000402,-5.722982005431647146
0.579000000000000403,-5.691859302209242522
0.580000000000000404,-5.660770371789547006
0.581000000000000405,-5.629716106506307938
0.582000000000000406,-5.598697409461657060
0.583000000000000407,-5.567715193875747204
0.584000000000000408,-5.536770382447222083
0.585000000000000409,-5.505863906724529855
0.586000000000000409,-5.474996706488071574
0.587000000000000410,-5.444169729143288450
0.588000000000000411,-5.413383929124561789
0.589000000000000412,-5.382640267310053517
0.590000000000000413,-5.351939710447379817
0.591000000000000414,-5.321283230590164059
0.592000000000000415,-5.290671804545459267
0.593000000000000416,-5.260106413331931741
0.594000000000000417,-5.229588041648864483
0.595000000000000417,-5.199117677355969747
0.596000000000000418,-5.168696310963786900
0.597000000000000419,-5.138324935134905402
0.598000000000000420,-5.108004544195668295
0.599000000000000421,-5.077736133658559581
0.600000000000000422,-5.047520699755024154
0.601000000000000423,-5.017359238978763791
0.602000000000000424,-4.987252747639430162
0.603000000000000425,-4.957202221426619815
0.604000000000000425,-4.927208654984100100
0.605000000000000426,-4.897273041494210943
0.606000000000000427,-4.867396372272400740
0.607000000000000428,-4.837579636371646785
