# CNT15_DGL-AC
# h[nm],U(h)[kJ/mol]
0.149999999999999994,184.427844031681189563
0.150999999999999995,182.273166042431796541
0.151999999999999996,180.372643456734550682
0.152999999999999997,178.557629310128248790
0.153999999999999998,176.744032919806585369
0.154999999999999999,174.899281281933696164
0.156000000000000000,173.019277890101960793
0.157000000000000001,171.113275840763776614
0.158000000000000002,169.194649001148093248
0.159000000000000002,167.275823127143496549
0.160000000000000003,165.365975692663198515
0.161000000000000004,163.470452943074121777
0.162000000000000005,161.591149492285182987
0.163000000000000006,159.727336996217900378
0.164000000000000007,157.876614013723894914
0.165000000000000008,156.035785242690110408
0.166000000000000009,154.201573419738934945
0.167000000000000010,152.371130108694444516
0.168000000000000010,150.542350401934555748
0.169000000000000011,148.714018004870553114
0.170000000000000012,146.885816708086792914
0.171000000000000013,145.058246054636583722
0.172000000000000014,143.232476170940543625
0.173000000000000015,141.410171443127637758
0.174000000000000016,139.593306477216970052
0.175000000000000017,137.783991538307219571
0.176000000000000018,135.984318987024551006
0.177000000000000018,134.196237410944377189
0.178000000000000019,132.421456287854027778
0.179000000000000020,130.661381100260882704
0.180000000000000021,128.917076759647216022
0.181000000000000022,127.189255871785888985
0.182000000000000023,125.478287645577850640
0.183000000000000024,123.784222984438741832
0.184000000000000025,122.106831379810728322
0.185000000000000026,120.445645545557979972
0.186000000000000026,118.800010202312847696
0.187000000000000027,117.169131972394183094
0.188000000000000028,115.552127925147445353
0.189000000000000029,113.948070880225031942
0.190000000000000030,112.356030105339868896
0.191000000000000031,110.775106518192870908
0.192000000000000032,109.204461910253868950
0.193000000000000033,107.643342049468998312
0.194000000000000034,106.091093790768496774
0.195000000000000034,104.547176531471365024
0.196000000000000035,103.011168499286128508
0.197000000000000036,101.482768460666619603
0.198000000000000037,99.961793494301559804
0.199000000000000038,98.448173495994524274
0.200000000000000039,96.941943074254524504
0.201000000000000040,95.443231467115850819
0.202000000000000041,93.952251065883132242
0.203000000000000042,92.469285075727455592
0.204000000000000042,90.994674780630049327
0.205000000000000043,89.528806814632559963
0.206000000000000044,88.072100775535005823
0.207000000000000045,86.624997453301858741
0.208000000000000046,85.187947885126789060
0.209000000000000047,83.761403393531665529
0.210000000000000048,82.345806713783161968
0.211000000000000049,80.941584272711892822
0.212000000000000050,79.549139642849226561
0.213000000000000050,78.168848163585721522
0.214000000000000051,76.801052694553817446
0.215000000000000052,75.446060445297959518
0.216000000000000053,74.104140809073882679
0.217000000000000054,72.775524116828506749
0.218000000000000055,71.460401219546426432
0.219000000000000056,70.158923802688590854
0.220000000000000057,68.871205334889083360
0.221000000000000058,67.597322553948572477
0.222000000000000058,66.337317396000088365
0.223000000000000059,65.091199278135007944
0.224000000000000060,63.858947650375796457
0.225000000000000061,62.640514739348745366
0.226000000000000062,61.435828413050138863
0.227000000000000063,60.244795103469755304
0.228000000000000064,59.067302731322811837
0.229000000000000065,57.903223584573559890
0.230000000000000066,56.752417109669366369
0.231000000000000066,55.614732581330159178
0.232000000000000067,54.490011623271108476
0.233000000000000068,53.378090558312308644
0.234000000000000069,52.278802571908556729
0.235000000000000070,51.191979678186768865
0.236000000000000071,50.117454482103774183
0.237000000000000072,49.055061735326880523
0.238000000000000073,48.004639686914437391
0.239000000000000073,46.966031232846873422
0.240000000000000074,45.939084870956250484
0.241000000000000075,44.923655469858019273
0.242000000000000076,43.919604862130974254
0.243000000000000077,42.926802273256093656
0.244000000000000078,41.945124598749558231
0.245000000000000079,40.974456542541830117
0.246000000000000080,40.014690630002895944
0.247000000000000081,39.065727109121738181
0.248000000000000081,38.127473753253880773
0.249000000000000082,37.199845578582156236
0.250000000000000111,36.282764489020429721
0.251000000000000112,35.376158860757854541
0.252000000000000113,34.479963078010932520
0.253000000000000114,33.594117030852160610
0.254000000000000115,32.718565585227885606
0.255000000000000115,31.853258034488884931
0.256000000000000116,30.998147540947570633
0.257000000000000117,30.153190575157616138
0.258000000000000118,29.318346359801751078
0.259000000000000119,28.493576324274528133
0.260000000000000120,27.678843575272736643
0.261000000000000121,26.874112387961069714
0.262000000000000122,26.079347721569899221
0.263000000000000123,25.294514762610738501
0.264000000000000123,24.519578498265204303
0.265000000000000124,23.754503321917646019
0.266000000000000125,22.999252672261498276
0.267000000000000126,22.253788706914974682
0.268000000000000127,21.518072011032110424
0.269000000000000128,20.792061340992354701
0.270000000000000129,20.075713402891402382
0.271000000000000130,19.368982665238085872
0.272000000000000131,18.671821204986258635
0.273000000000000131,17.984178585791489979
0.274000000000000132,17.306001767181825812
0.275000000000000133,16.637235043163677517
0.276000000000000134,15.977820008648805583
0.277000000000000135,15.327695551983229194
0.278000000000000136,14.686797871778907165
0.279000000000000137,14.055060516195627685
0.280000000000000138,13.432414442789468723
0.281000000000000139,12.818788097031406537
0.282000000000000139,12.214107507607462111
0.283000000000000140,11.618296396633041923
0.284000000000000141,11.031276302951072310
0.285000000000000142,10.452966716731172170
0.286000000000000143,9.883285223645788875
0.287000000000000144,9.322147656966356166
0.288000000000000145,8.769468255995835904
0.289000000000000146,8.225159829335050077
0.290000000000000147,7.689133921562768315
0.291000000000000147,7.161300981998084403
0.292000000000000148,6.641570534301843409
0.293000000000000149,6.129851345765653825
0.294000000000000150,5.626051595226699398
0.295000000000000151,5.130079038637957112
0.296000000000000152,4.641841171411942746
0.297000000000000153,4.161245386744554686
0.298000000000000154,3.688199129210159466
0.299000000000000155,3.222610043002523295
0.300000000000000155,2.764386114275588113
0.301000000000000156,2.313435807115285847
0.302000000000000157,1.869668192745603363
0.303000000000000158,1.432993071642699956
0.304000000000000159,1.003321088295638486
0.305000000000000160,0.580563838414321354
0.306000000000000161,0.164633968442979783
0.307000000000000162,-0.244554732708868044
0.308000000000000163,-0.647087249755955662
0.309000000000000163,-1.043047264939391372
0.310000000000000164,-1.432517089691502932
0.311000000000000165,-1.815577603974944720
0.312000000000000166,-2.192308203173028325
0.313000000000000167,-2.562786752376910115
0.314000000000000168,-2.927089547887462118
0.315000000000000169,-3.285291285725128851
0.316000000000000170,-3.637465036919641737
0.317000000000000171,-3.983682229332694558
0.318000000000000171,-4.324012635751070199
0.319000000000000172,-4.658524367974935743
0.320000000000000173,-4.987283876614727163
0.321000000000000174,-5.310355956302204916
0.322000000000000175,-5.627803756015048897
0.323000000000000176,-5.939688794209937228
0.324000000000000177,-6.246070978457150424
0.325000000000000178,-6.547008629268487923
0.326000000000000179,-6.842558507812112722
0.327000000000000179,-7.132775847209273934
0.328000000000000180,-7.417714387112356533
0.329000000000000181,-7.697426411267938917
0.330000000000000182,-7.971962787774494075
0.331000000000000183,-8.241373011751338851
0.332000000000000184,-8.505705250142501228
0.333000000000000185,-8.765006388387725167
0.334000000000000186,-9.019322078701680567
0.335000000000000187,-9.268696789711320605
0.336000000000000187,-9.513173857211953077
0.337000000000000188,-9.752795535811381811
0.338000000000000189,-9.987603051243159058
0.339000000000000190,-10.217636653139647862
0.340000000000000191,-10.442935668066395394
0.341000000000000192,-10.663538552630338785
0.342000000000000193,-10.879482946484781536
0.343000000000000194,-11.090805725065154164
0.344000000000000195,-11.297543051899406663
0.345000000000000195,-11.499730430348733989
0.346000000000000196,-11.697402754643103862
0.347000000000000197,-11.890594360087616721
0.348000000000000198,-12.079339072324630777
0.349000000000000199,-12.263670255546978538
0.350000000000000200,-12.443620859566639325
0.351000000000000201,-12.619223465652671834
0.352000000000000202,-12.790510331060740867
0.353000000000000203,-12.957513432185418623
0.354000000000000203,-13.120264506274796901
0.355000000000000204,-13.278795091654107097
0.356000000000000205,-13.433136566413537594
0.357000000000000206,-13.583320185522339330
0.358000000000000207,-13.729377116337650122
0.359000000000000208,-13.871338472483918380
0.360000000000000209,-14.009235346084523144
0.361000000000000210,-14.143098838332821998
0.362000000000000210,-14.272960088396121847
0.363000000000000211,-14.398850300650433809
0.364000000000000212,-14.520800770249445932
0.365000000000000213,-14.638842907035231278
0.366000000000000214,-14.753008257802756376
0.367000000000000215,-14.863328526933916152
0.368000000000000216,-14.969835595420928342
0.369000000000000217,-15.072561538301595618
0.370000000000000218,-15.171538640532816089
0.371000000000000218,-15.266799411330788772
0.372000000000000219,-15.358376597009462117
0.373000000000000220,-15.446303192350935518
0.374000000000000221,-15.530612450543406666
0.375000000000000222,-15.611337891724101468
0.376000000000000223,-15.688513310166815273
0.377000000000000224,-15.762172780154241281
0.378000000000000225,-15.832350660577057866
0.379000000000000226,-15.899081598302586826
0.380000000000000226,-15.962400530356822159
0.381000000000000227,-16.022342684963906123
0.382000000000000228,-16.078943581488267967
0.383000000000000229,-16.132239029324438206
0.384000000000000230,-16.182265125780002535
0.385000000000000231,-16.229058252997482725
0.386000000000000232,-16.272655073960329730
0.387000000000000233,-16.313092527628793249
0.388000000000000234,-16.350407823250439066
0.389000000000000234,-16.384638433890412301
0.390000000000000235,-16.415822089225525104
0.391000000000000236,-16.443996767646176238
0.392000000000000237,-16.469200687709196984
0.393000000000000238,-16.491472298984223954
0.394000000000000239,-16.510850272335282796
0.395000000000000240,-16.527373489678744534
0.396000000000000241,-16.541081033257672317
0.397000000000000242,-16.552012174471812500
0.398000000000000242,-16.560206362301673977
0.399000000000000243,-16.565703211363864256
0.400000000000000244,-16.568542489634161541
0.401000000000000245,-16.568764105873569292
0.402000000000000246,-16.566408096791654714
0.403000000000000247,-16.561514613980243382
0.404000000000000248,-16.554123910649835238
0.405000000000000249,-16.544276328199430282
0.406000000000000250,-16.532012282649937163
0.407000000000000250,-16.517372250969813763
0.408000000000000251,-16.500396757320732632
0.409000000000000252,-16.481126359249770985
0.410000000000000253,-16.459601633853740310
0.411000000000000254,-16.435863163939909981
0.412000000000000255,-16.409951524206523032
0.413000000000000256,-16.381907267465358302
0.414000000000000257,-16.351770910927378111
0.415000000000000258,-16.319582922571761685
0.416000000000000258,-16.285383707617228310
0.417000000000000259,-16.249213595113896957
0.418000000000000260,-16.211112824672571975
0.419000000000000261,-16.171121533347680099
0.420000000000000262,-16.129279742688929389
0.421000000000000263,-16.085627345975943570
0.422000000000000264,-16.040204095648977756
0.423000000000000265,-15.993049590948325900
0.424000000000000266,-15.944203265773841949
0.425000000000000266,-15.893704376775076526
0.426000000000000267,-15.841591991682207663
0.427000000000000268,-15.787904977886473290
0.428000000000000269,-15.732681991278539613
0.429000000000000270,-15.675961465352440172
0.430000000000000271,-15.617781600581512436
0.431000000000000272,-15.558180354072845830
0.432000000000000273,-15.497195429505401520
0.433000000000000274,-15.434864267356633860
0.434000000000000274,-15.371224035421761300
0.435000000000000275,-15.306311619629218157
0.436000000000000276,-15.240163615155330135
0.437000000000000277,-15.172816317840391420
0.438000000000000278,-15.104305715908290964
0.439000000000000279,-15.034667481990917182
0.440000000000000280,-14.963936965458159989
0.441000000000000281,-14.892149185054069704
0.442000000000000282,-14.819338821839107112
0.443000000000000282,-14.745540212437896699
0.444000000000000283,-14.670787342591921742
0.445000000000000284,-14.595113841015692202
0.446000000000000285,-14.518552973554843533
0.447000000000000286,-14.441137637644512637
0.448000000000000287,-14.362900357065303325
0.449000000000000288,-14.283873276994793144
0.450000000000000289,-14.204088159351377030
0.451000000000000290,-14.123576378427539879
0.452000000000000290,-14.042368916809380153
0.453000000000000291,-13.960496361578430324
0.454000000000000292,-13.877988900792445293
0.455000000000000293,-13.794876320240845757
0.456000000000000294,-13.711188000470864168
0.457000000000000295,-13.626952914080050050
0.458000000000000296,-13.542199623270468223
0.459000000000000297,-13.456956277660330201
0.460000000000000298,-13.371250612347839848
0.461000000000000298,-13.285109946222917188
0.462000000000000299,-13.198561180521380720
0.463000000000000300,-13.111630797616712130
0.464000000000000301,-13.024344860044346106
0.465000000000000302,-12.936729009753161534
0.466000000000000303,-12.848808467578830772
0.467000000000000304,-12.760608032933934197
0.468000000000000305,-12.672152083709205428
0.469000000000000306,-12.583464576380707811
0.470000000000000306,-12.494569046317501204
0.471000000000000307,-12.405488608284146679
0.472000000000000308,-12.316245957132952782
0.473000000000000309,-12.226863368680202626
0.474000000000000310,-12.137362700761128664
0.475000000000000311,-12.047765394457991661
0.476000000000000312,-11.958092475496211904
0.477000000000000313,-11.868364555802713767
0.478000000000000314,-11.778601835221461869
0.479000000000000314,-11.688824103380781594
0.480000000000000315,-11.599050741707063850
0.481000000000000316,-11.509300725579834079
0.482000000000000317,-11.419592626622769416
0.483000000000000318,-11.329944615125693730
0.484000000000000319,-11.240374462592393812
0.485000000000000320,-11.150899544409275777
0.486000000000000321,-11.061536842629866584
0.487000000000000322,-10.972302948870332528
0.488000000000000322,-10.883214067311035578
0.489000000000000323,-10.794286017799668898
0.490000000000000324,-10.705534239050988887
0.491000000000000325,-10.616973791938759675
0.492000000000000326,-10.528619362875179633
0.493000000000000327,-10.440485267273638570
0.494000000000000328,-10.352585453090123124
0.495000000000000329,-10.264933504439246903
0.496000000000000330,-10.177542645280485800
0.497000000000000330,-10.090425743170765571
0.498000000000000331,-10.003595313078999851
0.499000000000000332,-9.917063521259107617
0.500000000000000333,-9.830842189177257495
0.501000000000000334,-9.744942797489656527
0.502000000000000335,-9.659376490067373311
0.503000000000000336,-9.574154078064420759
0.504000000000000337,-9.489286044025629252
0.505000000000000338,-9.404782546030887147
0.506000000000000338,-9.320653421872473032
0.507000000000000339,-9.236908193262117095
0.508000000000000340,-9.153556070064629679
0.509000000000000341,-9.070605954555288619
0.510000000000000342,-8.988066445697478812
0.511000000000000343,-8.905945843438210829
0.512000000000000344,-8.824252153018290912
0.513000000000000345,-8.742993089294611053
0.514000000000000346,-8.662176081071896405
0.515000000000000346,-8.581808275441190403
0.516000000000000347,-8.501896542122675982
0.517000000000000348,-8.422447477810525385
0.518000000000000349,-8.343467410517117600
0.519000000000000350,-8.264962403914783096
0.520000000000000351,-8.186938261672448647
0.521000000000000352,-8.109400531785519561
0.522000000000000353,-8.032354510896563937
0.523000000000000353,-7.955805248605062552
0.524000000000000354,-7.879757551764370760
0.525000000000000355,-7.804215988763857581
0.526000000000000356,-7.729184893794672107
0.527000000000000357,-7.654668371097446133
0.528000000000000358,-7.580670299190080286
0.529000000000000359,-7.507194335074514058
0.530000000000000360,-7.434243918420468944
0.531000000000000361,-7.361822275725222298
0.532000000000000361,-7.289932424447695958
0.533000000000000362,-7.218577177115813370
0.534000000000000363,-7.147759145405723658
0.535000000000000364,-7.077480744191831263
0.536000000000000365,-7.007744195566409928
0.537000000000000366,-6.938551532827856860
0.538000000000000367,-6.869904604436380957
0.539000000000000368,-6.801805077936485588
0.540000000000000369,-6.734254443844922555
0.541000000000000369,-6.667254019503708662
0.542000000000000370,-6.600804952897017408
0.543000000000000371,-6.534908226431414668
0.544000000000000372,-6.469564660678670975
0.545000000000000373,-6.404774918080488710
0.546000000000000374,-6.340539506614453202
0.547000000000000375,-6.276858783420736110
0.548000000000000376,-6.213732958388996863
0.549000000000000377,-6.151162097704907517
0.550000000000000377,-6.089146127355936855
0.551000000000000378,-6.027684836595893714
0.552000000000000379,-5.966777881367976377
0.553000000000000380,-5.906424787685845779
0.554000000000000381,-5.846624954972440058
0.555000000000000382,-5.787377659356438997
0.556000000000000383,-5.728682056925772592
0.557000000000000384,-5.670537186938410912
0.558000000000000385,-5.612941974989829497
0.559000000000000385,-5.555895236137319060
0.560000000000000386,-5.499395677980878361
0.561000000000000387,-5.443441903700592555
0.562000000000000388,-5.388032415050465040
0.563000000000000389,-5.333165615308688601
0.564000000000000390,-5.278839812184282998
0.565000000000000391,-5.225053220680136334
0.566000000000000392,-5.171803965912480372
0.567000000000000393,-5.119090085886912611
0.568000000000000393,-5.066909534230902068
0.569000000000000394,-5.015260182882987472
0.570000000000000395,-4.964139824738843743
0.571000000000000396,-4.913546176254101283
0.572000000000000397,-4.863476880004421687
0.573000000000000398,-4.813929507202662883
0.574000000000000399,-4.764901560173597339
0.575000000000000400,-4.716390474786175346
0.576000000000000401,-4.668393622843675317
0.577000000000000401,-4.620908314432011998
0.578000000000000402,-4.573931800226268329
0.579000000000000403,-4.527461273755874593
0.580000000000000404,-4.481493873628716429
0.581000000000000405,-4.436026685714301365
0.582000000000000406,-4.391056745286469720
0.583000000000000407,-4.346581039125788415
0.584000000000000408,-4.302596507582087781
0.585000000000000409,-4.259100046597389166
0.586000000000000409,-4.216088509689530639
0.587000000000000410,-4.173558709896967756
0.588000000000000411,-4.131507421684915471
0.589000000000000412,-4.089931382813389860
0.590000000000000413,-4.048827296167337053
0.591000000000000414,-4.008191831549337891
0.592000000000000415,-3.968021627435275089
0.593000000000000416,-3.928313292693224046
0.594000000000000417,-3.889063408266063337
0.595000000000000417,-3.850268528818320934
0.596000000000000418,-3.811925184347240592
0.597000000000000419,-3.774029881759036531
0.598000000000000420,-3.736579106410228945
0.599000000000000421,-3.699569323614847693
0.600000000000000422,-3.662996980117671164
0.601000000000000423,-3.626858505534065635
0.602000000000000424,-3.591150313756782175
0.603000000000000425,-3.555868804330108102
0.604000000000000425,-3.521010363791883258
0.605000000000000426,-3.486571366983669318
0.606000000000000427,-3.452548178329718720
0.607000000000000428,-3.418937153084788072
0.608000000000000429,-3.385734638551765041
