# CNT15_AFUC-AC
# h[nm],U(h)[kJ/mol]
0.149999999999999994,187.545068332424591517
0.150999999999999995,185.681407619088588490
0.151999999999999996,183.305915982161934608
0.152999999999999997,180.976749425447366093
0.153999999999999998,178.837535488115520366
0.154999999999999999,176.862262195722450997
0.156000000000000000,174.977836715986143190
0.157000000000000001,173.118059930101907185
0.158000000000000002,171.241394319914491007
0.159000000000000002,169.331389479056781511
0.160000000000000003,167.390256956843330727
0.161000000000000004,165.431032801451323166
0.162000000000000005,163.470821508694882596
0.163000000000000006,161.525983020009874735
0.164000000000000007,159.609288141238721437
0.165000000000000008,157.728697025623858963
0.166000000000000009,155.887303292588740078
0.167000000000000010,154.084006625581139360
0.168000000000000010,152.314554838846845541
0.169000000000000011,150.572690690589581664
0.170000000000000012,148.851227584451265784
0.171000000000000013,147.142952201567538850
0.172000000000000014,145.441308333712612466
0.173000000000000015,143.740855637045427784
0.174000000000000016,142.037522236497835593
0.175000000000000017,140.328684141857422674
0.176000000000000018,138.613110254021506762
0.177000000000000018,136.890811923368289627
0.178000000000000019,135.162832659467767371
0.179000000000000020,133.431008277208690060
0.180000000000000021,131.697721652437110151
0.181000000000000022,129.965670136143842228
0.182000000000000023,128.237658035237870990
0.183000000000000024,126.516421685951627296
0.184000000000000025,124.804490641091973657
0.185000000000000026,123.104085375064684627
0.186000000000000026,121.417049622530996089
0.187000000000000027,119.744813909963525589
0.188000000000000028,118.088385898267318908
0.189000000000000029,116.448362709326232789
0.190000000000000030,114.824960345880569434
0.191000000000000031,113.218055529968978590
0.192000000000000032,111.627235691904871828
0.193000000000000033,110.051853366133741474
0.194000000000000034,108.491081833787504252
0.195000000000000034,106.943969449297156871
0.196000000000000035,105.409490666968707728
0.197000000000000036,103.886592320035177295
0.198000000000000037,102.374234184782096690
0.199000000000000038,100.871423277984348488
0.200000000000000039,99.377241684307335845
0.201000000000000040,97.890867992535206099
0.202000000000000041,96.411592639222689627
0.203000000000000042,94.938827621111641974
0.204000000000000042,93.472111149951061293
0.205000000000000043,92.011107892207647296
0.206000000000000044,90.555605468605818942
0.207000000000000045,89.105507891267833998
0.208000000000000046,87.660826595745533041
0.209000000000000047,86.221669687138671634
0.210000000000000048,84.788229968802809822
0.211000000000000049,83.360772263182354891
0.212000000000000050,81.939620470685966325
0.213000000000000050,80.525144747236865328
0.214000000000000051,79.117749116541659760
0.215000000000000052,77.717859771066898134
0.216000000000000053,76.325914257540972585
0.217000000000000054,74.942351689456046415
0.218000000000000055,73.567604081121274362
0.219000000000000056,72.202088855629568798
0.220000000000000057,70.846202542710912553
0.221000000000000058,69.500315651765603775
0.222000000000000058,68.164768680135836121
0.223000000000000059,66.839869196558169051
0.224000000000000060,65.525889924309481671
0.225000000000000061,64.223067737370683972
0.226000000000000062,62.931603475497482236
0.227000000000000063,61.651662479930031679
0.228000000000000064,60.383375750119043346
0.229000000000000065,59.126841622843549828
0.230000000000000066,57.882127878024810741
0.231000000000000066,56.649274180007367363
0.232000000000000067,55.428294768733373132
0.233000000000000068,54.219181321759151615
0.234000000000000069,53.021905915178386692
0.235000000000000070,51.836424018980054029
0.236000000000000071,50.662677469978412148
0.237000000000000072,49.500597373029123105
0.238000000000000073,48.350106888652135240
0.239000000000000073,47.211123872303900839
0.240000000000000074,46.083563337283720784
0.241000000000000075,44.967339719565572409
0.242000000000000076,43.862368928661680911
0.243000000000000077,42.768570173921865774
0.244000000000000078,41.685867560439433532
0.245000000000000079,40.614191452962998596
0.246000000000000080,39.553479609917971516
0.247000000000000081,38.503678092828742763
0.248000000000000081,37.464741959133249338
0.249000000000000082,36.436635748617192121
0.250000000000000111,35.419333775497591432
0.251000000000000112,34.412820239589159144
0.252000000000000113,33.417089171022716698
0.253000000000000114,32.432144223694606922
0.254000000000000115,31.457998333034975502
0.255000000000000115,30.494673253835241411
0.256000000000000116,29.542198993795590667
0.257000000000000117,28.600613158179822193
0.258000000000000118,27.669960220524018268
0.259000000000000119,26.750290733765524465
0.260000000000000120,25.841660495466026504
0.261000000000000121,24.944129680021763562
0.262000000000000122,24.057761949903607501
0.263000000000000123,23.182623557074006015
0.264000000000000123,22.318782444798497266
0.265000000000000124,21.466307359127092980
0.266000000000000125,20.625266978374902749
0.267000000000000126,19.795729067996024497
0.268000000000000127,18.977759667327152471
0.269000000000000128,18.171422313789783232
0.270000000000000129,17.376777309284822337
0.271000000000000130,16.593881032698316602
0.272000000000000131,15.822785301667952496
0.273000000000000131,15.063536786035758297
0.274000000000000132,14.316176474739915392
0.275000000000000133,13.580739197275599750
0.276000000000000134,12.857253200283318861
0.277000000000000135,12.145739779305197104
0.278000000000000136,11.446212965279002560
0.279000000000000137,10.758679264921648056
0.280000000000000138,10.083137453783653115
0.281000000000000139,9.419578420430385179
0.282000000000000139,8.767985059927362101
0.283000000000000140,8.128332214568086300
0.284000000000000141,7.500586659585415816
0.285000000000000142,6.884707131426276661
0.286000000000000143,6.280644396043323141
0.287000000000000144,5.688341354563179131
0.288000000000000145,5.107733183625294160
0.289000000000000146,4.538747507648984048
0.290000000000000147,3.981304600270947791
0.291000000000000147,3.435317612205577742
0.292000000000000148,2.900692822806887783
0.293000000000000149,2.377329912657649036
0.294000000000000150,1.865122254570581450
0.295000000000000151,1.363957220461142539
0.296000000000000152,0.873716501635557030
0.297000000000000153,0.394276440133135897
0.298000000000000154,-0.074491631136833145
0.299000000000000155,-0.532721041614028668
0.300000000000000155,-0.980549431699421215
0.301000000000000156,-1.418118398680954240
0.302000000000000157,-1.845573141774305537
0.303000000000000158,-2.263062107958687008
0.304000000000000159,-2.670736640167588050
0.305000000000000160,-3.068750629273514718
0.306000000000000161,-3.457260171186908870
0.307000000000000162,-3.836423230272282492
0.308000000000000163,-4.206399310170001016
0.309000000000000163,-4.567349133000600858
0.310000000000000164,-4.919434327820767727
0.311000000000000165,-5.262817129095654245
0.312000000000000166,-5.597660085852525391
0.313000000000000167,-5.924125782084879610
0.314000000000000168,-6.242376568885214638
0.315000000000000169,-6.552574308698287275
0.316000000000000170,-6.854880132005297000
0.317000000000000171,-7.149454206672315237
0.318000000000000171,-7.436455520124586549
0.319000000000000172,-7.716041674441574294
0.320000000000000173,-7.988368694404644366
0.321000000000000174,-8.253590848472066810
0.322000000000000175,-8.511860482603081479
0.323000000000000176,-8.763327866803731325
0.324000000000000177,-9.008141054223617772
0.325000000000000178,-9.246445752591883505
0.326000000000000179,-9.478385207745702701
0.327000000000000179,-9.704100098971611743
0.328000000000000180,-9.923728445852104230
0.329000000000000181,-10.137405526285087731
0.330000000000000182,-10.345263805321859962
0.331000000000000183,-10.547432874451628138
0.332000000000000184,-10.744039400944613405
0.333000000000000185,-10.935207086853640845
0.334000000000000186,-11.121056637264192801
0.335000000000000187,-11.301705737375373317
0.336000000000000187,-11.477269037989472622
0.337000000000000188,-11.647858148983978310
0.338000000000000189,-11.813581640340025558
0.339000000000000190,-11.974545050301115268
0.340000000000000191,-12.130850900238597134
0.341000000000000192,-12.282598715804455836
0.342000000000000193,-12.429885053957150376
0.343000000000000194,-12.572803535452738544
0.344000000000000195,-12.711444882400737555
0.345000000000000195,-12.845896960493721650
0.346000000000000196,-12.976244825527729176
0.347000000000000197,-13.102570773841984320
0.348000000000000198,-13.224954396316343619
0.349000000000000199,-13.343472635576707930
0.350000000000000200,-13.458199846070471040
0.351000000000000201,-13.569207856685938651
0.352000000000000202,-13.676566035602466087
0.353000000000000203,-13.780341357070664543
0.354000000000000203,-13.880598469835003783
0.355000000000000204,-13.977399766923706892
0.356000000000000205,-14.070805456544301038
0.357000000000000206,-14.160873633836180474
0.358000000000000207,-14.247660353243702502
0.359000000000000208,-14.331219701287158941
0.360000000000000209,-14.411603869520956067
0.361000000000000210,-14.488863227480839768
0.362000000000000210,-14.563046395434621871
0.363000000000000211,-14.634200316762369098
0.364000000000000212,-14.702370329804272941
0.365000000000000213,-14.767600239025332698
0.366000000000000214,-14.829932385357574631
0.367000000000000215,-14.889407715591001846
0.368000000000000216,-14.946065850695280375
0.369000000000000217,-14.999945152963835682
0.370000000000000218,-15.051082791882388179
0.371000000000000218,-15.099514808632751084
0.372000000000000219,-15.145276179152180163
0.373000000000000220,-15.188400875677199764
0.374000000000000221,-15.228921926708926193
0.375000000000000222,-15.266871475344718334
0.376000000000000223,-15.302280835929309433
0.377000000000000224,-15.335180548984771676
0.378000000000000225,-15.365600434386061934
0.379000000000000226,-15.393569642755281279
0.380000000000000226,-15.419116705054003447
0.381000000000000227,-15.442269580358351178
0.382000000000000228,-15.463055701807636666
0.383000000000000229,-15.481502020721865875
0.384000000000000230,-15.497635048888446008
0.385000000000000231,-15.511480899023121438
0.386000000000000232,-15.523065323413785421
0.387000000000000233,-15.532413750760388993
0.388000000000000234,-15.539551321226980463
0.389000000000000234,-15.544502919726047807
0.390000000000000235,-15.547293207457585140
0.391000000000000236,-15.547946651728802081
0.392000000000000237,-15.546487554082318638
0.393000000000000238,-15.542940076763679613
0.394000000000000239,-15.537328267560273076
0.395000000000000240,-15.529676083046513924
0.396000000000000241,-15.520007410271144721
0.397000000000000242,-15.508346086924186480
0.398000000000000242,-15.494715920022624545
0.399000000000000243,-15.479140703154518732
0.400000000000000244,-15.461644232322617754
0.401000000000000245,-15.442250320429156574
0.402000000000000246,-15.420982810444078481
0.403000000000000247,-15.397865587299587986
0.404000000000000248,-15.372922588554194689
0.405000000000000249,-15.346177813869678275
0.406000000000000250,-15.317655333344537993
0.407000000000000250,-15.287379294747424296
0.408000000000000251,-15.255373929694098223
0.409000000000000252,-15.221663558811219019
0.410000000000000253,-15.186272595929878548
0.411000000000000254,-15.149225551351705121
0.412000000000000255,-15.110547034229592001
0.413000000000000256,-15.070261754105061414
0.414000000000000257,-15.028394521643098969
0.415000000000000258,-14.984970248605458565
0.416000000000000258,-14.940013947101942193
0.417000000000000259,-14.893550728159230090
0.418000000000000260,-14.845605799645330336
0.419000000000000261,-14.796204463587656619
0.420000000000000262,-14.745372112921291574
0.421000000000000263,-14.693134227703581018
0.422000000000000264,-14.639516370830019554
0.423000000000000265,-14.584544183285661489
0.424000000000000266,-14.528243378965438382
0.425000000000000266,-14.470639739095494392
0.426000000000000267,-14.411759106287124865
0.427000000000000268,-14.351627378253647649
0.428000000000000269,-14.290270501219684007
0.429000000000000270,-14.227714463051441385
0.430000000000000271,-14.163985286135348574
0.431000000000000272,-14.099109020031889372
0.432000000000000273,-14.033111733929946041
0.433000000000000274,-13.966019508926581949
0.434000000000000274,-13.897858430155745069
0.435000000000000275,-13.828654578788803775
0.436000000000000276,-13.758434023928709067
0.437000000000000277,-13.687222814418570138
0.438000000000000278,-13.615046970584852914
0.439000000000000279,-13.541932475934164160
0.440000000000000280,-13.467905268821805720
0.441000000000000281,-13.392991234109581811
0.442000000000000282,-13.317216194829304854
0.443000000000000282,-13.240605903867606941
0.444000000000000283,-13.163186035687033382
0.445000000000000284,-13.084982178097423144
0.446000000000000285,-13.006019824090696346
0.447000000000000286,-12.926324363752010882
0.448000000000000287,-12.845921076258463245
0.449000000000000288,-12.764835121977004206
0.450000000000000289,-12.683091534671394385
0.451000000000000290,-12.600715213828234340
0.452000000000000290,-12.517730917111036248
0.453000000000000291,-12.434163252950471090
0.454000000000000292,-12.350036673278903976
0.455000000000000293,-12.265375466416079675
0.456000000000000294,-12.180203750112672978
0.457000000000000295,-12.094545464757757713
0.458000000000000296,-12.008424366755482637
0.459000000000000297,-11.921864022076167799
0.460000000000000298,-11.834887799985976287
0.461000000000000298,-11.747518866959429928
0.462000000000000299,-11.659780180778051673
0.463000000000000300,-11.571694484818241477
0.464000000000000301,-11.483284302531091114
0.465000000000000302,-11.394571932116358326
0.466000000000000303,-11.305579441392223927
0.467000000000000304,-11.216328662862672161
0.468000000000000305,-11.126841188983181752
0.469000000000000306,-11.037138367625754398
0.470000000000000306,-10.947241297743754984
0.471000000000000307,-10.857170825236350353
0.472000000000000308,-10.766947539012836188
0.473000000000000309,-10.676591767256054410
0.474000000000000310,-10.586123573884430371
0.475000000000000311,-10.495562755211398809
0.476000000000000312,-10.404928836801508041
0.477000000000000313,-10.314241070521228849
0.478000000000000314,-10.223518431783212179
0.479000000000000314,-10.132779616982183768
0.480000000000000315,-10.042043041120230384
0.481000000000000316,-9.951326835619649813
0.482000000000000317,-9.860648846320714256
0.483000000000000318,-9.770026631662140915
0.484000000000000319,-9.679477461041471997
0.485000000000000320,-9.589018313352763556
0.486000000000000321,-9.498665875698645067
0.487000000000000322,-9.408436542273857839
0.488000000000000322,-9.318346413417028629
0.489000000000000323,-9.228411294827898459
0.490000000000000324,-9.138646696946388204
0.491000000000000325,-9.049067834490461593
0.492000000000000326,-8.959689626149216934
0.493000000000000327,-8.870526694428074066
0.494000000000000328,-8.781593365642242688
0.495000000000000329,-8.692903670055255105
0.496000000000000330,-8.604471342158785063
0.497000000000000330,-8.516309821090423782
0.498000000000000331,-8.428432251185421720
0.499000000000000332,-8.340851482659330074
0.500000000000000333,-8.253580072417410207
0.501000000000000334,-8.166630284987345334
0.502000000000000335,-8.080014093571746159
0.503000000000000336,-7.993743181216653504
0.504000000000000337,-7.907828942092419489
0.505000000000000338,-7.822282482883428756
0.506000000000000338,-7.737114624282996900
0.507000000000000339,-7.652335902589856964
0.508000000000000340,-7.567956571402629784
0.509000000000000341,-7.483986603408974148
0.510000000000000342,-7.400435692265494581
0.511000000000000343,-7.317313254565361191
0.512000000000000344,-7.234628431889840172
0.513000000000000345,-7.152390092940592581
0.514000000000000346,-7.070606835749264185
0.515000000000000346,-6.989286989960976193
0.516000000000000347,-6.908438619188538965
0.517000000000000348,-6.828069523434209032
0.518000000000000349,-6.748187241575498874
0.519000000000000350,-6.668799053912354502
0.520000000000000351,-6.589911984772132136
0.521000000000000352,-6.511532805169754745
0.522000000000000353,-6.433668035519746198
0.523000000000000353,-6.356323948397336387
0.524000000000000354,-6.279506571345869759
0.525000000000000355,-6.203221689727422827
0.526000000000000356,-6.127474849614074515
0.527000000000000357,-6.052271360717159432
0.528000000000000358,-5.977616299351501183
0.529000000000000359,-5.903514511432566003
0.530000000000000360,-5.829970615503445863
0.531000000000000361,-5.756989005789630021
0.532000000000000361,-5.684573855278816978
0.533000000000000362,-5.612729118823656549
0.534000000000000363,-5.541458536264892487
0.535000000000000364,-5.470765635572822916
0.536000000000000365,-5.400653736004798589
0.537000000000000366,-5.331125951276662001
0.538000000000000367,-5.262185192745964635
0.539000000000000368,-5.193834172605162891
0.540000000000000369,-5.126075407082476332
0.541000000000000369,-5.058911219648911661
0.542000000000000370,-4.992343744229229330
0.543000000000000371,-4.926374928415301113
0.544000000000000372,-4.861006536680035239
0.545000000000000373,-4.796240153590199284
0.546000000000000374,-4.732077187016420439
0.547000000000000375,-4.668518871338955378
0.548000000000000376,-4.605566270647554639
0.549000000000000377,-4.543220281934045701
0.550000000000000377,-4.481481638276100909
0.551000000000000378,-4.420350912010931665
0.552000000000000379,-4.359828517897555322
0.553000000000000380,-4.299914716266292736
0.554000000000000381,-4.240609616154333850
0.555000000000000382,-4.181913178426258426
0.556000000000000383,-4.123825218878145904
0.557000000000000384,-4.066345411324536308
0.558000000000000385,-4.009473290666834444
0.559000000000000385,-3.953208255942448623
0.560000000000000386,-3.897549573353569663
0.561000000000000387,-3.842496379274686014
0.562000000000000388,-3.788047683237995678
0.563000000000000389,-3.734202370895898238
0.564000000000000390,-3.680959206959726338
0.565000000000000391,-3.628316838114012288
0.566000000000000392,-3.576273795905534847
0.567000000000000393,-3.524828499606566190
0.568000000000000393,-3.473979259051541923
0.569000000000000394,-3.423724277446614117
0.570000000000000395,-3.374061654151629508
0.571000000000000396,-3.324989387433754384
0.572000000000000397,-3.276505377192528101
0.573000000000000398,-3.228607427655600048
0.574000000000000399,-3.181293250044996856
0.575000000000000400,-3.134560465213209746
0.576000000000000401,-3.088406606248971453
0.577000000000000401,-3.042829121052316843
0.578000000000000402,-2.997825374878470228
0.579000000000000403,-2.953392652850409750
0.580000000000000404,-2.909528162439879662
0.581000000000000405,-2.866229035916405543
0.582000000000000406,-2.823492332764334201
0.583000000000000407,-2.781315042067521226
0.584000000000000408,-2.739694084861633794
0.585000000000000409,-2.698626316453839991
0.586000000000000409,-2.658108528709768770
0.587000000000000410,-2.618137452307728541
0.588000000000000411,-2.578709758959946363
0.589000000000000412,-2.539822063600953417
0.590000000000000413,-2.501470926542894713
0.591000000000000414,-2.463652855597874503
0.592000000000000415,-2.426364308167308081
0.593000000000000416,-2.389601693298204488
0.594000000000000417,-2.353361373706498227
0.595000000000000417,-2.317639667767569023
0.596000000000000418,-2.282432851473678248
0.597000000000000419,-2.247737160358856734
0.598000000000000420,-2.213548791390915760
0.599000000000000421,-2.179863904830987575
0.600000000000000422,-2.146678626060537276
0.601000000000000423,-2.113989047376055641
0.602000000000000424,-2.081791229751579486
0.603000000000000425,-2.050081204569133231
0.604000000000000425,-2.018854975317338152
0.605000000000000426,-1.988108519258284801
0.606000000000000427,-1.957837789063017864
0.607000000000000428,-1.928038714415479360
0.608000000000000429,-1.898707203585677572
