# CNT15_ILESCA-JS
# h[nm],U(h)[kJ/mol]
0.149999999999999994,144.909811812938926323
0.150999999999999995,141.992133570071956683
0.151999999999999996,140.273736335886127335
0.152999999999999997,138.844563245501660731
0.153999999999999998,137.345448721791910884
0.154999999999999999,135.689374702869912426
0.156000000000000000,133.905299202481984366
0.157000000000000001,132.056292635127647372
0.158000000000000002,130.201141263105768076
0.159000000000000002,128.380125462300270556
0.160000000000000003,126.613231642790623255
0.161000000000000004,124.903912908869003218
0.162000000000000005,123.244572231226356962
0.163000000000000006,121.621816892940586285
0.164000000000000007,120.020640684432891021
0.165000000000000008,118.427310451026940541
0.166000000000000009,116.831051760016819685
0.167000000000000010,115.224766051007719625
0.168000000000000010,113.605046617626925354
0.169000000000000011,111.971742023785665765
0.170000000000000012,110.327272771892538117
0.171000000000000013,108.675857436472753648
0.172000000000000014,107.022757351960279948
0.173000000000000015,105.373608697278385193
0.174000000000000016,103.733878942216847463
0.175000000000000017,102.108460974712173197
0.176000000000000018,100.501401857315769917
0.177000000000000018,98.915752780049984949
0.178000000000000019,97.353521055987215505
0.179000000000000020,95.815702723754441195
0.180000000000000021,94.302374434181118090
0.181000000000000022,92.812824961257220480
0.182000000000000023,91.345709236322846891
0.183000000000000024,89.899210774465970530
0.184000000000000025,88.471201401464639957
0.185000000000000026,87.059390070952915153
0.186000000000000026,85.661455146339193334
0.187000000000000027,84.275156738249364707
0.188000000000000028,82.898427511373412813
0.189000000000000029,81.529441812582916782
0.190000000000000030,80.166664053857488170
0.191000000000000031,78.808878049676110322
0.192000000000000032,77.455199505355494694
0.193000000000000033,76.105074127583080212
0.194000000000000034,74.758263926298283764
0.195000000000000034,73.414824239403117190
0.196000000000000035,72.075073874903253568
0.197000000000000036,70.739560560038881931
0.198000000000000037,69.409023639501953085
0.199000000000000038,68.084355695690277344
0.200000000000000039,66.766564489313509512
0.201000000000000040,65.456736350728775164
0.202000000000000041,64.156001899917455944
0.203000000000000042,62.865504741933499133
0.204000000000000042,61.586373578534029605
0.205000000000000043,60.319697997289381419
0.206000000000000044,59.066508047063713605
0.207000000000000045,57.827757582611084786
0.208000000000000046,56.604311259632780207
0.209000000000000047,55.396934982974030959
0.210000000000000048,54.206289552381988983
0.211000000000000049,53.032927209940716295
0.212000000000000050,51.877290768452233749
0.213000000000000050,50.739714988236620741
0.214000000000000051,49.620429868786935401
0.215000000000000052,48.519565529333540610
0.216000000000000053,47.437158366740291626
0.217000000000000054,46.373158198578579459
0.218000000000000055,45.327436122230892579
0.219000000000000056,44.299792846199636642
0.220000000000000057,43.289967276369715421
0.221000000000000058,42.297645166928440119
0.222000000000000058,41.322467672258881066
0.223000000000000059,40.364039661850910079
0.224000000000000060,39.421937684682596625
0.225000000000000061,38.495717492311712249
0.226000000000000062,37.584921050871194836
0.227000000000000063,36.689082991158947777
0.228000000000000064,35.807736462995784166
0.229000000000000065,34.940418374992198380
0.230000000000000066,34.086674013864168842
0.231000000000000066,33.246061048542870253
0.232000000000000067,32.418152933642780056
0.233000000000000068,31.602541734504445259
0.234000000000000069,30.798840402149949114
0.235000000000000070,30.006684531217825196
0.236000000000000071,29.225733637426287714
0.237000000000000072,28.455671993485360360
0.238000000000000073,27.696209063782418980
0.239000000000000073,26.947079578731074179
0.240000000000000074,26.208043289520883690
0.241000000000000075,25.478884443257868497
0.242000000000000076,24.759411017241930608
0.243000000000000077,24.049453749488385768
0.244000000000000078,23.348865000652772039
0.245000000000000079,22.657517480337780569
0.246000000000000080,21.975302868419781532
0.247000000000000081,21.302130359585813579
0.248000000000000081,20.637925156776354640
0.249000000000000082,19.982626936725644384
0.250000000000000111,19.336188308317755258
0.251000000000000112,18.698573282064323564
0.252000000000000113,18.069755766681321774
0.253000000000000114,17.449718106521974192
0.254000000000000115,16.838449671518350925
0.255000000000000115,16.235945509314245072
0.256000000000000116,15.642205067437126687
0.257000000000000117,15.057230991666028075
0.258000000000000118,14.481028005204967357
0.259000000000000119,13.913601871866720927
0.260000000000000120,13.354958445208074735
0.261000000000000121,12.805102804431296448
0.262000000000000122,12.264038476870601002
0.263000000000000123,11.731766746013267522
0.264000000000000123,11.208286043253282926
0.265000000000000124,10.693591420936176206
0.266000000000000125,10.187674103717256457
0.267000000000000126,9.690521114816158743
0.268000000000000127,9.202114973397835129
0.269000000000000128,8.722433459039869774
0.270000000000000129,8.251449439046925960
0.271000000000000130,7.789130754240106924
0.272000000000000131,7.335440158774990671
0.273000000000000131,6.890335309518716755
0.274000000000000132,6.453768800539668504
0.275000000000000133,6.025688238324673485
0.276000000000000134,5.606036353434277864
0.277000000000000135,5.194751144431601020
0.278000000000000136,4.791766050067218785
0.279000000000000137,4.397010145870487996
0.280000000000000138,4.010408361480768846
0.281000000000000139,3.631881715245756315
0.282000000000000139,3.261347562818095014
0.283000000000000140,2.898719856689588426
0.284000000000000141,2.543909413814379405
0.285000000000000142,2.196824188684912027
0.286000000000000143,1.857369549435792688
0.287000000000000144,1.525448554759357922
0.288000000000000145,1.200962229620085697
0.289000000000000146,0.883809837954495969
0.290000000000000147,0.573889150733717157
0.291000000000000147,0.271096707951245797
0.292000000000000148,-0.024671926726407101
0.293000000000000149,-0.313521919740152533
0.294000000000000150,-0.595558930786050045
0.295000000000000151,-0.870888886116971350
0.296000000000000152,-1.139617762645308785
0.297000000000000153,-1.401851383363241332
0.298000000000000154,-1.657695224476509299
0.299000000000000155,-1.907254234535643134
0.300000000000000155,-2.150632665746299743
0.301000000000000156,-2.387933917546395168
0.302000000000000157,-2.619260392453024888
0.303000000000000158,-2.844713364104872078
0.304000000000000159,-3.064392857357360889
0.305000000000000160,-3.278397540226147377
0.306000000000000161,-3.486824627420715750
0.307000000000000162,-3.689769795162483490
0.308000000000000163,-3.887327106940916543
0.309000000000000163,-4.079588949826331579
0.310000000000000164,-4.266645980929053117
0.311000000000000165,-4.448587083570337164
0.312000000000000166,-4.625499332711713762
0.313000000000000167,-4.797467969174562086
0.314000000000000168,-4.964576382171332902
0.315000000000000169,-5.126906099663118610
0.316000000000000170,-5.284536786055107349
0.317000000000000171,-5.437546246740991407
0.318000000000000171,-5.586010439010259176
0.319000000000000172,-5.730003488837475345
0.320000000000000173,-5.869597713079724777
0.321000000000000174,-6.004863646617834227
0.322000000000000175,-6.135870073988201945
0.323000000000000176,-6.262684065064116012
0.324000000000000177,-6.385371014359726871
0.325000000000000178,-6.503994683544050304
0.326000000000000179,-6.618617246768808471
0.327000000000000179,-6.729299338429571620
0.328000000000000180,-6.836100102997145989
0.329000000000000181,-6.939077246573330804
0.330000000000000182,-7.038287089842611977
0.331000000000000183,-7.133784622109542006
0.332000000000000184,-7.225623556128875968
0.333000000000000185,-7.313856383453670951
0.334000000000000186,-7.398534430043947729
0.335000000000000187,-7.479707911895975947
0.336000000000000187,-7.557425990469416988
0.337000000000000188,-7.631736827705990933
0.338000000000000189,-7.702687640450060158
0.339000000000000190,-7.770324754097293507
0.340000000000000191,-7.834693655312650939
0.341000000000000192,-7.895839043674335755
0.342000000000000193,-7.953804882114313912
0.343000000000000194,-8.008634446040044708
0.344000000000000195,-8.060370371034789372
0.345000000000000195,-8.109054699047332448
0.346000000000000196,-8.154728922992914519
0.347000000000000197,-8.197434029699419256
0.348000000000000198,-8.237210541143243248
0.349000000000000199,-8.274098553929556843
0.350000000000000200,-8.308137776981372014
0.351000000000000201,-8.339367567410828741
0.352000000000000202,-8.367826964554385683
0.353000000000000203,-8.393554722161869819
0.354000000000000203,-8.416589338736420345
0.355000000000000204,-8.436969086029083797
0.356000000000000205,-8.454732035698423687
0.357000000000000206,-8.469916084151234870
0.358000000000000207,-8.482558975585346772
0.359000000000000208,-8.492698323260958304
0.360000000000000209,-8.500371629031022280
0.361000000000000210,-8.505616301165030535
0.362000000000000210,-8.508469670504483773
0.363000000000000211,-8.508969004991138618
0.364000000000000212,-8.507151522612188543
0.365000000000000213,-8.503054402808814416
0.366000000000000214,-8.496714796396688030
0.367000000000000215,-8.488169834048836293
0.368000000000000216,-8.477456633392831620
0.369000000000000217,-8.464612304775245732
0.370000000000000218,-8.449673955747666554
0.371000000000000218,-8.432678694328782143
0.372000000000000219,-8.413663631098005524
0.373000000000000220,-8.392665880176078730
0.374000000000000221,-8.369722559148268459
0.375000000000000222,-8.344870787985533056
0.376000000000000223,-8.318147687019070702
0.377000000000000224,-8.289590374022850483
0.378000000000000225,-8.259235960458383374
0.379000000000000226,-8.227121546935153518
0.380000000000000226,-8.193284217939572400
0.381000000000000227,-8.157761035883888567
0.382000000000000228,-8.120589034526080496
0.383000000000000229,-8.081805211810182854
0.384000000000000230,-8.041446522175419886
0.385000000000000231,-7.999549868381582662
0.386000000000000232,-7.956152092896255468
0.387000000000000233,-7.911289968888685742
0.388000000000000234,-7.865000190873179697
0.389000000000000234,-7.817319365044082424
0.390000000000000235,-7.768283999342296298
0.391000000000000236,-7.717930493292401550
0.392000000000000237,-7.666295127647527075
0.393000000000000238,-7.613414053877988863
0.394000000000000239,-7.559323283537814575
0.395000000000000240,-7.504058677542201572
0.396000000000000241,-7.447655935387200721
0.397000000000000242,-7.390150584341377282
0.398000000000000242,-7.331577968638107734
0.399000000000000243,-7.271973238695214725
0.400000000000000244,-7.211371340387596085
0.401000000000000245,-7.149807004397001897
0.402000000000000246,-7.087314735661541576
0.403000000000000247,-7.023928802946402428
0.404000000000000248,-6.959683228555763712
0.405000000000000249,-6.894611778204689401
0.406000000000000250,-6.828747951068348421
0.407000000000000250,-6.762124970024932402
0.408000000000000251,-6.694775772107133704
0.409000000000000252,-6.626732999176186745
0.410000000000000253,-6.558028988831047457
0.411000000000000254,-6.488695765564398421
0.412000000000000255,-6.418765032176031227
0.413000000000000256,-6.348268161453139768
0.414000000000000257,-6.277236188125952410
0.415000000000000258,-6.205699801106504765
0.416000000000000258,-6.133689336016989735
0.417000000000000259,-6.061234768013632923
0.418000000000000260,-5.988365704911006837
0.419000000000000261,-5.915111380610882819
0.420000000000000262,-5.841500648839045517
0.421000000000000263,-5.767561977192722011
0.422000000000000264,-5.693323441500507620
0.423000000000000265,-5.618812720496057622
0.424000000000000266,-5.544057090806343346
0.425000000000000266,-5.469083422254259474
0.426000000000000267,-5.393918173475291233
0.427000000000000268,-5.318587387847037995
0.428000000000000269,-5.243116689730058511
0.429000000000000270,-5.167531281018118428
0.430000000000000271,-5.091855937995097392
0.431000000000000272,-5.016115008495940941
0.432000000000000273,-4.940332409368143551
0.433000000000000274,-4.864531624230274076
0.434000000000000274,-4.788735701523362032
0.435000000000000275,-4.712967252851039568
0.436000000000000276,-4.637248451603730004
0.437000000000000277,-4.561601031861992617
0.438000000000000278,-4.486046287574014357
0.439000000000000279,-4.410605072001894555
0.440000000000000280,-4.335297797431122646
0.441000000000000281,-4.260144435137647179
0.442000000000000282,-4.185164515606642155
0.443000000000000282,-4.110377128996863583
0.444000000000000283,-4.035800925844624132
0.445000000000000284,-3.961454118001036306
0.446000000000000285,-3.887354479796103046
0.447000000000000286,-3.813519349423518889
0.448000000000000287,-3.739965630539331620
0.449000000000000288,-3.666709794068286676
0.450000000000000289,-3.593767880210998023
0.451000000000000290,-3.521155500645540393
0.452000000000000290,-3.448887840916815772
0.453000000000000291,-3.376979663007008803
0.454000000000000292,-3.305445308080680711
0.455000000000000293,-3.234298699397755605
0.456000000000000294,-3.163553345387989157
0.457000000000000295,-3.093222342880372011
0.458000000000000296,-3.023318380480906065
0.459000000000000297,-2.953853742092505730
0.460000000000000298,-2.884840310570491173
0.461000000000000298,-2.816289571507543332
0.462000000000000299,-2.748212617141805758
0.463000000000000300,-2.680620150381977318
0.464000000000000301,-2.613522488943426314
0.465000000000000302,-2.546929569589353015
0.466000000000000303,-2.480850952470975646
0.467000000000000304,-2.415295825561154963
0.468000000000000305,-2.350273009175690486
0.469000000000000306,-2.285790960576644437
0.470000000000000306,-2.221857778652419846
0.471000000000000307,-2.158481208668967533
0.472000000000000308,-2.095668647087129521
0.473000000000000309,-2.033427146440780486
0.474000000000000310,-1.971763420270911338
0.475000000000000311,-1.910683848110530603
0.476000000000000312,-1.850194480515956030
0.477000000000000313,-1.790301044139371855
0.478000000000000314,-1.731008946838465734
0.479000000000000314,-1.672323282818574786
0.480000000000000315,-1.614248837802977565
0.481000000000000316,-1.556790094227273213
0.482000000000000317,-1.499951236453649361
0.483000000000000318,-1.443736156001178994
0.484000000000000319,-1.388148456788238061
0.485000000000000320,-1.333191460383427174
0.486000000000000321,-1.278868211261302790
0.487000000000000322,-1.225181482059518601
0.488000000000000322,-1.172133778833904127
0.489000000000000323,-1.119727346308429405
0.490000000000000324,-1.067964173116710214
0.491000000000000325,-1.016845997032187254
0.492000000000000326,-0.966374310183954699
0.493000000000000327,-0.916550364255557581
0.494000000000000328,-0.867375175663985365
0.495000000000000329,-0.818849530716300400
0.496000000000000330,-0.770973990741431359
0.497000000000000330,-0.723748897194775309
0.498000000000000331,-0.677174376733242323
0.499000000000000332,-0.631250346258757977
0.500000000000000333,-0.585976517927955798
0.501000000000000334,-0.541352404126161479
0.502000000000000335,-0.497377322403815991
0.503000000000000336,-0.454050400373526564
0.504000000000000337,-0.411370580565986188
0.505000000000000338,-0.369336625243250893
0.506000000000000338,-0.327947121167782130
0.507000000000000339,-0.287200484325818128
0.508000000000000340,-0.247094964603717770
0.509000000000000341,-0.207628650416071425
0.510000000000000342,-0.168799473284249185
0.511000000000000343,-0.130605212364377055
0.512000000000000344,-0.093043498923615853
0.513000000000000345,-0.056111820763833101
0.514000000000000346,-0.019807526591722691
0.515000000000000346,0.015872169665461698
0.516000000000000347,0.050930184599347485
0.517000000000000348,0.085369561115647294
0.518000000000000349,0.119193464285984693
0.519000000000000350,0.152405177256692143
0.520000000000000351,0.185008097215272782
0.521000000000000352,0.217005731414887132
0.522000000000000353,0.248401693257322087
0.523000000000000353,0.279199698434827837
0.524000000000000354,0.309403561131014360
0.525000000000000355,0.339017190281210801
0.526000000000000356,0.368044585892389253
0.527000000000000357,0.396489835422797254
0.528000000000000358,0.424357110221587064
0.529000000000000359,0.451650662028222072
0.530000000000000360,0.478374819531998674
0.531000000000000361,0.504533984991432538
0.532000000000000361,0.530132630913636160
0.533000000000000362,0.555175296793443573
0.534000000000000363,0.579666585912323229
0.535000000000000364,0.603611162196788675
0.536000000000000365,0.627013747136212385
0.537000000000000366,0.649879116759756625
0.538000000000000367,0.672212098672258174
0.539000000000000368,0.694017569148658309
0.540000000000000369,0.715300450286856071
0.541000000000000369,0.736065707218457099
0.542000000000000370,0.756318345377227308
0.543000000000000371,0.776063407824802765
0.544000000000000372,0.795305972633227998
0.545000000000000373,0.814051150323966133
0.546000000000000374,0.832304081362918446
0.547000000000000375,0.850069933710979497
0.548000000000000376,0.867353900429643110
0.549000000000000377,0.884161197341200356
0.550000000000000377,0.900497060743021827
0.551000000000000378,0.916366745175331232
0.552000000000000379,0.931775521242035554
0.553000000000000380,0.946728673483960392
0.554000000000000381,0.961231498304020326
0.555000000000000382,0.975289301943657150
0.556000000000000383,0.988907398510059599
0.557000000000000384,1.002091108053468016
0.558000000000000385,1.014845754694061464
0.559000000000000385,1.027176664797728955
0.560000000000000386,1.039089165200175024
0.561000000000000387,1.050588581478685501
0.562000000000000388,1.061680236270961197
0.563000000000000389,1.072369447640347584
0.564000000000000390,1.082661527486850073
0.565000000000000391,1.092561780003271865
0.566000000000000392,1.102075500175850875
0.567000000000000393,1.111207972328691396
0.568000000000000393,1.119964468711408312
0.569000000000000394,1.128350248129269318
0.570000000000000395,1.136370554615221629
0.571000000000000396,1.144030616143124401
0.572000000000000397,1.151335643381493634
0.573000000000000398,1.158290828487222202
0.574000000000000399,1.164901343938433476
0.575000000000000400,1.171172341406016226
0.576000000000000401,1.177108950663023013
0.577000000000000401,1.182716278531344312
0.578000000000000402,1.187999407865024892
0.579000000000000403,1.192963396569568957
0.580000000000000404,1.197613276656515069
0.581000000000000405,1.201954053332754180
0.582000000000000406,1.205990704123861557
0.583000000000000407,1.209728178030833545
0.584000000000000408,1.213171394719624319
0.585000000000000409,1.216325243742814921
0.586000000000000409,1.219194583792795328
0.587000000000000410,1.221784241985876873
0.588000000000000411,1.224099013176676021
0.589000000000000412,1.226143659302173061
0.590000000000000413,1.227922908754867759
0.591000000000000414,1.229441455784397563
0.592000000000000415,1.230703959927029079
0.593000000000000416,1.231715045462465685
0.594000000000000417,1.232479300897358021
0.595000000000000417,1.233001278474925577
0.596000000000000418,1.233285493710193581
0.597000000000000419,1.233336424950177479
0.598000000000000420,1.233158512958550279
0.599000000000000421,1.232756160524178579
0.600000000000000422,1.232133732093007694
0.601000000000000423,1.231295553422766087
0.602000000000000424,1.230245911259929326
0.603000000000000425,1.228989053038437529
0.604000000000000425,1.227529186599648714
0.605000000000000426,1.225870479933023560
0.606000000000000427,1.224017060936966050
0.607000000000000428,1.221973017199496248
0.608000000000000429,1.219742395797980494
0.609000000000000430,1.217329203117791803
0.610000000000000431,1.214737404689069988
0.611000000000000432,1.211970925041357061
0.612000000000000433,1.209033647575575632
0.613000000000000433,1.205929414452804993
0.614000000000000434,1.202662026499547343
0.615000000000000435,1.199235243128953465
