# CNT15_BUTENE1-AC
# h[nm],U(h)[kJ/mol]
0.149999999999999994,88.480758648041302195
0.150999999999999995,86.312136318269850221
0.151999999999999996,85.055601494039606791
0.152999999999999997,84.005926585596540690
0.153999999999999998,82.895564366464029149
0.154999999999999999,81.667539630100350223
0.156000000000000000,80.350760426658638380
0.157000000000000001,78.996379871619907931
0.158000000000000002,77.649161537211142559
0.159000000000000002,76.337822913195523711
0.160000000000000003,75.074790245503990604
0.161000000000000004,73.859885782704012058
0.162000000000000005,72.684996512661001589
0.163000000000000006,71.538290072598130109
0.164000000000000007,70.407415619865489020
0.165000000000000008,69.281597974203265267
0.166000000000000009,68.152760945000224524
0.167000000000000010,67.015902359774202068
0.168000000000000010,65.868953016898601049
0.169000000000000011,64.712323807956749988
0.170000000000000012,63.548302669037319390
0.171000000000000013,62.380418644147958673
0.172000000000000014,61.212850638902011724
0.173000000000000015,60.049926065173146128
0.174000000000000016,58.895730020475241417
0.175000000000000017,57.753828270513039911
0.176000000000000018,56.627095967752083538
0.177000000000000018,55.517637464919708634
0.178000000000000019,54.426779555678379552
0.179000000000000020,53.355119940603550788
0.180000000000000021,52.302613814049834673
0.181000000000000022,51.268683527956774526
0.182000000000000023,50.252338816765977469
0.183000000000000024,49.252297714170133247
0.184000000000000025,48.267100825724256197
0.185000000000000026,47.295213900530406193
0.186000000000000026,46.335115596710906516
0.187000000000000027,45.385368933583784212
0.188000000000000028,44.444676175071933244
0.189000000000000029,43.511917821022692010
0.190000000000000030,42.586177034305300992
0.191000000000000031,41.666751245305832185
0.192000000000000032,40.753152895810771383
0.193000000000000033,39.845101352983718357
0.194000000000000034,38.942507978858593276
0.195000000000000034,38.045456214216670787
0.196000000000000035,37.154178355388765453
0.197000000000000036,36.269030490829003099
0.198000000000000037,35.390466838912267633
0.199000000000000038,34.519014502762601637
0.200000000000000039,33.655249441831038837
0.201000000000000040,32.799774260150712735
0.202000000000000041,31.953198231950967312
0.203000000000000042,31.116119828868608721
0.204000000000000042,30.289111880075189731
0.205000000000000043,29.472709386829546219
0.206000000000000044,28.667399925031400443
0.207000000000000045,27.873616501522452182
0.208000000000000046,27.091732680055553573
0.209000000000000047,26.322059758771466420
0.210000000000000048,25.564845760400096708
0.211000000000000049,24.820275987018842301
0.212000000000000050,24.088474890959716390
0.213000000000000050,23.369509020450120573
0.214000000000000051,22.663390811073192310
0.215000000000000052,21.970083010641918264
0.216000000000000053,21.289503544294998250
0.217000000000000054,20.621530647447855245
0.218000000000000055,19.966008115764669384
0.219000000000000056,19.322750542828700304
0.220000000000000057,18.691548437100568236
0.221000000000000058,18.072173129640468403
0.222000000000000058,17.464381402606171889
0.223000000000000059,16.867919785520037124
0.224000000000000060,16.282528481590997416
0.225000000000000061,15.707944899928211413
0.226000000000000062,15.143906781288469787
0.227000000000000063,14.590154915104415423
0.228000000000000064,14.046435454021025890
0.229000000000000065,13.512501839123959968
0.230000000000000066,12.988116354595808488
0.231000000000000066,12.473051334808840096
0.232000000000000067,11.967090049992677336
0.233000000000000068,11.470027298732501819
0.234000000000000069,10.981669736790891534
0.235000000000000070,10.501835972228665383
0.236000000000000071,10.030356456647261609
0.237000000000000072,9.567073201694721973
0.238000000000000073,9.111839348873639111
0.239000000000000073,8.664518619252444154
0.240000000000000074,8.224984667991055431
0.241000000000000075,7.793120366724859416
0.242000000000000076,7.368817034866010474
0.243000000000000077,6.951973638834148872
0.244000000000000078,6.542495976166246230
0.245000000000000079,6.140295859414110602
0.246000000000000080,5.745290312751704320
0.247000000000000081,5.357400792304968462
0.248000000000000081,4.976552439407041284
0.249000000000000082,4.602673374283807739
0.250000000000000111,4.235694036099277859
0.251000000000000112,3.875546573844963039
0.252000000000000113,3.522164291242753542
0.253000000000000114,3.175481147651630032
0.254000000000000115,2.835431315917658956
0.255000000000000115,2.501948797185875595
0.256000000000000116,2.174967091893055482
0.257000000000000117,1.854418925477743896
0.258000000000000118,1.540236026771515387
0.259000000000000119,1.232348956564330855
0.260000000000000120,0.930686983460363715
0.261000000000000121,0.635178003850990325
0.262000000000000122,0.345748502619195430
0.263000000000000123,0.062323551048403390
0.264000000000000123,-0.215173161670755453
0.265000000000000124,-0.486819266966136144
0.266000000000000125,-0.752693629049004165
0.267000000000000126,-1.012876234259762809
0.268000000000000127,-1.267448061036565266
0.269000000000000128,-1.516490933819450992
0.270000000000000129,-1.760087364050123337
0.271000000000000130,-1.998320381256317946
0.272000000000000131,-2.231273357023379145
0.273000000000000131,-2.459029824460004843
0.274000000000000132,-2.681673295561838977
0.275000000000000133,-2.899287078670381934
0.276000000000000134,-3.111954098017377213
0.277000000000000135,-3.319756717138688806
0.278000000000000136,-3.522776567740147247
0.279000000000000137,-3.721094385400797844
0.280000000000000138,-3.914789853308922485
0.281000000000000139,-4.103941455044695985
0.282000000000000139,-4.288626337249922038
0.283000000000000140,-4.468920182862236246
0.284000000000000141,-4.644897095437778844
0.285000000000000142,-4.816629494943788004
0.286000000000000143,-4.984188025270528399
0.287000000000000144,-5.147641473590600647
0.288000000000000145,-5.307056701583528380
0.289000000000000146,-5.462498588442890934
0.290000000000000147,-5.614029985494203068
0.291000000000000147,-5.761711682171375415
0.292000000000000148,-5.905602383030049474
0.293000000000000149,-6.045758695414460426
0.294000000000000150,-6.182235127342770475
0.295000000000000151,-6.315084095131510367
0.296000000000000152,-6.444355940243551295
0.297000000000000153,-6.570098954815010828
0.298000000000000154,-6.692359415294191649
0.299000000000000155,-6.811181623609511959
0.300000000000000155,-6.926607955272980455
0.301000000000000156,-7.038678913820492156
0.302000000000000157,-7.147433190989919360
0.303000000000000158,-7.252907732041447453
0.304000000000000159,-7.355137805632407044
0.305000000000000160,-7.454157077669525400
0.306000000000000161,-7.549997688575589727
0.307000000000000162,-7.642690333423864502
0.308000000000000163,-7.732264344412115520
0.309000000000000163,-7.818747775168785275
0.310000000000000164,-7.902167486405756058
0.311000000000000165,-7.982549232455404820
0.312000000000000166,-8.059917748253951686
0.313000000000000167,-8.134296836358018368
0.314000000000000168,-8.205709453606706560
0.315000000000000169,-8.274177797067252982
0.316000000000000170,-8.339723388928209857
0.317000000000000171,-8.402367160029633908
0.318000000000000171,-8.462129531745294031
0.319000000000000172,-8.519030495957228055
0.320000000000000173,-8.573089692887268853
0.321000000000000174,-8.624326486574378947
0.322000000000000175,-8.672760037810013145
0.323000000000000176,-8.718409374366141051
0.324000000000000177,-8.761293458372566789
0.325000000000000178,-8.801431250720760602
0.326000000000000179,-8.838841772391791807
0.327000000000000179,-8.873544162624614984
0.328000000000000180,-8.905557733859250646
0.329000000000000181,-8.934902023406479543
0.330000000000000182,-8.961596841811552139
0.331000000000000183,-8.985662317894918871
0.332000000000000184,-9.007118940466604329
0.333000000000000185,-9.025987596724419859
0.334000000000000186,-9.042289607358148018
0.335000000000000187,-9.056046758393089036
0.336000000000000187,-9.067281329816839985
0.337000000000000188,-9.076016121042282947
0.338000000000000189,-9.082274473268631354
0.339000000000000190,-9.086080288809920802
0.340000000000000191,-9.087458047467169564
0.341000000000000192,-9.086432820026804080
0.342000000000000193,-9.083030278972973548
0.343000000000000194,-9.077276706506513193
0.344000000000000195,-9.069198999966705088
0.345000000000000195,-9.058824674756102979
0.346000000000000196,-9.046181864870725065
0.347000000000000197,-9.031299321140609848
0.348000000000000198,-9.014206407287208123
0.349000000000000199,-8.994933093905187249
0.350000000000000200,-8.973509950477161823
0.351000000000000201,-8.949968135529779545
0.352000000000000202,-8.924339385039781192
0.353000000000000203,-8.896655999197999876
0.354000000000000203,-8.866950827638422794
0.355000000000000204,-8.835257253238250286
0.356000000000000205,-8.801609174593554741
0.357000000000000206,-8.766040987273445495
0.358000000000000207,-8.728587563953443151
0.359000000000000208,-8.689284233527079238
0.360000000000000209,-8.648166759292056582
0.361000000000000210,-8.605271316304953899
0.362000000000000210,-8.560634467995878794
0.363000000000000211,-8.514293142131588610
0.364000000000000212,-8.466284606212987285
0.365000000000000213,-8.416646442389657423
0.366000000000000214,-8.365416521971386743
0.367000000000000215,-8.312632979613351125
0.368000000000000216,-8.258334187248722813
0.369000000000000217,-8.202558727839175390
0.370000000000000218,-8.145345369010771108
0.371000000000000218,-8.086733036639378369
0.372000000000000219,-8.026760788446914319
0.373000000000000220,-7.965467787666311139
0.374000000000000221,-7.902893276830225133
0.375000000000000222,-7.839076551735288945
0.376000000000000223,-7.774056935630833109
0.377000000000000224,-7.707873753678001094
0.378000000000000225,-7.640566307722141737
0.379000000000000226,-7.572173851418684265
0.380000000000000226,-7.502735565749910407
0.381000000000000227,-7.432290534967023632
0.382000000000000228,-7.360877722989778604
0.383000000000000229,-7.288535950292832410
0.384000000000000230,-7.215303871305752459
0.385000000000000231,-7.141219952351292477
0.386000000000000232,-7.066322450143860401
0.387000000000000233,-6.990649390868194146
0.388000000000000234,-6.914238549855785898
0.389000000000000234,-6.837127431874838734
0.390000000000000235,-6.759353252047114680
0.391000000000000236,-6.680952917403478075
0.392000000000000237,-6.601963009087816303
0.393000000000000238,-6.522419765217501997
0.394000000000000239,-6.442359064406559810
0.395000000000000240,-6.361816409956461804
0.396000000000000241,-6.280826914717691167
0.397000000000000242,-6.199425286623781339
0.398000000000000242,-6.117645814898414969
0.399000000000000243,-6.035522356934537314
0.400000000000000244,-5.953088325843417294
0.401000000000000245,-5.870376678670501391
0.402000000000000246,-5.787419905273623932
0.403000000000000247,-5.704250017858268684
0.404000000000000248,-5.620898541163667161
0.405000000000000249,-5.537396503292521643
0.406000000000000250,-5.453774427176420581
0.407000000000000250,-5.370062322668252008
0.408000000000000251,-5.286289679252131890
0.409000000000000252,-5.202485459360930875
0.410000000000000253,-5.118678092290646298
0.411000000000000254,-5.034895468700542054
0.412000000000000255,-4.951164935687389246
0.413000000000000256,-4.867513292421781657
0.414000000000000257,-4.783966786333963661
0.415000000000000258,-4.700551109836546004
0.416000000000000258,-4.617291397570854272
0.417000000000000259,-4.534212224163669980
0.418000000000000260,-4.451337602480754718
0.419000000000000261,-4.368690982363384379
0.420000000000000262,-4.286295249834049415
0.421000000000000263,-4.204172726757251510
0.422000000000000264,-4.122345170941358106
0.423000000000000265,-4.040833776667243527
0.424000000000000266,-3.959659175629737238
0.425000000000000266,-3.878841438277475184
0.426000000000000267,-3.798400075537186726
0.427000000000000268,-3.718354040908170788
0.428000000000000269,-3.638721732913005269
0.429000000000000270,-3.559520997890567973
0.430000000000000271,-3.480769133117389114
0.431000000000000272,-3.402482890243800462
0.432000000000000273,-3.324678479031171641
0.433000000000000274,-3.247371571376937105
0.434000000000000274,-3.170577305614027175
0.435000000000000275,-3.094310291071804997
0.436000000000000276,-3.018584612885567342
0.437000000000000277,-2.943413837041905179
0.438000000000000278,-2.868811015647602325
0.439000000000000279,-2.794788692409796216
0.440000000000000280,-2.721358908315381964
0.441000000000000281,-2.648533207497990372
0.442000000000000282,-2.576322643281030000
0.443000000000000282,-2.504737784385483224
0.444000000000000283,-2.433788721291561430
0.445000000000000284,-2.363485072743451543
0.446000000000000285,-2.293835992386582312
0.447000000000000286,-2.224850175527464113
0.448000000000000287,-2.156535866005836688
0.449000000000000288,-2.088900863169771860
0.450000000000000289,-2.021952528944075844
0.451000000000000290,-1.955697794983036975
0.452000000000000290,-1.890143169898581332
0.453000000000000291,-1.825294746555238934
0.454000000000000292,-1.761158209423657528
0.455000000000000293,-1.697738841984512748
0.456000000000000294,-1.635041534175124767
0.457000000000000295,-1.573070789871183761
0.458000000000000296,-1.511830734396323095
0.459000000000000297,-1.451325122052574912
0.460000000000000298,-1.391557343664865387
0.461000000000000298,-1.332530434133149644
0.462000000000000299,-1.274247079985850295
0.463000000000000300,-1.216709626928591970
0.464000000000000301,-1.159920087382511511
0.465000000000000302,-1.103880148006596729
0.466000000000000303,-1.048591177198676894
0.467000000000000304,-0.994054232570084628
0.468000000000000305,-0.940270068389131075
0.469000000000000306,-0.887239142988676122
0.470000000000000306,-0.834961626133539192
0.471000000000000307,-0.783437406343360676
0.472000000000000308,-0.732666098167107149
0.473000000000000309,-0.682647049405260886
0.474000000000000310,-0.633379348276245202
0.475000000000000311,-0.584861830523507598
0.476000000000000312,-0.537093086460314728
0.477000000000000313,-0.490071467948873907
0.478000000000000314,-0.443795095311222965
0.479000000000000314,-0.398261864169080881
0.480000000000000315,-0.353469452210110391
0.481000000000000316,-0.309415325878350966
0.482000000000000317,-0.266096746986512145
0.483000000000000318,-0.223510779248191932
0.484000000000000319,-0.181654294728032600
0.485000000000000320,-0.140523980208192872
0.486000000000000321,-0.100116343469403971
0.487000000000000322,-0.060427719485245016
0.488000000000000322,-0.021454276528205675
0.489000000000000323,0.016807977813543061
0.490000000000000324,0.054363190709897410
0.491000000000000325,0.091215658253944398
0.492000000000000326,0.127369819719412442
0.493000000000000327,0.162830251911093488
0.494000000000000328,0.197601663608946043
0.495000000000000329,0.231688890106399731
0.496000000000000330,0.265096887843273454
0.497000000000000330,0.297830729133692074
0.498000000000000331,0.329895596989241202
0.499000000000000332,0.361296780037483667
0.500000000000000333,0.392039667536001113
0.501000000000000334,0.422129744481917146
0.502000000000000335,0.451572586816837429
0.503000000000000336,0.480373856727048021
0.504000000000000337,0.508539298038818477
0.505000000000000338,0.536074731708456653
0.506000000000000338,0.562986051406805244
0.507000000000000339,0.589279219197813342
0.508000000000000340,0.614960261310665057
0.509000000000000341,0.640035264004974125
0.510000000000000342,0.664510369528496070
0.511000000000000343,0.688391772166734639
0.512000000000000344,0.711685714383780588
0.513000000000000345,0.734398483053678497
0.514000000000000346,0.756536405781584209
0.515000000000000346,0.778105847313933174
0.516000000000000347,0.799113206036816459
0.517000000000000348,0.819564910561637605
0.518000000000000349,0.839467416397309152
0.519000000000000350,0.858827202707930448
0.520000000000000351,0.877650769155090771
0.521000000000000352,0.895944632823816534
0.522000000000000353,0.913715325231145181
0.523000000000000353,0.930969389416379078
0.524000000000000354,0.947713377111898958
0.525000000000000355,0.963953845993573255
0.526000000000000356,0.979697357009654324
0.527000000000000357,0.994950471787050872
0.528000000000000358,1.009719750113999837
0.529000000000000359,1.024011747497861169
0.530000000000000360,1.037833012797078958
0.531000000000000361,1.051190085926072992
0.532000000000000361,1.064089495632012161
0.533000000000000362,1.076537757342231227
0.534000000000000363,1.088541371081252596
0.535000000000000364,1.100106819456191820
0.536000000000000365,1.111240565709414208
0.537000000000000366,1.121949051837292988
0.538000000000000367,1.132238696773920861
0.539000000000000368,1.142115894638580986
0.540000000000000369,1.151587013045887842
0.541000000000000369,1.160658391477375373
0.542000000000000370,1.169336339713421324
0.543000000000000371,1.177627136324375767
0.544000000000000372,1.185537027219690120
0.545000000000000373,1.193072224253968638
0.546000000000000374,1.200238903888791953
0.547000000000000375,1.207043205909170469
0.548000000000000376,1.213491232193507185
0.549000000000000377,1.219589045535983463
0.550000000000000377,1.225342668520259304
0.551000000000000378,1.230758082443335955
0.552000000000000379,1.235841226288590278
0.553000000000000380,1.240597995746801185
0.554000000000000381,1.245034242284182247
0.555000000000000382,1.249155772256302477
0.556000000000000383,1.252968346066887673
0.557000000000000384,1.256477677370436030
0.558000000000000385,1.259689432317645963
0.559000000000000385,1.262609228842609621
0.560000000000000386,1.265242635990818876
0.561000000000000387,1.267595173286933719
0.562000000000000388,1.269672310141375382
0.563000000000000389,1.271479465294768074
0.564000000000000390,1.273022006299261211
0.565000000000000391,1.274305249035804888
0.566000000000000392,1.275334457266459776
0.567000000000000393,1.276114842220784640
0.568000000000000393,1.276651562215455504
0.569000000000000394,1.276949722306170987
0.570000000000000395,1.277014373971025574
0.571000000000000396,1.276850514824435567
0.572000000000000397,1.276463088360781484
0.573000000000000398,1.275856983726986194
0.574000000000000399,1.275037035523095996
0.575000000000000400,1.274008023630182063
0.576000000000000401,1.272774673064667406
0.577000000000000401,1.271341653858350185
0.578000000000000402,1.269713580963328869
0.579000000000000403,1.267895014181116498
0.580000000000000404,1.265890458115139339
0.581000000000000405,1.263704362145941840
0.582000000000000406,1.261341120428378648
0.583000000000000407,1.258805071910048312
0.584000000000000408,1.256100500370354256
0.585000000000000409,1.253231634479458734
0.586000000000000409,1.250202647876475615
0.587000000000000410,1.247017659266294043
0.588000000000000411,1.243680732534344191
0.589000000000000412,1.240195876878716907
0.590000000000000413,1.236567046959017091
0.591000000000000414,1.232798143061348606
0.592000000000000415,1.228893011278856084
0.593000000000000416,1.224855443707235647
0.594000000000000417,1.220689178654668972
0.595000000000000417,1.216397900865622272
0.596000000000000418,1.211985241757977949
0.597000000000000419,1.207454779672977319
0.598000000000000420,1.202810040137446634
0.599000000000000421,1.198054496137831659
0.600000000000000422,1.193191568405518543
0.601000000000000423,1.188224625712988702
0.602000000000000424,1.183156985180330301
0.603000000000000425,1.177991912591639601
0.604000000000000425,1.172732622720885187
0.605000000000000426,1.167382279666800304
0.606000000000000427,1.161943997196330347
0.607000000000000428,1.156420839096329534
0.608000000000000429,1.150815819532940987
0.609000000000000430,1.145131903418466379
0.610000000000000431,1.139372006785137614
0.611000000000000432,1.133538997165567608
0.612000000000000433,1.127635693979464060
0.613000000000000433,1.121664868926206093
0.614000000000000434,1.115629246383023965
0.615000000000000435,1.109531503808387276
0.616000000000000436,1.103374272150278390
