# CNT15_PRO-JS
# h[nm],U(h)[kJ/mol]
0.200000000000000011,99.647538588190485598
0.201000000000000012,98.874852002182251454
0.202000000000000013,97.335524205872474113
0.203000000000000014,95.486909310570126763
0.204000000000000015,93.577170950363921520
0.205000000000000016,91.724805915156125025
0.206000000000000016,89.971940913647756588
0.207000000000000017,88.319149103745886009
0.208000000000000018,86.747433070317043757
0.209000000000000019,85.231453482751874162
0.210000000000000020,83.746919494183700294
0.211000000000000021,82.274199493746394296
0.212000000000000022,80.799583549406492011
0.213000000000000023,79.315174050452853294
0.214000000000000024,77.818054703019896579
0.215000000000000024,76.309156779620721522
0.216000000000000025,74.792080156136023561
0.217000000000000026,73.272016217228639334
0.218000000000000027,71.754845979318787386
0.219000000000000028,70.246439211753610721
0.220000000000000029,68.752151133765380564
0.221000000000000030,67.276496713932345983
0.222000000000000031,65.822974553872782622
0.223000000000000032,64.394009823995617126
0.224000000000000032,62.990986631596982193
0.225000000000000033,61.614343077214059008
0.226000000000000034,60.263706099513420611
0.227000000000000035,58.938047366739397148
0.228000000000000036,57.635845530595723574
0.229000000000000037,56.355243873255723486
0.230000000000000038,55.094195624049440596
0.231000000000000039,53.850591951866860541
0.232000000000000040,52.622369855749980161
0.233000000000000040,51.407598913714295463
0.234000000000000041,50.204547159772218379
0.235000000000000042,49.011727300252474038
0.236000000000000043,47.827925112977226263
0.237000000000000044,46.652212254215683629
0.238000000000000045,45.483945881176893522
0.239000000000000046,44.322757528614104672
0.240000000000000047,43.168533596806319963
0.241000000000000048,42.021389648237850167
0.242000000000000048,40.881640499106119080
0.243000000000000049,39.749767851268813956
0.244000000000000050,38.626386957479098783
0.245000000000000051,37.512213560667959200
0.246000000000000052,36.408032106058172417
0.247000000000000053,35.314665999562052434
0.248000000000000054,34.232950481437214307
0.249000000000000055,33.163708502894088781
0.250000000000000056,32.107729836183793282
0.251000000000000056,31.065753515471726587
0.252000000000000057,30.038453595570040022
0.253000000000000058,29.026428126855904566
0.254000000000000059,28.030191175590069008
0.255000000000000060,27.050167667320415887
0.256000000000000061,26.086690794976277630
0.257000000000000062,25.140001710511530320
0.258000000000000063,24.210251207492465397
0.259000000000000064,23.297503099926426984
0.260000000000000064,22.401739008117260710
0.261000000000000065,21.522864273812054137
0.262000000000000066,20.660714742938839805
0.263000000000000067,19.815064173583657237
0.264000000000000068,18.985632048433298991
0.265000000000000069,18.172091593804672982
0.266000000000000070,17.374077830829911306
0.267000000000000071,16.591195507739104897
0.268000000000000071,15.823026784983213133
0.269000000000000072,15.069138566773935040
0.270000000000000073,14.329089393194323065
0.271000000000000074,13.602435826142869502
0.272000000000000075,12.888738279875974868
0.273000000000000076,12.187566262732213218
0.274000000000000077,11.498503010726627949
0.275000000000000078,10.821149506107278881
0.276000000000000079,10.155127884713831321
0.277000000000000079,9.500084245135671068
0.278000000000000080,8.855690880327310666
0.279000000000000081,8.221647958596340899
0.280000000000000082,7.597684685849597663
0.281000000000000083,6.983559984775851603
0.282000000000000084,6.379062729378684793
0.283000000000000085,5.784011575063791710
0.284000000000000086,5.198254425443455951
0.285000000000000087,4.621667577258566695
0.286000000000000087,4.054154584433236508
0.287000000000000088,3.495644881368806800
0.288000000000000089,2.946092204240361667
0.289000000000000090,2.405472847361084465
0.290000000000000091,1.873783789704965841
0.291000000000000092,1.351040724489475320
0.292000000000000093,0.837276022381153617
0.293000000000000094,0.332536656448398138
0.294000000000000095,-0.163117885504930893
0.295000000000000095,-0.649617678095822271
0.296000000000000096,-1.126884404360136926
0.297000000000000097,-1.594833352376570534
0.298000000000000098,-2.053375346657562606
0.299000000000000099,-2.502418600712577490
0.300000000000000100,-2.941870479343453582
0.301000000000000101,-3.371639161266879459
0.302000000000000102,-3.791635194563264921
0.303000000000000103,-4.201772939223780590
0.304000000000000103,-4.601971892698993649
0.305000000000000104,-4.992157895848008842
0.306000000000000105,-5.372264218043267370
0.307000000000000106,-5.742232521406948287
0.308000000000000107,-6.102013705244351272
0.309000000000000108,-6.451568632700630523
0.310000000000000109,-6.790868742508007649
0.311000000000000110,-7.119896549413060605
0.312000000000000111,-7.438646037490149077
0.313000000000000111,-7.747122951057822782
0.314000000000000112,-8.045344988332987057
0.315000000000000113,-8.333341903286111574
0.316000000000000114,-8.611155521408871749
0.317000000000000115,-8.878839675279103005
0.318000000000000116,-9.136460065915267492
0.319000000000000117,-9.384094055958751568
0.320000000000000118,-9.621830400714795672
0.321000000000000119,-9.849768923028035417
0.322000000000000119,-10.068020137870904662
0.323000000000000120,-10.276704832389610189
0.324000000000000121,-10.475953606987829403
0.325000000000000122,-10.665906382836485733
0.326000000000000123,-10.846711880984837961
0.327000000000000124,-11.018527078016798981
0.328000000000000125,-11.181516642951546459
0.329000000000000126,-11.335852359831108060
0.330000000000000127,-11.481712540174822124
0.331000000000000127,-11.619281429212431789
0.332000000000000128,-11.748748609537470244
0.333000000000000129,-11.870308405553167574
0.334000000000000130,-11.984159291814663106
0.335000000000000131,-12.090503308108475622
0.336000000000000132,-12.189545483850690033
0.337000000000000133,-12.281493274134348326
0.338000000000000134,-12.366556009512450487
0.339000000000000135,-12.444944361367124230
0.340000000000000135,-12.516869824490658658
0.341000000000000136,-12.582544218287386784
0.342000000000000137,-12.642179207800641194
0.343000000000000138,-12.695985845574039530
0.344000000000000139,-12.744174135173166107
0.345000000000000140,-12.786952617020943990
0.346000000000000141,-12.824527977038815862
0.347000000000000142,-12.857104678435373302
0.348000000000000143,-12.884884616844917815
0.349000000000000143,-12.908066798889496596
0.350000000000000144,-12.926847044120014729
0.351000000000000145,-12.941417710183738876
0.352000000000000146,-12.951967440967624867
0.353000000000000147,-12.958680937377973663
0.354000000000000148,-12.961738750337644888
0.355000000000000149,-12.961317095511024178
0.356000000000000150,-12.957587689204554948
0.357000000000000151,-12.950717604836057717
0.358000000000000151,-12.940869149318753983
0.359000000000000152,-12.928199758665879671
0.360000000000000153,-12.912861912088445138
0.361000000000000154,-12.895003063830921874
0.362000000000000155,-12.874765591968525769
0.363000000000000156,-12.852286763373300005
0.364000000000000157,-12.827698714044851513
0.365000000000000158,-12.801128443995406059
0.366000000000000159,-12.772697825875601652
0.367000000000000159,-12.742523626529504099
0.368000000000000160,-12.710717540671726766
0.369000000000000161,-12.677386235887668775
0.370000000000000162,-12.642631408168643503
0.371000000000000163,-12.606549847207315196
0.372000000000000164,-12.569233510693900158
0.373000000000000165,-12.530769606871928090
0.374000000000000166,-12.491240684631119251
0.375000000000000167,-12.450724730435936749
0.376000000000000167,-12.409295271410666572
0.377000000000000168,-12.367021483924728997
0.378000000000000169,-12.323968307046056836
0.379000000000000170,-12.280196560255253857
0.380000000000000171,-12.235763064838092617
0.381000000000000172,-12.190720768399954110
0.382000000000000173,-12.145118871971096297
0.383000000000000174,-12.099002959198150720
0.384000000000000175,-12.052415127142529272
0.385000000000000175,-12.005394118232539213
0.386000000000000176,-11.957975452941560945
0.387000000000000177,-11.910191562789412600
0.388000000000000178,-11.862071923289573050
0.389000000000000179,-11.813643186488496539
0.390000000000000180,-11.764929312767769432
0.391000000000000181,-11.715951701602712376
0.392000000000000182,-11.666729320993898256
0.393000000000000183,-11.617278835309953422
0.394000000000000183,-11.567614731301464559
0.395000000000000184,-11.517749442066213206
0.396000000000000185,-11.467693468766100295
0.397000000000000186,-11.417455499914982653
0.398000000000000187,-11.367042528075222307
0.399000000000000188,-11.316459963818234158
0.400000000000000189,-11.265711746821107653
0.401000000000000190,-11.214800453987576745
0.402000000000000191,-11.163727404496741613
0.403000000000000191,-11.112492761697527754
0.404000000000000192,-11.061095631780691662
0.405000000000000193,-11.009534159172989831
0.406000000000000194,-10.957805618610711562
0.407000000000000195,-10.905906503861134027
0.408000000000000196,-10.853832613071302760
0.409000000000000197,-10.801579130733866663
0.410000000000000198,-10.749140706269193046
0.411000000000000199,-10.696511529231571558
0.412000000000000199,-10.643685401156016468
0.413000000000000200,-10.590655804069392332
0.414000000000000201,-10.537415965696890652
0.415000000000000202,-10.483958921401139719
0.416000000000000203,-10.430277572897484362
0.417000000000000204,-10.376364743793969225
0.418000000000000205,-10.322213232009840311
0.419000000000000206,-10.267815859130644540
0.420000000000000207,-10.213165516761877782
0.421000000000000207,-10.158255209947091302
0.422000000000000208,-10.103078097718810824
0.423000000000000209,-10.047627530854132516
0.424000000000000210,-9.991897086908691605
0.425000000000000211,-9.935880602604816758
0.426000000000000212,-9.879572203651644458
0.427000000000000213,-9.822966332075852236
0.428000000000000214,-9.766057771143325184
0.429000000000000214,-9.708841667952313514
0.430000000000000215,-9.651313553779548471
0.431000000000000216,-9.593469362261030753
0.432000000000000217,-9.535305445489139942
0.433000000000000218,-9.476818588107658314
0.434000000000000219,-9.418006019486057312
0.435000000000000220,-9.358865424053810500
0.436000000000000221,-9.299394949874811189
0.437000000000000222,-9.239593215541109572
0.438000000000000222,-9.179459315464487901
0.439000000000000223,-9.118992823642876999
0.440000000000000224,-9.058193795977866003
0.441000000000000225,-8.997062771217787969
0.442000000000000226,-8.935600770600043319
0.443000000000000227,-8.873809296264134616
0.444000000000000228,-8.811690328506083247
0.445000000000000229,-8.749246321942635518
0.446000000000000230,-8.686480200652384909
0.447000000000000230,-8.623395352359118249
0.448000000000000231,-8.559995621720915437
0.449000000000000232,-8.496285302786604987
0.450000000000000233,-8.432269130679763691
0.451000000000000234,-8.367952272568050631
0.452000000000000235,-8.303340317974351237
0.453000000000000236,-8.238439268483872979
0.454000000000000237,-8.173255526899943391
0.455000000000000238,-8.107795885898903876
0.456000000000000238,-8.042067516233093016
0.457000000000000239,-7.976077954528676628
0.458000000000000240,-7.909835090723611017
0.459000000000000241,-7.843347155188778785
0.460000000000000242,-7.776622705574081529
0.461000000000000243,-7.709670613418869500
0.462000000000000244,-7.642500050565045555
0.463000000000000245,-7.575120475408600562
0.464000000000000246,-7.507541619024635793
0.465000000000000246,-7.439773471198361854
0.466000000000000247,-7.371826266393510352
0.467000000000000248,-7.303710469687770157
0.468000000000000249,-7.235436762703362668
0.469000000000000250,-7.167016029559322376
0.470000000000000251,-7.098459342870586219
0.471000000000000252,-7.029777949817467508
0.472000000000000253,-6.960983258307969379
0.473000000000000254,-6.892086823253514183
0.474000000000000254,-6.823100332977920068
0.475000000000000255,-6.754035595777700962
0.476000000000000256,-6.684904526650811363
0.477000000000000257,-6.615719134209633978
0.478000000000000258,-6.546491507792812747
0.479000000000000259,-6.477233804789529259
0.480000000000000260,-6.407958238188660616
0.481000000000000261,-6.338677064364102165
0.482000000000000262,-6.269402571106822641
0.483000000000000262,-6.200147065912967825
0.484000000000000263,-6.130922864536492156
0.485000000000000264,-6.061742279814020584
0.486000000000000265,-5.992617610768631309
0.487000000000000266,-5.923561131998456020
0.488000000000000267,-5.854585083355336117
0.489000000000000268,-5.785701659917911854
0.490000000000000269,-5.716923002262779718
0.491000000000000270,-5.648261187036877295
0.492000000000000270,-5.579728217833261894
0.493000000000000271,-5.511336016372261781
0.494000000000000272,-5.443096413989044535
0.495000000000000273,-5.375021143428178050
0.496000000000000274,-5.307121830945507490
0.497000000000000275,-5.239409988716689170
0.498000000000000276,-5.171897007551710779
0.499000000000000277,-5.104594149914068346
0.500000000000000222,-5.037512543242796070
0.501000000000000334,-4.970663173575397664
0.502000000000000224,-4.904056879469171903
0.503000000000000336,-4.837704346218020923
0.504000000000000226,-4.771616100361931956
0.505000000000000338,-4.705802504485285809
0.506000000000000227,-4.640273752300876353
0.507000000000000339,-4.575039864015124635
0.508000000000000229,-4.510110681970884272
0.509000000000000341,-4.445495866562949594
0.510000000000000231,-4.381204892422287500
0.511000000000000343,-4.317247044863611549
0.512000000000000233,-4.253631416591994174
0.513000000000000345,-4.190366904662976566
0.514000000000000234,-4.127462207691517726
0.515000000000000346,-4.064925823303893182
0.516000000000000236,-4.002766045827796937
0.517000000000000348,-3.940990964214624803
0.518000000000000238,-3.879608460188861407
0.519000000000000350,-3.818626206618532137
0.520000000000000240,-3.758051666101448696
0.521000000000000352,-3.697892089761311674
0.522000000000000242,-3.638154516248067072
0.523000000000000353,-3.578845770936684545
0.524000000000000243,-3.519972465318724097
0.525000000000000355,-3.461540996580819929
0.526000000000000245,-3.403557547364498337
0.527000000000000357,-3.346028085701351351
0.528000000000000247,-3.288958365118210825
0.529000000000000359,-3.232353924906268272
0.530000000000000249,-3.176220090548864228
0.531000000000000361,-3.120561974302031416
0.532000000000000250,-3.065384475922553698
0.533000000000000362,-3.010692283537739655
0.534000000000000252,-2.956489874651758054
0.535000000000000364,-2.902781517282924995
0.536000000000000254,-2.849571271226897906
0.537000000000000366,-2.796862989440173308
0.538000000000000256,-2.744660319539218740
0.539000000000000368,-2.692966705409612693
0.540000000000000258,-2.641785388920744104
0.541000000000000369,-2.591119411740595790
0.542000000000000259,-2.540971617246320147
0.543000000000000371,-2.491344652525401493
0.544000000000000261,-2.442240970463075200
0.545000000000000373,-2.393662831911238076
0.546000000000000263,-2.345612307934563656
0.547000000000000375,-2.298091282129131940
0.548000000000000265,-2.251101453009795694
0.549000000000000377,-2.204644336461490717
0.550000000000000266,-2.158721268250957337
0.551000000000000378,-2.113333406594468222
0.552000000000000268,-2.068481734777930292
0.553000000000000380,-2.024167063825390134
0.554000000000000270,-1.980390035212424182
0.555000000000000382,-1.937151123620544535
0.556000000000000272,-1.894450639729484909
0.557000000000000384,-1.852288733043523594
0.558000000000000274,-1.810665394748983914
0.559000000000000385,-1.769580460599270211
0.560000000000000275,-1.729033613824698445
0.561000000000000387,-1.689024388063793847
0.562000000000000277,-1.649552170313322907
0.563000000000000389,-1.610616203894114307
0.564000000000000279,-1.572215591429999559
0.565000000000000391,-1.534349297837134918
0.566000000000000281,-1.497016153321224508
0.567000000000000393,-1.460214856380067427
0.568000000000000282,-1.423943976809214140
0.569000000000000394,-1.388201958708147998
0.570000000000000284,-1.352987123485119181
0.571000000000000396,-1.318297672858161018
0.572000000000000286,-1.284131691850548984
0.573000000000000398,-1.250487151778415740
0.574000000000000288,-1.217361913228919068
0.575000000000000400,-1.184753729026957858
0.576000000000000290,-1.152660247188787457
0.577000000000000401,-1.121079013860814655
0.578000000000000291,-1.090007476242063067
0.579000000000000403,-1.059442985488676880
0.580000000000000293,-1.029382799599166232
0.581000000000000405,-0.999824086278818691
0.582000000000000295,-0.970763925782209269
0.583000000000000407,-0.942199313732305699
0.584000000000000297,-0.914127163915204322
0.585000000000000409,-0.886544311049221934
0.586000000000000298,-0.859447513527411777
0.587000000000000410,-0.832833456132377470
0.588000000000000300,-0.806698752722579959
0.589000000000000412,-0.781039948889102442
0.590000000000000302,-0.755853524582187575
0.591000000000000414,-0.731135896706696320
0.592000000000000304,-0.706883421685760238
0.593000000000000416,-0.683092397991952094
0.594000000000000306,-0.659759068645432767
0.595000000000000417,-0.636879623678357931
0.596000000000000307,-0.614450202565127945
0.597000000000000419,-0.592466896617935390
0.598000000000000309,-0.570925751347222343
0.599000000000000421,-0.549822768786531912
0.600000000000000311,-0.529153909781570730
0.601000000000000423,-0.508915096242955611
0.602000000000000313,-0.489102213362586302
0.603000000000000425,-0.469711111793117198
0.604000000000000314,-0.450737609790673399
0.605000000000000426,-0.432177495320239746
0.606000000000000316,-0.414026528123933812
0.607000000000000428,-0.396280441751775403
0.608000000000000318,-0.378934945555079339
0.609000000000000430,-0.361985726642240990
0.610000000000000320,-0.345428451797055946
0.611000000000000432,-0.329258769359418335
0.612000000000000322,-0.313472311068567266
0.613000000000000433,-0.298064693868824560
0.614000000000000323,-0.283031521677974574
0.615000000000000435,-0.268368387118351204
0.616000000000000325,-0.254070873210760328
0.617000000000000437,-0.240134555031380786
0.618000000000000327,-0.226555001331834399
0.619000000000000439,-0.213327776122538004
0.620000000000000329,-0.200448440219625768
0.621000000000000441,-0.187912552755605089
0.622000000000000330,-0.175715672653988186
0.623000000000000442,-0.163853360068158371
0.624000000000000332,-0.152321177784737416
0.625000000000000444,-0.141114692591729596
0.626000000000000334,-0.130229476611730843
0.627000000000000446,-0.119661108600522564
0.628000000000000336,-0.109405175211344477
0.629000000000000448,-0.099457272225194363
0.630000000000000338,-0.089813005747504920
0.631000000000000449,-0.080467993371499347
0.632000000000000339,-0.071417865308636364
0.633000000000000451,-0.062658265486475823
0.634000000000000341,-0.054184852614363968
0.635000000000000453,-0.045993301217310781
0.636000000000000343,-0.038079302638415455
0.637000000000000455,-0.030438566010313008
0.638000000000000345,-0.023066819195970090
0.639000000000000457,-0.015959809699250416
0.640000000000000346,-0.009113305545707617
0.641000000000000458,-0.002523096133949609
0.642000000000000348,0.003815006941940613
0.643000000000000460,0.009905169098561784
0.644000000000000350,0.015751531997448477
0.645000000000000462,0.021358212807048527
0.646000000000000352,0.026729303491940935
0.647000000000000464,0.031868870128927140
0.648000000000000353,0.036780952249467334
0.649000000000000465,0.041469562208148479
0.650000000000000355,0.045938684576624311
0.651000000000000467,0.050192275562702247
0.652000000000000357,0.054234262454049012
0.653000000000000469,0.058068543086153682
0.654000000000000359,0.061698985334048807
0.655000000000000471,0.065129426627429557
0.656000000000000361,0.068363673488645096
0.657000000000000473,0.071405501093226326
0.658000000000000362,0.074258652852434132
0.659000000000000474,0.076926840017476850
0.660000000000000364,0.079413741304892496
0.661000000000000476,0.081723002542742049
