# CNT15_AMAN-AC
# h[nm],U(h)[kJ/mol]
0.200000000000000011,129.887161365952295000
0.201000000000000012,128.513582412054262250
0.202000000000000013,126.578644127693451082
0.203000000000000014,124.454473833899356805
0.204000000000000015,122.335697821937330332
0.205000000000000016,120.308207846567754018
0.206000000000000016,118.395051519933758755
0.207000000000000017,116.586228649582082539
0.208000000000000018,114.857334817897623225
0.209000000000000019,113.180619516111661937
0.210000000000000020,111.531006600204506185
0.211000000000000021,109.888873373483079376
0.212000000000000022,108.240835010871776944
0.213000000000000023,106.579382709610214874
0.214000000000000024,104.901938318183283627
0.215000000000000024,103.209685988697472681
0.216000000000000025,101.506400490781132362
0.217000000000000026,99.797395569439984797
0.218000000000000027,98.088651665632653476
0.219000000000000028,96.386141178252998429
0.220000000000000029,94.695344383196669469
0.221000000000000030,93.020935122830906039
0.222000000000000031,91.366608797257583774
0.223000000000000032,89.735023416074341185
0.224000000000000032,88.127825659261333158
0.225000000000000033,86.545736765488982201
0.226000000000000034,84.988676744765967896
0.227000000000000035,83.455909327192017599
0.228000000000000036,81.946193850694072580
0.229000000000000037,80.457933747619236442
0.230000000000000038,78.989314305459473076
0.231000000000000039,77.538424912278358647
0.232000000000000040,76.103363058499937210
0.233000000000000040,74.682318986480240142
0.234000000000000041,73.273641105389756945
0.235000000000000042,71.875883175522375268
0.236000000000000043,70.487834868312361891
0.237000000000000044,69.108537678674665017
0.238000000000000045,67.737288352810580250
0.239000000000000046,66.373632039792269666
0.240000000000000047,65.017347315542338038
0.241000000000000048,63.668425093908922463
0.242000000000000048,62.327043256532348892
0.243000000000000049,60.993538621277153311
0.244000000000000050,59.668377643942406507
0.245000000000000051,58.352127021761532433
0.246000000000000052,57.045425148690114270
0.247000000000000053,55.748955167831795166
0.248000000000000054,54.463420179620200656
0.249000000000000055,53.189520997902810961
0.250000000000000056,51.927936700880195531
0.251000000000000056,50.679308099958042533
0.252000000000000057,49.444224146252125252
0.253000000000000058,48.223211210511557567
0.254000000000000059,47.016725106016110658
0.255000000000000060,45.825145673788561851
0.256000000000000061,44.648773713377082117
0.257000000000000062,43.487830018637644969
0.258000000000000063,42.342456264566735058
0.259000000000000064,41.212717486584843130
0.260000000000000064,40.098605896159064343
0.261000000000000065,39.000045784839386442
0.262000000000000066,37.916899281364834451
0.263000000000000067,36.848972742347356757
0.264000000000000068,35.796023575165300201
0.265000000000000069,34.757767311257239840
0.266000000000000070,33.733884768293009415
0.267000000000000071,32.724029160123087934
0.268000000000000071,31.727833033502850668
0.269000000000000072,30.744914929977973372
0.270000000000000073,29.774885689716967363
0.271000000000000074,28.817354331280011337
0.272000000000000075,27.871933457172310966
0.273000000000000076,26.938244149462054366
0.274000000000000077,26.015920332701291784
0.275000000000000078,25.104612592871223598
0.276000000000000079,24.203991451108191058
0.277000000000000079,23.313750099599293009
0.278000000000000080,22.433606614342259888
0.279000000000000081,21.563305665516576681
0.280000000000000082,20.702619751109512691
0.281000000000000083,19.851349983273031796
0.282000000000000084,19.009326459757769356
0.283000000000000085,18.176408254776212914
0.284000000000000086,17.352483064884420827
0.285000000000000087,16.537466546040615611
0.286000000000000087,15.731301377981964151
0.287000000000000088,14.933956091549401179
0.288000000000000089,14.145423693660600151
0.289000000000000090,13.365720123356320315
0.290000000000000091,12.594882570795295607
0.291000000000000092,11.832967689303242054
0.292000000000000093,11.080049728652506147
0.293000000000000094,10.336218615705032420
0.294000000000000095,9.601578006437470947
0.295000000000000095,8.876243331218265809
0.296000000000000096,8.160339853058735216
0.297000000000000097,7.454000756435709363
0.298000000000000098,6.757365282209653046
0.299000000000000099,6.070576922154645061
0.300000000000000100,5.393781684694020306
0.301000000000000101,4.727126441605125962
0.302000000000000102,4.070757363734058387
0.303000000000000103,3.424818452144455794
0.304000000000000103,2.789450169626907616
0.305000000000000104,2.164788176111255513
0.306000000000000105,1.550962170258841866
0.307000000000000106,0.948094838362359082
0.308000000000000107,0.356300910645371893
0.309000000000000108,-0.224313675870386309
0.310000000000000109,-0.793652509580556442
0.311000000000000110,-1.351629333960608470
0.312000000000000111,-1.898168577660191758
0.313000000000000111,-2.433205788538939096
0.314000000000000112,-2.956687975595799767
0.315000000000000113,-3.468573863104725152
0.316000000000000114,-3.968834061557124926
0.317000000000000115,-4.457451160230730736
0.318000000000000116,-4.934419746362276094
0.319000000000000117,-5.399746356002030012
0.320000000000000118,-5.853449361678569218
0.321000000000000119,-6.295558802007326982
0.322000000000000119,-6.726116158340348150
0.323000000000000120,-7.145174083483399663
0.324000000000000121,-7.552796087405416969
0.325000000000000122,-7.949056184735402653
0.326000000000000123,-8.334038508690955638
0.327000000000000124,-8.707836895912109298
0.328000000000000125,-9.070554446488255707
0.329000000000000126,-9.422303063267117196
0.330000000000000127,-9.763202974327544581
0.331000000000000127,-10.093382242282388006
0.332000000000000128,-10.412976263858842785
0.333000000000000129,-10.722127262981732798
0.334000000000000130,-11.020983780362666238
0.335000000000000131,-11.309700162377570365
0.336000000000000132,-11.588436051795341086
0.337000000000000133,-11.857355882706702488
0.338000000000000134,-12.116628381792583724
0.339000000000000135,-12.366426077866416122
0.340000000000000135,-12.606924821429457140
0.341000000000000136,-12.838303315786927072
0.342000000000000137,-13.060742661091889971
0.343000000000000138,-13.274425912509466130
0.344000000000000139,-13.479537653529860108
0.345000000000000140,-13.676263585301413173
0.346000000000000141,-13.864790132708316506
0.347000000000000142,-14.045304067778710433
0.348000000000000143,-14.217992150879684488
0.349000000000000143,-14.383040790034726797
0.350000000000000144,-14.540635718587513026
0.351000000000000145,-14.690961691331944294
0.352000000000000146,-14.834202199133841305
0.353000000000000147,-14.970539201981916122
0.354000000000000148,-15.100152880326842109
0.355000000000000149,-15.223221404495257403
0.356000000000000150,-15.339920721900730527
0.357000000000000151,-15.450424361716381227
0.358000000000000151,-15.554903256622186092
0.359000000000000152,-15.653525581195324889
0.360000000000000153,-15.746456606472857942
0.361000000000000154,-15.833858570181893910
0.362000000000000155,-15.915890562104726413
0.363000000000000156,-15.992708424022419322
0.364000000000000157,-16.064464663661194521
0.365000000000000158,-16.131308382051912531
0.366000000000000159,-16.193385213700942415
0.367000000000000159,-16.250837278964610277
0.368000000000000160,-16.303803148014445412
0.369000000000000161,-16.352417815780167842
0.370000000000000162,-16.396812687258922381
0.371000000000000163,-16.437115572583547163
0.372000000000000164,-16.473450691249354350
0.373000000000000165,-16.505938684907469849
0.374000000000000166,-16.534696638143355329
0.375000000000000167,-16.559838106670575542
0.376000000000000167,-16.581473152384237579
0.377000000000000168,-16.599708384732178246
0.378000000000000169,-16.614647007878311058
0.379000000000000170,-16.626388873148762571
0.380000000000000171,-16.635030536268789803
0.381000000000000172,-16.640665318916411763
0.382000000000000173,-16.643383374136742958
0.383000000000000174,-16.643271755180119698
0.384000000000000175,-16.640414487345566386
0.385000000000000175,-16.634892642430287424
0.386000000000000176,-16.626784415405403195
0.387000000000000177,-16.616165202956118208
0.388000000000000178,-16.603107683544731543
0.389000000000000179,-16.587681898672435921
0.390000000000000180,-16.569955335035054134
0.391000000000000181,-16.549993007285753066
0.392000000000000182,-16.527857541135585251
0.393000000000000183,-16.503609256540205052
0.394000000000000183,-16.477306250738017468
0.395000000000000184,-16.449004480921690430
0.396000000000000185,-16.418757846340845674
0.397000000000000186,-16.386618269649421364
0.398000000000000187,-16.352635777326103295
0.399000000000000188,-16.316858579010965258
0.400000000000000189,-16.279333145614931055
0.401000000000000190,-16.240104286072600814
0.402000000000000191,-16.199215222621383248
0.403000000000000191,-16.156707664502313548
0.404000000000000192,-16.112621879989724505
0.405000000000000193,-16.066996766667763552
0.406000000000000194,-16.019869919882761877
0.407000000000000195,-15.971277699310238773
0.408000000000000196,-15.921255293584717805
0.409000000000000197,-15.869836782949937160
0.410000000000000198,-15.817055199895117212
0.411000000000000199,-15.762942587750888634
0.412000000000000199,-15.707530057226367859
0.413000000000000200,-15.650847840875261596
0.414000000000000201,-15.592925345485983968
0.415000000000000202,-15.533791202396269426
0.416000000000000203,-15.473473315738894840
0.417000000000000204,-15.411998908630000216
0.418000000000000205,-15.349394567316426929
0.419000000000000206,-15.285686283302993616
0.420000000000000207,-15.220899493484363774
0.421000000000000207,-15.155059118310356681
0.422000000000000208,-15.088189598016239046
0.423000000000000209,-15.020314926953250989
0.424000000000000210,-14.951458686056762204
0.425000000000000211,-14.881644073492100944
0.426000000000000212,-14.810893933520381083
0.427000000000000213,-14.739230783628064714
0.428000000000000214,-14.666676839966171997
0.429000000000000214,-14.593254041145973687
0.430000000000000215,-14.518984070439312717
0.431000000000000216,-14.443888376432823861
0.432000000000000217,-14.367988192185681129
0.433000000000000218,-14.291304552941369366
0.434000000000000219,-14.213858312444259013
0.435000000000000220,-14.135670157912016975
0.436000000000000221,-14.056760623714865233
0.437000000000000222,-13.977150103812686410
0.438000000000000222,-13.896858863000911555
0.439000000000000223,-13.815907047015599574
0.440000000000000224,-13.734314691547776732
0.441000000000000225,-13.652101730216623210
0.442000000000000226,-13.569288001550555478
0.443000000000000227,-13.485893255024171467
0.444000000000000228,-13.401937156198911794
0.445000000000000229,-13.317439291013737801
0.446000000000000230,-13.232419169271725679
0.447000000000000230,-13.146896227367358634
0.448000000000000231,-13.060889830298284764
0.449000000000000232,-12.974419273004119901
0.450000000000000233,-12.887503781074309828
0.451000000000000234,-12.800162510865138898
0.452000000000000235,-12.712414549065776725
0.453000000000000236,-12.624278911751133592
0.454000000000000237,-12.535774542959105204
0.455000000000000238,-12.446920312827687738
0.456000000000000238,-12.357735015326957395
0.457000000000000239,-12.268237365619288681
0.458000000000000240,-12.178445997080244112
0.459000000000000241,-12.088379458011079493
0.460000000000000242,-11.998056208073073492
0.461000000000000243,-11.907494614472110328
0.462000000000000244,-11.816712947921512722
0.463000000000000245,-11.725729378408972892
0.464000000000000246,-11.634561970793470209
0.465000000000000246,-11.543228680255877450
0.466000000000000247,-11.451747347626472617
0.467000000000000248,-11.360135694611177115
0.468000000000000249,-11.268411318937550547
0.469000000000000250,-11.176591689440115829
0.470000000000000251,-11.084694141103980769
0.471000000000000252,-10.992735870084294092
0.472000000000000253,-10.900733928718654653
0.473000000000000254,-10.808705220547818016
0.474000000000000254,-10.716666495360080091
0.475000000000000255,-10.624634344272850583
0.476000000000000256,-10.532625194864827733
0.477000000000000257,-10.440655306370917543
0.478000000000000258,-10.348740764951108062
0.479000000000000259,-10.256897479044230437
0.480000000000000260,-10.165141174816151093
0.481000000000000261,-10.073487391711537953
0.482000000000000262,-9.981951478117577992
0.483000000000000262,-9.890548587147343085
0.484000000000000263,-9.799293672549529433
0.485000000000000264,-9.708201484751272758
0.486000000000000265,-9.617286567039409206
0.487000000000000266,-9.526563251885438177
0.488000000000000267,-9.436045657418764776
0.489000000000000268,-9.345747684052135185
0.490000000000000269,-9.255683011262750171
0.491000000000000270,-9.165865094532115620
0.492000000000000270,-9.076307162446958898
0.493000000000000271,-8.987022213963465234
0.494000000000000272,-8.898023015836347582
0.495000000000000273,-8.809322100213824669
0.496000000000000274,-8.720931762399672493
0.497000000000000275,-8.632864058782431016
0.498000000000000276,-8.545130804932139057
0.499000000000000277,-8.457743573864274111
0.500000000000000222,-8.370713694470296673
0.501000000000000334,-8.284052250114166682
0.502000000000000224,-8.197770077393625954
0.503000000000000336,-8.111877765064811285
0.504000000000000226,-8.026385653128919273
0.505000000000000338,-7.941303832078650871
0.506000000000000227,-7.856642142303011056
0.507000000000000339,-7.772410173647623211
0.508000000000000229,-7.688617265128809386
0.509000000000000341,-7.605272504798216815
0.510000000000000231,-7.522384729756092625
0.511000000000000343,-7.439962526309523483
0.512000000000000233,-7.358014230273431266
0.513000000000000345,-7.276547927410628169
0.514000000000000234,-7.195571454008435452
0.515000000000000346,-7.115092397587782003
0.516000000000000236,-7.035118097742275367
0.517000000000000348,-6.955655647103161421
0.518000000000000238,-6.876711892427219475
0.519000000000000350,-6.798293435803576479
0.520000000000000240,-6.720406635976308607
0.521000000000000352,-6.643057609778944439
0.522000000000000242,-6.566252233677397854
0.523000000000000353,-6.489996145417495477
0.524000000000000243,-6.414294745773642781
0.525000000000000355,-6.339153200394782139
0.526000000000000245,-6.264576441744148738
0.527000000000000357,-6.190569171128858628
0.528000000000000247,-6.117135860816073745
0.529000000000000359,-6.044280756231691143
0.530000000000000249,-5.972007878238293266
0.531000000000000361,-5.900321025488414861
0.532000000000000250,-5.829223776849954852
0.533000000000000362,-5.758719493899768338
0.534000000000000252,-5.688811323482330096
0.535000000000000364,-5.619502200329685948
0.536000000000000254,-5.550794849739646430
0.537000000000000366,-5.482691790308334312
0.538000000000000256,-5.415195336714446306
0.539000000000000368,-5.348307602551241935
0.540000000000000258,-5.282030503203743343
0.541000000000000369,-5.216365758767313565
0.542000000000000259,-5.151314897005189408
0.543000000000000371,-5.086879256341338973
0.544000000000000261,-5.023059988886080518
0.545000000000000373,-4.959858063491332736
0.546000000000000263,-4.897274268832818578
0.547000000000000375,-4.835309216516083808
0.548000000000000265,-4.773963344204256387
0.549000000000000377,-4.713236918764073913
0.550000000000000266,-4.653130039428376108
0.551000000000000378,-4.593642640971937752
0.552000000000000268,-4.534774496898583251
0.553000000000000380,-4.476525222636955625
0.554000000000000270,-4.418894278742850901
0.555000000000000382,-4.361880974105536879
0.556000000000000272,-4.305484469156342087
0.557000000000000384,-4.249703779076843269
0.558000000000000274,-4.194537777005191259
0.559000000000000385,-4.139985197238027936
0.560000000000000275,-4.086044638426593600
0.561000000000000387,-4.032714566764751041
0.562000000000000277,-3.979993319167452803
0.563000000000000389,-3.927879106437722978
0.564000000000000279,-3.876370016420676912
0.565000000000000391,-3.825464017142797157
0.566000000000000281,-3.775158959935131175
0.567000000000000393,-3.725452582538739676
0.568000000000000282,-3.676342512191256073
0.569000000000000394,-3.627826268692841971
0.570000000000000284,-3.579901267450681157
0.571000000000000396,-3.532564822500348978
0.572000000000000286,-3.485814149503320358
0.573000000000000398,-3.439646368719028402
0.574000000000000288,-3.394058507950861614
0.575000000000000400,-3.349047505464757712
0.576000000000000290,-3.304610212879647069
0.577000000000000401,-3.260743398028668416
0.578000000000000291,-3.217443747790491138
0.579000000000000403,-3.174707870889739603
0.580000000000000293,-3.132532300665975988
0.581000000000000405,-3.090913497810265476
0.582000000000000295,-3.049847853069000969
0.583000000000000407,-3.009331689913995689
0.584000000000000297,-2.969361267178585173
0.585000000000000409,-2.929932781658984631
0.586000000000000298,-2.891042370680585893
0.587000000000000410,-2.852686114628548264
0.588000000000000300,-2.814860039442508288
0.589000000000000412,-2.777560119074763634
0.590000000000000302,-2.740782277911841369
0.591000000000000414,-2.704522393159020321
0.592000000000000304,-2.668776297187555713
0.593000000000000416,-2.633539779844343620
0.594000000000000306,-2.598808590723991507
0.595000000000000417,-2.564578441402849851
0.596000000000000307,-2.530845007635134980
0.597000000000000419,-2.497603931510858466
0.598000000000000309,-2.464850823575611471
0.599000000000000421,-2.432581264911987340
0.600000000000000311,-2.400790809182853369
0.601000000000000423,-2.369474984636195991
0.602000000000000313,-2.338629296071876418
0.603000000000000425,-2.308249226769962803
0.604000000000000314,-2.278330240381189142
0.605000000000000426,-2.248867782779117697
0.606000000000000316,-2.219857283874584475
0.607000000000000428,-2.191294159392202179
0.608000000000000318,-2.163173812609365587
0.609000000000000430,-2.135491636057655462
0.610000000000000320,-2.108243013187132142
0.611000000000000432,-2.081423319993419341
0.612000000000000322,-2.055027926608072431
0.613000000000000433,-2.029052198852281386
0.614000000000000323,-2.003491499754274763
0.615000000000000435,-1.978341191030623225
0.616000000000000325,-1.953596634531799436
0.617000000000000437,-1.929253193652181952
0.618000000000000327,-1.905306234704955415
0.619000000000000439,-1.881751128262046935
0.620000000000000329,-1.858583250459597824
0.621000000000000441,-1.835797984269212479
0.622000000000000330,-1.813390720735332806
0.623000000000000442,-1.791356860179131427
0.624000000000000332,-1.769691813369276945
0.625000000000000444,-1.748391002659922533
0.626000000000000334,-1.727449863096338856
0.627000000000000446,-1.706863843488509946
0.628000000000000336,-1.686628407453170553
0.629000000000000448,-1.666739034424596699
0.630000000000000338,-1.647191220634647735
0.631000000000000449,-1.627980480062347413
0.632000000000000339,-1.609102345353527141
0.633000000000000451,-1.590552368710885123
0.634000000000000341,-1.572326122754902356
0.635000000000000453,-1.554419201356026958
0.636000000000000343,-1.536827220438549801
0.637000000000000455,-1.519545818756603328
0.638000000000000345,-1.502570658642753409
0.639000000000000457,-1.485897426729477333
0.640000000000000346,-1.469521834644184510
0.641000000000000458,-1.453439619677949990
0.642000000000000348,-1.437646545428635569
0.643000000000000460,-1.422138402418636538
0.644000000000000350,-1.406911008687836473
0.645000000000000462,-1.391960210362082062
0.646000000000000352,-1.377281882197720186
0.647000000000000464,-1.362871928102488583
0.648000000000000353,-1.348726281633397139
0.649000000000000465,-1.334840906471761013
0.650000000000000355,-1.321211796876084366
0.651000000000000467,-1.307834978112990099
0.652000000000000357,-1.294706506866794227
0.653000000000000469,-1.281822471628017102
0.654000000000000359,-1.269178993061351068
0.655000000000000471,-1.256772224353387868
0.656000000000000361,-1.244598351540678216
0.657000000000000473,-1.232653593818330284
0.658000000000000362,-1.220934203829768583
0.659000000000000474,-1.209436467937866855
