# CNT15_CS-270-AC
# h[nm],U(h)[kJ/mol]
0.149999999999999994,132.807137962211953663
0.150999999999999995,130.188012459248369623
0.151999999999999996,128.861591106373282400
0.152999999999999997,127.785015814118381172
0.153999999999999998,126.578963275621532603
0.154999999999999999,125.176516260088945387
0.156000000000000000,123.632990037568987418
0.157000000000000001,122.030804319006463743
0.158000000000000002,120.438185158100878880
0.159000000000000002,118.896549417752638078
0.160000000000000003,117.421718025299810506
0.161000000000000004,116.010572099289518633
0.162000000000000005,114.648730522589630709
0.163000000000000006,113.317178553300180965
0.164000000000000007,111.997107577491675556
0.165000000000000008,110.672926606886036893
0.166000000000000009,109.333730094677591183
0.167000000000000010,107.973615713753360978
0.168000000000000010,106.591240634286549493
0.169000000000000011,105.188946419781785835
0.170000000000000012,103.771706153631527059
0.171000000000000013,102.346071876064030448
0.172000000000000014,100.919235020986434392
0.173000000000000015,99.498260632139391646
0.174000000000000016,98.089517811986425500
0.175000000000000017,96.698302596576041879
0.176000000000000018,95.328633083256818281
0.177000000000000018,93.983187892731990587
0.178000000000000019,92.663355839155272520
0.179000000000000020,91.369365247562626564
0.180000000000000021,90.100464287052290047
0.181000000000000022,88.855127908582815621
0.182000000000000023,87.631271711577454653
0.183000000000000024,86.426457781597534336
0.184000000000000025,85.238081903035151754
0.185000000000000026,84.063535363130853284
0.186000000000000026,82.900337739989666375
0.187000000000000027,81.746239594675060403
0.188000000000000028,80.599295901021079658
0.189000000000000029,79.457912410284947669
0.190000000000000030,78.320868039348937373
0.191000000000000031,77.187316873470180667
0.192000000000000032,76.056773567876717834
0.193000000000000033,74.929085890652928015
0.194000000000000034,73.804397937429286003
0.195000000000000034,72.683107221707231815
0.196000000000000035,71.565818448732969159
0.197000000000000036,70.453296351929211028
0.198000000000000037,69.346419536853915133
0.199000000000000038,68.246136859004309372
0.200000000000000039,67.153427472840547807
0.201000000000000040,66.069265339363681733
0.202000000000000041,64.994588673551533020
0.203000000000000042,63.930274552849084557
0.204000000000000042,62.877118693250828585
0.205000000000000043,61.835820228106044283
0.206000000000000044,60.806971193258902986
0.207000000000000045,59.791050326426486095
0.208000000000000046,58.788420724373260384
0.209000000000000047,57.799330863917973033
0.210000000000000048,56.823918477674020266
0.211000000000000049,55.862216778482107316
0.212000000000000050,54.914162543886220647
0.213000000000000050,53.979605600271597154
0.214000000000000051,53.058319282375215664
0.215000000000000052,52.150011485174772474
0.216000000000000053,51.254335969446159993
0.217000000000000054,50.370903627723137674
0.218000000000000055,49.499293462521713138
0.219000000000000056,48.639063072353962980
0.220000000000000057,47.789758482373557058
0.221000000000000058,46.950923194848641629
0.222000000000000058,46.122106369617469568
0.223000000000000059,45.302870076015736345
0.224000000000000060,44.492795585360646271
0.225000000000000061,43.691488696957591742
0.226000000000000062,42.898584110861520458
0.227000000000000063,42.113748877451946839
0.228000000000000064,41.336684967490150200
0.229000000000000065,40.567131016974471436
0.230000000000000066,39.804863309074512756
0.231000000000000066,39.049696060988424051
0.232000000000000067,38.301481087020725624
0.233000000000000068,37.560106910796491775
0.234000000000000069,36.825497399583255742
0.235000000000000070,36.097609992435323534
0.236000000000000071,35.376433591542671309
0.237000000000000072,34.661986182971574522
0.238000000000000073,33.954312249123674405
0.239000000000000073,33.253480030886564123
0.240000000000000074,32.559578692754023166
0.241000000000000075,31.872715439295898676
0.242000000000000076,31.193012626365401729
0.243000000000000077,30.520604905446759858
0.244000000000000078,29.855636434647060184
0.245000000000000079,29.198258185089684957
0.246000000000000080,28.548625366926216884
0.247000000000000081,27.906894994886648931
0.248000000000000081,27.273223609268416823
0.249000000000000082,26.647765164539901406
0.250000000000000111,26.030669094318334089
0.251000000000000112,25.422078558380494684
0.252000000000000113,24.822128874576286250
0.253000000000000114,24.230946136038358674
0.254000000000000115,23.648646011901433894
0.255000000000000115,23.075332727856832093
0.256000000000000116,22.511098221251536700
0.257000000000000117,21.956021464084155781
0.258000000000000118,21.410167946134102124
0.259000000000000119,20.873589309566177974
0.260000000000000120,20.346323125662884479
0.261000000000000121,19.828392803833672531
0.262000000000000122,19.319807622712755091
0.263000000000000123,18.820562872971251522
0.264000000000000123,18.330640101413596454
0.265000000000000124,17.850007445990534904
0.266000000000000125,17.378620051522101875
0.267000000000000126,16.916420556171953393
0.268000000000000127,16.463339639033740980
0.269000000000000128,16.019296619570450702
0.270000000000000129,15.584200100075173978
0.271000000000000130,15.157948642786584159
0.272000000000000131,14.740431473787179328
0.273000000000000131,14.331529206324759684
0.274000000000000132,13.931114576723597764
0.275000000000000133,13.539053186582387767
0.276000000000000134,13.155204245486293857
0.277000000000000135,12.779421308985813965
0.278000000000000136,12.411553007109368707
0.279000000000000137,12.051443759178109616
0.280000000000000138,11.698934471176482219
0.281000000000000139,11.353863212396827720
0.282000000000000139,11.016065868521364379
0.283000000000000140,10.685376768726113639
0.284000000000000141,10.361629284789572125
0.285000000000000142,10.044656400562137932
0.286000000000000143,9.734291250500836767
0.287000000000000144,9.430367626297622152
0.288000000000000145,9.132720450927319433
0.289000000000000146,8.841186219716199446
0.290000000000000147,8.555603408280862965
0.291000000000000147,8.275812847414480089
0.292000000000000148,8.001658065200226488
0.293000000000000149,7.732985596814515361
0.294000000000000150,7.469645262643162198
0.295000000000000151,7.211490415475308779
0.296000000000000152,6.958378157662449937
0.297000000000000153,6.710169529235093577
0.298000000000000154,6.466729668057942249
0.299000000000000155,6.227927943177794745
0.300000000000000155,5.993638062577104186
0.301000000000000156,5.763738156591998951
0.302000000000000157,5.538110838286678828
0.303000000000000158,5.316643242098979982
0.304000000000000159,5.099227042083803951
0.305000000000000160,4.885758451084515563
0.306000000000000161,4.676138202157166468
0.307000000000000162,4.470271513559955778
0.308000000000000163,4.268068038601482428
0.309000000000000163,4.069441801616521914
0.310000000000000164,3.874311121308358530
0.311000000000000165,3.682598522662639873
0.312000000000000166,3.494230638600036798
0.313000000000000167,3.309138102494157518
0.314000000000000168,3.127255432637877863
0.315000000000000169,2.948520909695874437
0.316000000000000170,2.772876448134189875
0.317000000000000171,2.600267462569842536
0.318000000000000171,2.430642729934580082
0.319000000000000172,2.263954248297719296
0.320000000000000173,2.100157093143972808
0.321000000000000174,1.939209271853135963
0.322000000000000175,1.781071577079854862
0.323000000000000176,1.625707439684128230
0.324000000000000177,1.473082781815986619
0.325000000000000178,1.323165870712256220
0.326000000000000179,1.175927173718209984
0.327000000000000179,1.031339215004001719
0.328000000000000180,0.889376434403547522
0.329000000000000181,0.750015048763191250
0.330000000000000182,0.613232916148780616
0.331000000000000183,0.479009403222315888
0.332000000000000184,0.347325256064064114
0.333000000000000185,0.218162474682037588
0.334000000000000186,0.091504191418588704
0.335000000000000187,-0.032665446566506162
0.336000000000000187,-0.154361390585992686
0.337000000000000188,-0.273597799364358296
0.338000000000000189,-0.390388143528463849
0.339000000000000190,-0.504745305575148295
0.340000000000000191,-0.616681675263593632
0.341000000000000192,-0.726209240401012535
0.342000000000000193,-0.833339673009248605
0.343000000000000194,-0.938084410877616071
0.344000000000000195,-1.040454734523239333
0.345000000000000195,-1.140461839595694915
0.346000000000000196,-1.238116904775522942
0.347000000000000197,-1.333431155229165777
0.348000000000000198,-1.426415921693633182
0.349000000000000199,-1.517082695274308168
0.350000000000000200,-1.605443178048230779
0.351000000000000201,-1.691509329572988829
0.352000000000000202,-1.775293409408241319
0.353000000000000203,-1.856808015762953845
0.354000000000000203,-1.936066120386506384
0.355000000000000204,-2.013081099825942299
0.356000000000000205,-2.087866763175415308
0.357000000000000206,-2.160437376446706192
0.358000000000000207,-2.230807683691408805
0.359000000000000208,-2.298992925007504962
0.360000000000000209,-2.365008851563655146
0.361000000000000210,-2.428871737774921602
0.362000000000000210,-2.490598390763874903
0.363000000000000211,-2.550206157240183735
0.364000000000000212,-2.607712927931193914
0.365000000000000213,-2.663137139694464750
0.366000000000000214,-2.716497775441781393
0.367000000000000215,-2.767814362002095407
0.368000000000000216,-2.817106966048886996
0.369000000000000217,-2.864396188214610284
0.370000000000000218,-2.909703155512727513
0.371000000000000218,-2.953049512184469538
0.372000000000000219,-2.994457409084907429
0.373000000000000220,-3.033949491719535541
0.374000000000000221,-3.071548887039326381
0.375000000000000222,-3.107279189098790972
0.376000000000000223,-3.141164443678478690
0.377000000000000224,-3.173229131969345307
0.378000000000000225,-3.203498153413251170
0.379000000000000226,-3.231996807790069592
0.380000000000000226,-3.258750776638528635
0.381000000000000227,-3.283786104093898928
0.382000000000000228,-3.307129177222578598
0.383000000000000229,-3.328806705929614029
0.384000000000000230,-3.348845702511861422
0.385000000000000231,-3.367273460926074158
0.386000000000000232,-3.384117535837462221
0.387000000000000233,-3.399405721511246092
0.388000000000000234,-3.413166030605972789
0.389000000000000234,-3.425426672924493765
0.390000000000000235,-3.436216034174977008
0.391000000000000236,-3.445562654791361812
0.392000000000000237,-3.453495208859563625
0.393000000000000238,-3.460042483192799612
0.394000000000000239,-3.465233356596399972
0.395000000000000240,-3.469096779359855276
0.396000000000000241,-3.471661753011002993
0.397000000000000242,-3.472957310364577665
0.398000000000000242,-3.473012495895056784
0.399000000000000243,-3.471856346460978848
0.400000000000000244,-3.469517872405777581
0.401000000000000245,-3.466026039057901187
0.402000000000000246,-3.461409748650583929
0.403000000000000247,-3.455697822679916875
0.404000000000000248,-3.448918984717537661
0.405000000000000249,-3.441101843692593754
0.406000000000000250,-3.432274877655606016
0.407000000000000250,-3.422466418035329916
0.408000000000000251,-3.411704634397913161
0.409000000000000252,-3.400017519716129755
0.410000000000000253,-3.387432876155018313
0.411000000000000254,-3.373978301378761646
0.412000000000000255,-3.359681175382388751
0.413000000000000256,-3.344568647850616028
0.414000000000000257,-3.328667626044858885
0.415000000000000258,-3.312004763218534542
0.416000000000000258,-3.294606447559460971
0.417000000000000259,-3.276498791657469045
0.418000000000000260,-3.257707622494164124
0.419000000000000261,-3.238258471951135586
0.420000000000000262,-3.218176567831954493
0.421000000000000263,-3.197486825392708010
0.422000000000000264,-3.176213839374992798
0.423000000000000265,-3.154381876534772644
0.424000000000000266,-3.132014868659962037
0.425000000000000266,-3.109136406068853997
0.426000000000000267,-3.085769731581353703
0.427000000000000268,-3.061937734954248924
0.428000000000000269,-3.037662947771529343
0.429000000000000270,-3.012967538780428889
0.430000000000000271,-2.987873309663355847
0.431000000000000272,-2.962401691235911905
0.432000000000000273,-2.936573740060646642
0.433000000000000274,-2.910410135466263259
0.434000000000000274,-2.883931176961568532
0.435000000000000275,-2.857156782033549280
0.436000000000000276,-2.830106484318689386
0.437000000000000277,-2.802799432136568125
0.438000000000000278,-2.775254387374808118
0.439000000000000279,-2.747489724714328840
0.440000000000000280,-2.719523431183832329
0.441000000000000281,-2.691373106032495244
0.442000000000000282,-2.663055960909924469
0.443000000000000282,-2.634588820342253168
0.444000000000000283,-2.605988122493641423
0.445000000000000284,-2.577269920202235109
0.446000000000000285,-2.548449882279823608
0.447000000000000286,-2.519543295064714528
0.448000000000000287,-2.490565064217065583
0.449000000000000288,-2.461529716746537311
0.450000000000000289,-2.432451403261789213
0.451000000000000290,-2.403343900431853086
0.452000000000000290,-2.374220613649433265
0.453000000000000291,-2.345094579886243480
0.454000000000000292,-2.315978470730930106
0.455000000000000293,-2.286884595600008119
0.456000000000000294,-2.257824905112661540
0.457000000000000295,-2.228810994620348929
0.458000000000000296,-2.199854107882275311
0.459000000000000297,-2.170965140878185373
0.460000000000000298,-2.142154645749914543
0.461000000000000298,-2.113432834863531617
0.462000000000000299,-2.084809584983960740
0.463000000000000300,-2.056294441554239238
0.464000000000000301,-2.027896623071833382
0.465000000000000302,-1.999625025554568891
0.466000000000000303,-1.971488227088880496
0.467000000000000304,-1.943494492453508915
0.468000000000000305,-1.915651777811753220
0.469000000000000306,-1.887967735465697405
0.470000000000000306,-1.860449718666127739
0.471000000000000307,-1.833104786471790648
0.472000000000000308,-1.805939708652199105
0.473000000000000309,-1.778960970628101546
0.474000000000000310,-1.752174778444106407
0.475000000000000311,-1.725587063768016849
0.476000000000000312,-1.699203488911853910
0.477000000000000313,-1.673029451869382456
0.478000000000000314,-1.647070091365492983
0.479000000000000314,-1.621330291912820298
0.480000000000000315,-1.595814688871086018
0.481000000000000316,-1.570527673505048183
0.482000000000000317,-1.545473398036893764
0.483000000000000318,-1.520655780689245784
0.484000000000000319,-1.496078510715030063
0.485000000000000320,-1.471745053410686621
0.486000000000000321,-1.447658655109300030
0.487000000000000322,-1.423822348150465489
0.488000000000000322,-1.400238955823720044
0.489000000000000323,-1.376911097282794483
0.490000000000000324,-1.353841192427727158
0.491000000000000325,-1.331031466752348846
0.492000000000000326,-1.308483956154556038
0.493000000000000327,-1.286200511707126681
0.494000000000000328,-1.264182804386771553
0.495000000000000329,-1.242432329759408871
0.496000000000000330,-1.220950412619638659
0.497000000000000330,-1.199738211582686009
0.498000000000000331,-1.178796723626930554
0.499000000000000332,-1.158126788585642775
0.500000000000000333,-1.137729093586258511
0.501000000000000334,-1.117604177435862711
0.502000000000000335,-1.097752434951680067
0.503000000000000336,-1.078174121235299321
0.504000000000000337,-1.058869355889628050
0.505000000000000338,-1.039838127177554972
0.506000000000000338,-1.021080296121470443
0.507000000000000339,-1.002595600542805832
0.508000000000000340,-0.984383659040880210
0.509000000000000341,-0.966443974910495718
0.510000000000000342,-0.948775939997592355
0.511000000000000343,-0.931378838492621264
0.512000000000000344,-0.914251850661114362
0.513000000000000345,-0.897394056511198079
0.514000000000000346,-0.880804439397758543
0.515000000000000346,-0.864481889563012751
0.516000000000000347,-0.848425207613388133
0.517000000000000348,-0.832633107932643002
0.518000000000000349,-0.817104222031108995
0.519000000000000350,-0.801837101831203825
0.520000000000000351,-0.786830222889168818
0.521000000000000352,-0.772081987553277949
0.522000000000000353,-0.757590728058582075
0.523000000000000353,-0.743354709558460947
0.524000000000000354,-0.729372133093264652
0.525000000000000355,-0.715641138496280305
0.526000000000000356,-0.702159807237388356
0.527000000000000357,-0.688926165204842178
0.528000000000000358,-0.675938185425429050
0.529000000000000359,-0.663193790723655807
0.530000000000000360,-0.650690856320217059
0.531000000000000361,-0.638427212370414998
0.532000000000000361,-0.626400646442941911
0.533000000000000362,-0.614608905939651118
0.534000000000000363,-0.603049700456824156
0.535000000000000364,-0.591720704088593230
0.536000000000000365,-0.580619557673070941
0.537000000000000366,-0.569743870981891831
0.538000000000000367,-0.559091224853721869
0.539000000000000368,-0.548659173272534773
0.540000000000000369,-0.538445245391188876
0.541000000000000369,-0.528446947501149178
0.542000000000000370,-0.518661764948925685
0.543000000000000371,-0.509087164000055714
0.544000000000000372,-0.499720593651304501
0.545000000000000373,-0.490559487391842908
0.546000000000000374,-0.481601264914131189
0.547000000000000375,-0.472843333775285035
0.548000000000000376,-0.464283091009683180
0.549000000000000377,-0.455917924693559296
0.550000000000000377,-0.447745215462376556
0.551000000000000378,-0.439762337981729368
0.552000000000000379,-0.431966662372583077
0.553000000000000380,-0.424355555591602873
0.554000000000000381,-0.416926382767335624
0.555000000000000382,-0.409676508493104774
0.556000000000000383,-0.402603298077263028
0.557000000000000384,-0.395704118751736889
0.558000000000000385,-0.388976340839494283
0.559000000000000385,-0.382417338881823554
0.560000000000000386,-0.376024492726131143
0.561000000000000387,-0.369795188575055667
0.562000000000000388,-0.363726819997632400
0.563000000000000389,-0.357816788903337624
0.564000000000000390,-0.352062506479680293
0.565000000000000391,-0.346461394094173980
0.566000000000000392,-0.341010884161368877
0.567000000000000393,-0.335708420975765420
0.568000000000000393,-0.330551461511251143
0.569000000000000394,-0.325537476187864716
0.570000000000000395,-0.320663949606585841
0.571000000000000396,-0.315928381252842061
0.572000000000000397,-0.311328286169506419
0.573000000000000398,-0.306861195599994474
0.574000000000000399,-0.302524657602259994
0.575000000000000400,-0.298316237634280335
0.576000000000000401,-0.294233519111760045
0.577000000000000401,-0.290274103938752859
0.578000000000000402,-0.286435613011782331
0.579000000000000403,-0.282715686698157609
0.580000000000000404,-0.279111985289186570
0.581000000000000405,-0.275622189428790021
0.582000000000000406,-0.272244000518290119
0.583000000000000407,-0.268975141097873849
0.584000000000000408,-0.265813355205417712
0.585000000000000409,-0.262756408713240297
0.586000000000000409,-0.259802089643368317
0.587000000000000410,-0.256948208461940164
0.588000000000000411,-0.254192598353247701
0.589000000000000412,-0.251533115474076419
0.590000000000000413,-0.248967639188797607
0.591000000000000414,-0.246494072285826704
0.592000000000000415,-0.244110341175978851
0.593000000000000416,-0.241814396073198268
0.594000000000000417,-0.239604211158229136
0.595000000000000417,-0.237477784725753649
0.596000000000000418,-0.235433139315393947
0.597000000000000419,-0.233468321827212166
0.598000000000000420,-0.231581403622055287
0.599000000000000421,-0.229770480607317529
0.600000000000000422,-0.228033673308525447
0.601000000000000423,-0.226369126927205233
0.602000000000000424,-0.224775011385511148
0.603000000000000425,-0.223249521358017400
0.604000000000000425,-0.221790876291102890
0.605000000000000426,-0.220397320410356701
0.606000000000000427,-0.219067122716455037
0.607000000000000428,-0.217798576969762930
0.608000000000000429,-0.216590001664315412
0.609000000000000430,-0.215439739991235030
0.610000000000000431,-0.214346159792275254
0.611000000000000432,-0.213307653503638533
0.612000000000000433,-0.212322638090501586
0.613000000000000433,-0.211389554972654770
