# CNT15_CS-11530-AC
# h[nm],U(h)[kJ/mol]
0.200000000000000011,72.470080273508159507
0.201000000000000012,71.184973614441531709
0.202000000000000013,69.749069551848009496
0.203000000000000014,68.273354149192329032
0.204000000000000015,66.810507768110852567
0.205000000000000016,65.379909601101246608
0.206000000000000016,63.983523975851241516
0.207000000000000017,62.615594345783662789
0.208000000000000018,61.268221534972688858
0.209000000000000019,59.934281455487720791
0.210000000000000020,58.608686571187831760
0.211000000000000021,57.288671132065303482
0.212000000000000022,55.973549587906212821
0.213000000000000023,54.664235705912389562
0.214000000000000024,53.362698088383055506
0.215000000000000024,52.071452078866300894
0.216000000000000025,50.793138120490368692
0.217000000000000026,49.530204869272111523
0.218000000000000027,48.284696195033511401
0.219000000000000028,47.058130582839105216
0.220000000000000029,45.851456480204866750
0.221000000000000030,44.665065766813114578
0.222000000000000031,43.498848322723134174
0.223000000000000032,42.352272659797222332
0.224000000000000032,41.224480107994992295
0.225000000000000033,40.114382695271778800
0.226000000000000034,39.020757372881561764
0.227000000000000035,37.942331475808465768
0.228000000000000036,36.877856205779835364
0.229000000000000037,35.826166466324657733
0.230000000000000038,34.786226580781118400
0.231000000000000039,33.757162317719206612
0.232000000000000040,32.738280275204104441
0.233000000000000040,31.729076079601320259
0.234000000000000041,30.729233079007961749
0.235000000000000042,29.738613295317019691
0.236000000000000043,28.757242377264066846
0.237000000000000044,27.785290199439078407
0.238000000000000045,26.823048604023323804
0.239000000000000046,25.870907603065813163
0.240000000000000047,24.929331165293156403
0.241000000000000048,23.998833514865282268
0.242000000000000048,23.079956679051470303
0.243000000000000049,22.173249843751683841
0.244000000000000050,21.279250914203345246
0.245000000000000051,20.398470535425833106
0.246000000000000052,19.531378703973164335
0.247000000000000053,18.678393999362224775
0.248000000000000054,17.839875379371655129
0.249000000000000055,17.016116416996560190
0.250000000000000056,16.207341806602290291
0.251000000000000056,15.413705930968754743
0.252000000000000057,14.635293257602688399
0.253000000000000058,13.872120320080572498
0.254000000000000059,13.124139036497052047
0.255000000000000060,12.391241120680433596
0.256000000000000061,11.673263351179437919
0.257000000000000062,10.969993476765845131
0.258000000000000063,10.281176554135189605
0.259000000000000064,9.606521532585098555
0.260000000000000064,8.945707920823618764
0.261000000000000065,8.298392391971765036
0.262000000000000066,7.664215203668495846
0.263000000000000067,7.042806330484850719
0.264000000000000068,6.433791225229168909
0.265000000000000069,5.836796143900121692
0.266000000000000070,5.251452985822884223
0.267000000000000071,4.677403615756935196
0.268000000000000071,4.114303648426556492
0.269000000000000072,3.561825687975046062
0.270000000000000073,3.019662025301699693
0.271000000000000074,2.487526805156350829
0.272000000000000075,1.965157682312878240
0.273000000000000076,1.452316992212760782
0.274000000000000077,0.948792466263558509
0.275000000000000078,0.454397525607033947
0.276000000000000079,-0.031028810249188687
0.277000000000000079,-0.507622361900532226
0.278000000000000080,-0.975494536758210296
0.279000000000000081,-1.434733345044932218
0.280000000000000082,-1.885404646616694269
0.281000000000000083,-2.327553591172151659
0.282000000000000084,-2.761206215850164902
0.283000000000000085,-3.186371165994346555
0.284000000000000086,-3.603041506905500402
0.285000000000000087,-4.011196596638166412
0.286000000000000087,-4.410803992269110019
0.287000000000000088,-4.801821364517424584
0.288000000000000089,-5.184198398082864756
0.289000000000000090,-5.557878657551814428
0.290000000000000091,-5.922801401163213519
0.291000000000000092,-6.278903327105155086
0.292000000000000093,-6.626120239299970294
0.293000000000000094,-6.964388621816416602
0.294000000000000095,-7.293647113105758528
0.295000000000000095,-7.613837873185943295
0.296000000000000096,-7.924907838685053996
0.297000000000000097,-8.226809862300353160
0.298000000000000098,-8.519503734728646194
0.299000000000000099,-8.802957088479406167
0.300000000000000100,-9.077146184195010292
0.301000000000000101,-9.342056581177729413
0.302000000000000102,-9.597683694763755824
0.303000000000000103,-9.844033243998941529
0.304000000000000103,-10.081121593762706112
0.305000000000000104,-10.308975996065596448
0.306000000000000105,-10.527634735718034875
0.307000000000000106,-10.737147185940999705
0.308000000000000107,-10.937573779772268523
0.309000000000000108,-11.128985903320794293
0.310000000000000109,-11.311465717046454316
0.311000000000000110,-11.485105911297626591
0.312000000000000111,-11.650009402335609110
0.313000000000000111,-11.806288975015842624
0.314000000000000112,-11.954066878191239809
0.315000000000000113,-12.093474378756850385
0.316000000000000114,-12.224651280074510851
0.317000000000000115,-12.347745410305909886
0.318000000000000116,-12.462912085948433472
0.319000000000000117,-12.570313555614422540
0.320000000000000118,-12.670118428825386303
0.321000000000000119,-12.762501094313105199
0.322000000000000119,-12.847641132031313305
0.323000000000000120,-12.925722722789668495
0.324000000000000121,-12.996934059128182781
0.325000000000000122,-13.061466760757094008
0.326000000000000123,-13.119515297597875048
0.327000000000000124,-13.171276423176298209
0.328000000000000125,-13.216948620841199258
0.329000000000000126,-13.256731565012623619
0.330000000000000127,-13.290825599403291335
0.331000000000000127,-13.319431233907568668
0.332000000000000128,-13.342748661613370587
0.333000000000000129,-13.360977297165907984
0.334000000000000130,-13.374315337497069578
0.335000000000000131,-13.382959345732809098
0.336000000000000132,-13.387103858900406550
0.337000000000000133,-13.386941019881447801
0.338000000000000134,-13.382660233891751744
0.339000000000000135,-13.374447849617618900
0.340000000000000135,-13.362486864998794900
0.341000000000000136,-13.346956657520468781
0.342000000000000137,-13.328032738761384834
0.343000000000000138,-13.305886532840062841
0.344000000000000139,-13.280685178307910732
0.345000000000000140,-13.252591352954365078
0.346000000000000141,-13.221763120915960954
0.347000000000000142,-13.188353801417175504
0.348000000000000143,-13.152511858415973478
0.349000000000000143,-13.114380810380239950
0.350000000000000144,-13.074099159382630120
0.351000000000000145,-13.031800338669956574
0.352000000000000146,-12.987612677838839659
0.353000000000000147,-12.941659384731332594
0.354000000000000148,-12.894058543151899698
0.355000000000000149,-12.844923125500645966
0.356000000000000150,-12.794361019415717351
0.357000000000000151,-12.742475067520794951
0.358000000000000151,-12.689363119380278278
0.359000000000000152,-12.635118094775545927
0.360000000000000153,-12.579828057429519816
0.361000000000000154,-12.523576298323597200
0.362000000000000155,-12.466441427770515560
0.363000000000000156,-12.408497475428514889
0.364000000000000157,-12.349813997465627580
0.365000000000000158,-12.290456190108690393
0.366000000000000159,-12.230485008838021699
0.367000000000000159,-12.169957292516865976
0.368000000000000160,-12.108925891773596462
0.369000000000000161,-12.047439800983932301
0.370000000000000162,-11.985544293230622870
0.371000000000000163,-11.923281057648559056
0.372000000000000164,-11.860688338593247337
0.373000000000000165,-11.797801076101679385
0.374000000000000166,-11.734651047144490477
0.375000000000000167,-11.671267007198553145
0.376000000000000167,-11.607674831698897577
0.377000000000000168,-11.543897656957899045
0.378000000000000169,-11.479956020168405217
0.379000000000000170,-11.415867998135514227
0.380000000000000171,-11.351649344408855313
0.381000000000000172,-11.287313624513924282
0.382000000000000173,-11.222872349006484782
0.383000000000000174,-11.158335104099240453
0.384000000000000175,-11.093709679633558807
0.385000000000000175,-11.029002194192331743
0.386000000000000176,-10.964217217172116392
0.387000000000000177,-10.899357887653703614
0.388000000000000178,-10.834426029930806834
0.389000000000000179,-10.769422265575377295
0.390000000000000180,-10.704346121936769265
0.391000000000000181,-10.639196136989008679
0.392000000000000182,-10.573969960457052508
0.393000000000000183,-10.508664451168181486
0.394000000000000183,-10.443275770589483642
0.395000000000000184,-10.377799472525776281
0.396000000000000185,-10.312230588965377365
0.397000000000000186,-10.246563712072806140
0.398000000000000187,-10.180793072338872207
0.399000000000000188,-10.114912612908614875
0.400000000000000189,-10.048916060117331739
0.401000000000000190,-9.982796990273520521
0.402000000000000191,-9.916548892735686849
0.403000000000000191,-9.850165229337235928
0.404000000000000192,-9.783639490220428669
0.405000000000000193,-9.716965246146235913
0.406000000000000194,-9.650136197352505718
0.407000000000000195,-9.583146219037644187
0.408000000000000196,-9.515989403551110115
0.409000000000000197,-9.448660099375933541
0.410000000000000198,-9.381152946991763386
0.411000000000000199,-9.313462911709349257
0.412000000000000199,-9.245585313570083841
0.413000000000000200,-9.177515854405868367
0.414000000000000201,-9.109250642156158762
0.415000000000000202,-9.040786212540004030
0.416000000000000203,-8.972119548181940019
0.417000000000000204,-8.903248095290701158
0.418000000000000205,-8.834169777990149797
0.419000000000000206,-8.764883010401510077
0.420000000000000207,-8.695386706575522595
0.421000000000000207,-8.625680288372832294
0.422000000000000208,-8.555763691389525860
0.423000000000000209,-8.485637369024223275
0.424000000000000210,-8.415302294781506376
0.425000000000000211,-8.344759962905072825
0.426000000000000212,-8.274012387432767568
0.427000000000000213,-8.203062099763396731
0.428000000000000214,-8.131912144823949973
0.429000000000000214,-8.060566075923528473
0.430000000000000215,-7.989027948378394584
0.431000000000000216,-7.917302311990577657
0.432000000000000217,-7.845394202459942790
0.433000000000000218,-7.773309131807789818
0.434000000000000219,-7.701053077887441312
0.435000000000000220,-7.628632473055191099
0.436000000000000221,-7.556054192072403808
0.437000000000000222,-7.483325539307324803
0.438000000000000222,-7.410454235302753823
0.439000000000000223,-7.337448402773260270
0.440000000000000224,-7.264316552093248447
0.441000000000000225,-7.191067566334778505
0.442000000000000226,-7.117710685911776913
0.443000000000000227,-7.044255492884607506
0.444000000000000228,-6.970711894977031697
0.445000000000000229,-6.897090109354913068
0.446000000000000230,-6.823400646213879206
0.447000000000000230,-6.749654292221009655
0.448000000000000231,-6.675862093853193180
0.449000000000000232,-6.602035340672673946
0.450000000000000233,-6.528185548578385067
0.451000000000000234,-6.454324443069202388
0.452000000000000235,-6.380463942553619816
0.453000000000000236,-6.306616141737954706
0.454000000000000237,-6.232793295123659760
0.455000000000000238,-6.159007800642021913
0.456000000000000238,-6.085272183453076522
0.457000000000000239,-6.011599079933412249
0.458000000000000240,-5.938001221876218594
0.459000000000000241,-5.864491420924780485
0.460000000000000242,-5.791082553259512267
0.461000000000000243,-5.717787544556614421
0.462000000000000244,-5.644619355235305669
0.463000000000000245,-5.571590966008691304
0.464000000000000246,-5.498715363752497254
0.465000000000000246,-5.426005527704008458
0.466000000000000247,-5.353474416002598879
0.467000000000000248,-5.281134952581838959
0.468000000000000249,-5.209000014422135116
0.469000000000000250,-5.137082419171509429
0.470000000000000251,-5.065394913141271438
0.471000000000000252,-4.993950159682035483
0.472000000000000253,-4.922760727944933024
0.473000000000000254,-4.851839082031465189
0.474000000000000254,-4.781197570534964747
0.475000000000000255,-4.710848416475506006
0.476000000000000256,-4.640803707629469699
0.477000000000000257,-4.571075387254172284
0.478000000000000258,-4.501675245207131582
0.479000000000000259,-4.432614909459107189
0.480000000000000260,-4.363905837999207726
0.481000000000000261,-4.295559311129805380
0.482000000000000262,-4.227586424148572775
0.483000000000000262,-4.159998080414275101
0.484000000000000263,-4.092804984792499212
0.485000000000000264,-4.026017637477157685
0.486000000000000265,-3.959646328183026753
0.487000000000000266,-3.893701130704307900
0.488000000000000267,-3.828191897833773005
0.489000000000000268,-3.763128256636818492
0.490000000000000269,-3.698519604074266276
0.491000000000000270,-3.634375102967771110
0.492000000000000270,-3.570703678301071271
0.493000000000000271,-3.507514013850485668
0.494000000000000272,-3.444814549137560356
0.495000000000000273,-3.382613476696681776
0.496000000000000274,-3.320918739650493556
0.497000000000000275,-3.259738029585448338
0.498000000000000276,-3.199078784720108981
0.499000000000000277,-3.138948188358455127
0.500000000000000222,-3.079353167620417331
0.501000000000000334,-3.020300392441916504
0.502000000000000224,-2.961796274836540732
0.503000000000000336,-2.903846968410845886
0.504000000000000226,-2.846458368125659000
0.505000000000000338,-2.789636110295094618
0.506000000000000227,-2.733385572815844267
0.507000000000000339,-2.677711875618401738
0.508000000000000229,-2.622619881332808323
0.509000000000000341,-2.568114196160717899
0.510000000000000231,-2.514199170946493478
0.511000000000000343,-2.460878902439143978
0.512000000000000233,-2.408157234737964281
0.513000000000000345,-2.356037760913936019
0.514000000000000234,-2.304523824799860954
0.515000000000000346,-2.253618522941390090
0.516000000000000236,-2.203324706702184166
0.517000000000000348,-2.153644984515629801
0.518000000000000238,-2.104581724276427757
0.519000000000000350,-2.056137055864787122
0.520000000000000240,-2.008312873796732401
0.521000000000000352,-1.961110839993602584
0.522000000000000242,-1.914532386664339780
0.523000000000000353,-1.868578719294000878
0.524000000000000243,-1.823250819732345152
0.525000000000000355,-1.778549449376180203
0.526000000000000245,-1.734475152439616918
0.527000000000000357,-1.691028259306111226
0.528000000000000247,-1.648208889956839673
0.529000000000000359,-1.606016957469488249
0.530000000000000249,-1.564452171582271234
0.531000000000000361,-1.523514042317614336
0.532000000000000250,-1.483201883660559384
0.533000000000000362,-1.443514817286591256
0.534000000000000252,-1.404451776334247226
0.535000000000000364,-1.366011509217537112
0.536000000000000254,-1.328192583473769117
0.537000000000000366,-1.290993389642050682
0.538000000000000256,-1.254412145168465331
0.539000000000000368,-1.218446898333363171
0.540000000000000258,-1.183095532197090183
0.541000000000000369,-1.148355768559853773
0.542000000000000259,-1.114225171932320624
0.543000000000000371,-1.080701153512970691
0.544000000000000261,-1.047780975168925099
0.545000000000000373,-1.015461753416714519
0.546000000000000263,-0.983740463399860987
0.547000000000000375,-0.952613942859940055
0.548000000000000265,-0.922078896098425638
0.549000000000000377,-0.892131897926070949
0.550000000000000266,-0.862769397597386023
0.551000000000000378,-0.833987722727335568
0.552000000000000268,-0.805783083187881166
0.553000000000000380,-0.778151574981824301
0.554000000000000270,-0.751089184091797701
0.555000000000000382,-0.724591790302020700
0.556000000000000272,-0.698655170990954644
0.557000000000000384,-0.673275004892626261
0.558000000000000274,-0.648446875825002822
0.559000000000000385,-0.624166276383374741
0.560000000000000275,-0.600428611597302764
0.561000000000000387,-0.577229202549353948
0.562000000000000277,-0.554563289954240646
0.563000000000000389,-0.532426037696901444
0.564000000000000279,-0.510812536328258182
0.565000000000000391,-0.489717806517351584
0.566000000000000281,-0.469136802458761104
0.567000000000000393,-0.449064415234192160
0.568000000000000282,-0.429495476127325748
0.569000000000000394,-0.410424759890870239
0.570000000000000284,-0.391846987965147442
0.571000000000000396,-0.373756831647287624
0.572000000000000286,-0.356148915210484140
0.573000000000000398,-0.339017818972504770
0.574000000000000288,-0.322358082313047967
0.575000000000000400,-0.306164206639364167
0.576000000000000290,-0.290430658299686784
0.577000000000000401,-0.275151871444124896
0.578000000000000291,-0.260322250832682678
0.579000000000000403,-0.245936174590082046
0.580000000000000293,-0.231987996907253580
0.581000000000000405,-0.218472050689232283
0.582000000000000295,-0.205382650149409207
0.583000000000000407,-0.192714093350004612
0.584000000000000297,-0.180460664688770811
0.585000000000000409,-0.168616637331918368
0.586000000000000298,-0.157176275593319315
0.587000000000000410,-0.146133837260082000
0.588000000000000300,-0.135483575864636913
0.589000000000000412,-0.125219742903461828
0.590000000000000302,-0.115336590002693209
0.591000000000000414,-0.105828371030856475
0.592000000000000304,-0.096689344158922538
0.593000000000000416,-0.087913773868042458
0.594000000000000306,-0.079495932905284256
0.595000000000000417,-0.071430104187682003
0.596000000000000307,-0.063710582654988163
0.597000000000000419,-0.056331677071562412
0.598000000000000309,-0.049287711777794216
0.599000000000000421,-0.042573028391462230
0.600000000000000311,-0.036181987459599885
0.601000000000000423,-0.030108970061239283
0.602000000000000313,-0.024348379361636353
0.603000000000000425,-0.018894642118379622
0.604000000000000314,-0.013742210140077793
0.605000000000000426,-0.008885561697998579
0.606000000000000316,-0.004319202891380136
0.607000000000000428,-0.000037668966863133
0.608000000000000318,0.003964474407254332
0.609000000000000430,0.007692629911433904
0.610000000000000320,0.011152167389316575
0.611000000000000432,0.014348422705546704
0.612000000000000322,0.017286696646387642
0.613000000000000433,0.019972253862465244
0.614000000000000323,0.022410321853019680
0.615000000000000435,0.024606089991010383
0.616000000000000325,0.026564708588435605
0.617000000000000437,0.028291288001186309
0.618000000000000327,0.029790897772798086
0.619000000000000439,0.031068565816429840
0.620000000000000329,0.032129277634402417
0.621000000000000441,0.032977975574622009
0.622000000000000330,0.033619558123247725
0.623000000000000442,0.034058879232893816
0.624000000000000332,0.034300747685749179
0.625000000000000444,0.034349926490877390
0.626000000000000334,0.034211132315108653
0.627000000000000446,0.033889034946780243
0.628000000000000336,0.033388256791722790
0.629000000000000448,0.032713372400789129
0.630000000000000338,0.031868908028283738
0.631000000000000449,0.030859341220625384
0.632000000000000339,0.029689100434607707
0.633000000000000451,0.028362564684577918
0.634000000000000341,0.026884063217925802
0.635000000000000453,0.025257875218174242
0.636000000000000343,0.023488229535155402
0.637000000000000455,0.021579304441468012
0.638000000000000345,0.019535227414761859
0.639000000000000457,0.017360074945101354
0.640000000000000346,0.015057872366863867
0.641000000000000458,0.012632593714513396
0.642000000000000348,0.010088161601695660
0.643000000000000460,0.007428447123000365
0.644000000000000350,0.004657269777851164
0.645000000000000462,0.001778397415887167
0.646000000000000352,-0.001204453796687693
0.647000000000000464,-0.004287619390414776
0.648000000000000353,-0.007467486586070798
0.649000000000000465,-0.010740494268930973
0.650000000000000355,-0.014103132944320935
0.651000000000000467,-0.017551944675034143
0.652000000000000357,-0.021083523001126630
0.653000000000000469,-0.024694512842633499
0.654000000000000359,-0.028381610385719257
0.655000000000000471,-0.032141562952770146
0.656000000000000361,-0.035971168856948052
0.657000000000000473,-0.039867277241701006
0.658000000000000362,-0.043826787905709083
0.659000000000000474,-0.047846651113751915
0.660000000000000364,-0.051923867393985523
0.661000000000000476,-0.056055487322088517
0.662000000000000366,-0.060238611292704781
