# CNT15_CYCLOHEXANE-AC
# h[nm],U(h)[kJ/mol]
0.149999999999999994,184.559177093871369379
0.150999999999999995,181.345112128615625124
0.151999999999999996,179.627196521703154986
0.152999999999999997,178.236576897224978211
0.153999999999999998,176.721828615328604428
0.154999999999999999,174.982681337021944046
0.156000000000000000,173.065743543476258992
0.157000000000000001,171.058193994188513898
0.158000000000000002,169.038584308236892184
0.159000000000000002,167.059242859110099744
0.160000000000000003,165.144793013223818434
0.161000000000000004,163.297735585139264458
0.162000000000000005,161.506092456589300355
0.163000000000000006,159.750583396599353136
0.164000000000000007,158.010265569193563806
0.165000000000000008,156.266377028850968145
0.166000000000000009,154.504538322808087969
0.167000000000000010,152.715641259523778217
0.168000000000000010,150.895794269679214494
0.169000000000000011,149.045664237750258962
0.170000000000000012,147.169494385290846594
0.171000000000000013,145.274009375672903843
0.172000000000000014,143.367354424700977233
0.173000000000000015,141.458160511862274689
0.174000000000000016,139.554784631289720664
0.175000000000000017,137.664742106515092246
0.176000000000000018,135.794325961422003957
0.177000000000000018,133.948394418010309437
0.178000000000000019,132.130299964029688908
0.179000000000000020,130.341930441123366791
0.180000000000000021,128.583832834165662007
0.181000000000000022,126.855392753515246795
0.182000000000000023,125.155046112100677647
0.183000000000000024,123.480503556382700481
0.184000000000000025,121.828972354505793874
0.185000000000000026,120.197364371120627879
0.186000000000000026,118.582482280792959273
0.187000000000000027,116.981179194178892544
0.188000000000000028,115.390489360736040680
0.189000000000000029,113.807729579816552246
0.190000000000000030,112.230572437583916212
0.191000000000000031,110.657093545355337483
0.192000000000000032,109.085795648095043475
0.193000000000000033,107.515612863531856647
0.194000000000000034,105.945898463669053058
0.195000000000000034,104.376399576939775216
0.196000000000000035,102.807222019981537642
0.197000000000000036,101.238788204842919072
0.198000000000000037,99.671790745162766711
0.199000000000000038,98.107144031514934568
0.200000000000000039,96.545935683629082291
0.201000000000000040,94.989379432137951653
0.202000000000000041,93.438770646824352184
0.203000000000000042,91.895445420165685846
0.204000000000000042,90.360743839274178413
0.205000000000000043,88.835977838603128021
0.206000000000000044,87.322403820588107237
0.207000000000000045,85.821200060848752855
0.208000000000000046,84.333448776782518053
0.209000000000000047,82.860122630739425631
0.210000000000000048,81.402075358462113286
0.211000000000000049,79.960036156886047820
0.212000000000000050,78.534607429453586747
0.213000000000000050,77.126265468628503186
0.214000000000000051,75.735363651283222453
0.215000000000000052,74.362137730287017234
0.216000000000000053,73.006712822426408138
0.217000000000000054,71.669111716490590425
0.218000000000000055,70.349264153998689153
0.219000000000000056,69.047016766947535871
0.220000000000000057,67.762143390696252254
0.221000000000000058,66.494355504510949118
0.222000000000000058,65.243312586407427034
0.223000000000000059,64.008632202014169366
0.224000000000000060,62.789899678648751546
0.225000000000000061,61.586677245245297740
0.226000000000000062,60.398512545896743120
0.227000000000000063,59.224946459409125055
0.228000000000000064,58.065520179321268301
0.229000000000000065,56.919781528306359064
0.230000000000000066,55.787290497802359823
0.231000000000000066,54.667624018198090141
0.232000000000000067,53.560379977073388602
0.233000000000000068,52.465180513001470786
0.234000000000000069,51.381674620443916979
0.235000000000000070,50.309540107482675353
0.236000000000000071,49.248484952724695063
0.237000000000000072,48.198248110859772453
0.238000000000000073,47.158599818237277645
0.239000000000000073,46.129341450616657028
0.240000000000000074,45.110304985100007968
0.241000000000000075,44.101352117330257840
0.242000000000000076,43.102373083463710657
0.243000000000000077,42.113285234334398410
0.244000000000000078,41.134031406730166225
0.245000000000000079,40.164578133897592238
0.246000000000000080,39.204913734377967671
0.247000000000000081,38.255046315121653322
0.248000000000000081,37.315001721607650609
0.249000000000000082,36.384821464461836626
0.250000000000000111,35.464560648871767512
0.251000000000000112,34.554285929977801572
0.252000000000000113,33.654073514411024348
0.253000000000000114,32.764007225277261171
0.254000000000000115,31.884176645166967035
0.255000000000000115,31.014675349223825407
0.256000000000000116,30.155599237934922030
0.257000000000000117,29.307044977120501272
0.258000000000000118,28.469108550604612873
0.259000000000000119,27.641883929235177675
0.260000000000000120,26.825461858293493833
0.261000000000000121,26.019928763882479217
0.262000000000000122,25.225365777602842599
0.263000000000000123,24.441847877710010550
0.264000000000000123,23.669443143982142885
0.265000000000000124,22.908212122712420467
0.266000000000000125,22.158207297556721471
0.267000000000000126,21.419472661410125625
0.268000000000000127,20.692043384042808185
0.269000000000000128,19.975945569888423847
0.270000000000000129,19.271196100134606155
0.271000000000000130,18.577802553106245398
0.272000000000000131,17.895763196851405041
0.273000000000000131,17.225067047823191757
0.274000000000000132,16.565693989595864366
0.275000000000000133,15.917614945647406088
0.276000000000000134,15.280792100379239074
0.277000000000000135,14.655179162720198605
0.278000000000000136,14.040721666866517126
0.279000000000000137,13.437357304941404124
0.280000000000000138,12.845016286608915479
0.281000000000000139,12.263621720941674909
0.282000000000000139,11.693090016119494834
0.283000000000000140,11.133331292818898106
0.284000000000000141,10.584249807441130642
0.285000000000000142,10.045744381613655349
0.286000000000000143,9.517708834686306574
0.287000000000000144,9.000032416224973630
0.288000000000000145,8.492600235780603413
0.289000000000000146,7.995293687480402589
0.290000000000000147,7.507990867245617039
0.291000000000000147,7.030566980690052148
0.292000000000000148,6.562894739990113635
0.293000000000000149,6.104844748244467212
0.294000000000000150,5.656285870053984866
0.295000000000000151,5.217085587255146706
0.296000000000000152,4.787110338928145303
0.297000000000000153,4.366225844977821069
0.298000000000000154,3.954297412748368323
0.299000000000000155,3.551190226284577811
0.300000000000000155,3.156769617990859533
0.301000000000000156,2.770901322566865943
0.302000000000000157,2.393451713213327281
0.303000000000000158,2.024288020207097194
0.304000000000000159,1.663278532037496760
0.305000000000000160,1.310292779380068051
0.306000000000000161,0.965201702257761696
0.307000000000000162,0.627877800804227171
0.308000000000000163,0.298195270100339638
0.309000000000000163,-0.023969880396948452
0.310000000000000164,-0.338739722273933785
0.311000000000000165,-0.646234317834528560
0.312000000000000166,-0.946571643409819252
0.313000000000000167,-1.239867525662061265
0.314000000000000168,-1.526235590227019490
0.315000000000000169,-1.805787222028528261
0.316000000000000170,-2.078631536593690043
0.317000000000000171,-2.344875361695539784
0.318000000000000171,-2.604623228652785727
0.319000000000000172,-2.857977372622240608
0.320000000000000173,-3.105037741228165338
0.321000000000000174,-3.345902010884659994
0.322000000000000175,-3.580665610181321679
0.323000000000000176,-3.809421749718137740
0.324000000000000177,-4.032261457793838488
0.325000000000000178,-4.249273621370628362
0.326000000000000179,-4.460545031759609813
0.327000000000000179,-4.666160434491870568
0.328000000000000180,-4.866202582863195403
0.329000000000000181,-5.060752294663105388
0.330000000000000182,-5.249888511622097020
0.331000000000000183,-5.433688361135073031
0.332000000000000184,-5.612227219842125692
0.333000000000000185,-5.785578778671938593
0.334000000000000186,-5.953815108976526993
0.335000000000000187,-6.117006729409276033
0.336000000000000187,-6.275222673221556136
0.337000000000000188,-6.428530555675061819
0.338000000000000189,-6.576996641289940548
0.339000000000000190,-6.720685910669726759
0.340000000000000191,-6.859662126664963111
0.341000000000000192,-6.993987899657990503
0.342000000000000193,-7.123724751770576624
0.343000000000000194,-7.248933179815201910
0.344000000000000195,-7.369672716828253201
0.345000000000000195,-7.486001992041740216
0.346000000000000196,-7.597978789165455105
0.347000000000000197,-7.705660102868199246
0.348000000000000198,-7.809102193361184163
0.349000000000000199,-7.908360639000936665
0.350000000000000200,-8.003490386842662119
0.351000000000000201,-8.094545801087358328
0.352000000000000202,-8.181580709377991312
0.353000000000000203,-8.264648446911248669
0.354000000000000203,-8.343801898341780543
0.355000000000000204,-8.419093537465155208
0.356000000000000205,-8.490575464675410799
0.357000000000000206,-8.558299442201107610
0.358000000000000207,-8.622316927131103981
0.359000000000000208,-8.682679102249114322
0.360000000000000209,-8.739436904702037268
0.361000000000000210,-8.792641052533001655
0.362000000000000210,-8.842342069115648684
0.363000000000000211,-8.888590305530705393
0.364000000000000212,-8.931435960930500073
0.365000000000000213,-8.970929100940622902
0.366000000000000214,-9.007119674151583766
0.367000000000000215,-9.040057526755969519
0.368000000000000216,-9.069792415389555273
0.369000000000000217,-9.096374018236515369
0.370000000000000218,-9.119851944461155213
0.371000000000000218,-9.140275742029526640
0.372000000000000219,-9.157694903985973411
0.373000000000000220,-9.172158873250143785
0.374000000000000221,-9.183717046000715811
0.375000000000000222,-9.192418773712153879
0.376000000000000223,-9.198313363911541529
0.377000000000000224,-9.201450079721578135
0.378000000000000225,-9.201878138255992212
0.379000000000000226,-9.199646707932972234
0.380000000000000226,-9.194804904771679332
0.381000000000000227,-9.187401787735486991
0.382000000000000228,-9.177486353185555501
0.383000000000000229,-9.165107528506281298
0.384000000000000230,-9.150314164963438301
0.385000000000000231,-9.133155029854659546
0.386000000000000232,-9.113678798009861026
0.387000000000000233,-9.091934042698467167
0.388000000000000234,-9.067969225998071536
0.389000000000000234,-9.041832688678121954
0.390000000000000235,-9.013572639650096363
0.391000000000000236,-8.983237145034252080
0.392000000000000237,-8.950874116891105459
0.393000000000000238,-8.916531301664216258
0.394000000000000239,-8.880256268378808215
0.395000000000000240,-8.842096396639350431
0.396000000000000241,-8.802098864467149397
0.397000000000000242,-8.760310636017187846
0.398000000000000242,-8.716778449212078783
0.399000000000000243,-8.671548803328628097
0.400000000000000244,-8.624667946571266341
0.401000000000000245,-8.576181863664697147
0.402000000000000246,-8.526136263496235657
0.403000000000000247,-8.474576566836896419
0.404000000000000248,-8.421547894168561754
0.405000000000000249,-8.367095053642810143
0.406000000000000250,-8.311262529195527549
0.407000000000000250,-8.254094468839877408
0.408000000000000251,-8.195634673158611605
0.409000000000000252,-8.135926584015303220
0.410000000000000253,-8.075013273502630540
0.411000000000000254,-8.012937433144385224
0.412000000000000255,-7.949741363366636726
0.413000000000000256,-7.885466963252184769
0.414000000000000257,-7.820155720590882709
0.415000000000000258,-7.753848702237735147
0.416000000000000258,-7.686586544788904796
0.417000000000000259,-7.618409445585084150
0.418000000000000260,-7.549357154050335694
0.419000000000000261,-7.479468963373591350
0.420000000000000262,-7.408783702538883631
0.421000000000000263,-7.337339728709653563
0.422000000000000264,-7.265174919971189915
0.423000000000000265,-7.192326668434697368
0.424000000000000266,-7.118831873705689262
0.425000000000000266,-7.044726936718160637
0.426000000000000267,-6.970047753935863177
0.427000000000000268,-6.894829711920785087
0.428000000000000269,-6.819107682268513493
0.429000000000000270,-6.742916016909573429
0.430000000000000271,-6.666288543774870234
0.431000000000000272,-6.589258562823346210
0.432000000000000273,-6.511858842428893013
0.433000000000000274,-6.434121616123500864
0.434000000000000274,-6.356078579692741037
0.435000000000000275,-6.277760888619694057
0.436000000000000276,-6.199199155872660683
0.437000000000000277,-6.120423450031752921
0.438000000000000278,-6.041463293749187002
0.439000000000000279,-5.962347662537730741
0.440000000000000280,-5.883104983881311867
0.441000000000000281,-5.803763136661830302
0.442000000000000282,-5.724349450895752867
0.443000000000000282,-5.644890707773810412
0.444000000000000283,-5.565413139997211545
0.445000000000000284,-5.485942432403260405
0.446000000000000285,-5.406503722873236661
0.447000000000000286,-5.327121603515591275
0.448000000000000287,-5.247820122116654495
0.449000000000000288,-5.168622783851845703
0.450000000000000289,-5.089552553249498956
0.451000000000000290,-5.010631856399916373
0.452000000000000290,-4.931882583401977271
0.453000000000000291,-4.853326091039511070
0.454000000000000292,-4.774983205679904863
0.455000000000000293,-4.696874226387065754
0.456000000000000294,-4.619018928241183986
0.457000000000000295,-4.541436565857567942
0.458000000000000296,-4.464145877096830972
0.459000000000000297,-4.387165086958952465
0.460000000000000298,-4.310511911653479800
0.461000000000000298,-4.234203562838581902
0.462000000000000299,-4.158256752021289415
0.463000000000000300,-4.082687695111688164
0.464000000000000301,-4.007512117123755324
0.465000000000000302,-3.932745257015698659
0.466000000000000303,-3.858401872662503340
0.467000000000000304,-3.784496245953942406
0.468000000000000305,-3.711042188010996945
0.469000000000000306,-3.638053044513855916
0.470000000000000306,-3.565541701135086505
0.471000000000000307,-3.493520589071022364
0.472000000000000308,-3.422001690665332774
0.473000000000000309,-3.350996545118178460
0.474000000000000310,-3.280516254274995269
0.475000000000000311,-3.210571488488584979
0.476000000000000312,-3.141172492549029194
0.477000000000000313,-3.072329091675140234
0.478000000000000314,-3.004050697562167471
0.479000000000000314,-2.936346314480174691
0.480000000000000315,-2.869224545417572436
0.481000000000000316,-2.802693598264816899
0.482000000000000317,-2.736761292032948045
0.483000000000000318,-2.671435063102201468
0.484000000000000319,-2.606721971495743695
0.485000000000000320,-2.542628707173983926
0.486000000000000321,-2.479161596344821028
0.487000000000000322,-2.416326607785530989
0.488000000000000322,-2.354129359171851288
0.489000000000000323,-2.292575123410457216
0.490000000000000324,-2.231668834970522486
0.491000000000000325,-2.171415096210723483
0.492000000000000326,-2.111818183697813822
0.493000000000000327,-2.052882054513369248
0.494000000000000328,-1.994610352545066245
0.495000000000000329,-1.937006414759277817
0.496000000000000330,-1.880073277451721481
0.497000000000000330,-1.823813682473168996
0.498000000000000331,-1.768230083427090538
0.499000000000000332,-1.713324651836678258
0.500000000000000333,-1.659099283278273829
0.501000000000000334,-1.605555603478690641
0.502000000000000335,-1.552694974374041026
0.503000000000000336,-1.500518500127591137
0.504000000000000337,-1.449027033104403728
0.505000000000000338,-1.398221179800667846
0.506000000000000338,-1.348101306725651094
0.507000000000000339,-1.298667546234289816
0.508000000000000340,-1.249919802308620209
0.509000000000000341,-1.201857756286387691
0.510000000000000342,-1.154480872535020186
0.511000000000000343,-1.107788404069584676
0.512000000000000344,-1.061779398113160688
0.513000000000000345,-1.016452701598340669
0.514000000000000346,-0.971806966608561473
0.515000000000000346,-0.927840655758043531
0.516000000000000347,-0.884552047509243322
0.517000000000000348,-0.841939241426894247
0.518000000000000349,-0.800000163367464490
0.519000000000000350,-0.758732570603420697
0.520000000000000351,-0.718134056881279292
0.521000000000000352,-0.678202057412899073
0.522000000000000353,-0.638933853799230400
0.523000000000000353,-0.600326578885954754
0.524000000000000354,-0.562377221550603434
0.525000000000000355,-0.525082631420525026
0.526000000000000356,-0.488439523521409513
0.527000000000000357,-0.452444482856089514
0.528000000000000358,-0.417093968913086144
0.529000000000000359,-0.382384320105055908
0.530000000000000360,-0.348311758136569172
0.531000000000000361,-0.314872392301409787
0.532000000000000361,-0.282062223709105719
0.533000000000000362,-0.249877149440847157
0.534000000000000363,-0.218312966634638339
0.535000000000000364,-0.187365376499884773
0.536000000000000365,-0.157029988261452258
0.537000000000000366,-0.127302323033383902
0.538000000000000367,-0.098177817622375499
0.539000000000000368,-0.069651828261421356
0.540000000000000369,-0.041719634273616052
0.541000000000000369,-0.014376441666700846
0.542000000000000370,0.012382613341568904
0.543000000000000371,0.038562460866730153
0.544000000000000372,0.064168093969246540
0.545000000000000373,0.089204565334053451
0.546000000000000374,0.113676984017617680
0.547000000000000375,0.137590512261969833
0.548000000000000376,0.160950362375251899
0.549000000000000377,0.183761793678280133
0.550000000000000377,0.206030109516591869
0.551000000000000378,0.227760654337379215
0.552000000000000379,0.248958810830773647
0.553000000000000380,0.269629997134867405
0.554000000000000381,0.289779664103906043
0.555000000000000382,0.309413292638922532
0.556000000000000383,0.328536391080334667
0.557000000000000384,0.347154492661652769
0.558000000000000385,0.365273153023844388
0.559000000000000385,0.382897947789478110
0.560000000000000386,0.400034470196106884
0.561000000000000387,0.416688328788102802
0.562000000000000388,0.432865145166281384
0.563000000000000389,0.448570551794559846
0.564000000000000390,0.463810189862959965
0.565000000000000391,0.478589707206196202
0.566000000000000392,0.492914756277156640
0.567000000000000393,0.506790992174424915
0.568000000000000393,0.520224070723255716
0.569000000000000394,0.533219646609112474
0.570000000000000395,0.545783371563082098
0.571000000000000396,0.557920892598397833
0.572000000000000397,0.569637850297273873
0.573000000000000398,0.580939877147386374
0.574000000000000399,0.591832595927072602
0.575000000000000400,0.602321618138694781
0.576000000000000401,0.612412542489232381
0.577000000000000401,0.622110953417392420
0.578000000000000402,0.631422419666525125
0.579000000000000403,0.640352492902561243
0.580000000000000404,0.648906706376127795
0.581000000000000405,0.657090573628236974
0.582000000000000406,0.664909587238667443
0.583000000000000407,0.672369217616346826
0.584000000000000408,0.679474911830998396
0.585000000000000409,0.686232092485264733
0.586000000000000409,0.692646156626600340
0.587000000000000410,0.698722474698191154
0.588000000000000411,0.704466389528190406
0.589000000000000412,0.709883215356482244
0.590000000000000413,0.714978236898348163
0.591000000000000414,0.719756708444243443
0.592000000000000415,0.724223852994997808
0.593000000000000416,0.728384861431757402
0.594000000000000417,0.732244891719975199
0.595000000000000417,0.735809068146656808
0.596000000000000418,0.739082480590378288
0.597000000000000419,0.742070183823178242
0.598000000000000420,0.744777196843819822
0.599000000000000421,0.747208502241659689
0.600000000000000422,0.749369045590513094
0.601000000000000423,0.751263734871856492
0.602000000000000424,0.752897439926715428
0.603000000000000425,0.754274991935604433
0.604000000000000425,0.755401182925905523
0.605000000000000426,0.756280765306071578
0.606000000000000427,0.756918451425942718
0.607000000000000428,0.757318913162818630
0.608000000000000429,0.757486781532296649
0.609000000000000430,0.757426646323759778
0.610000000000000431,0.757143055759483707
0.611000000000000432,0.756640516177096600
0.612000000000000433,0.755923491734738162
0.613000000000000433,0.754996404138259303
0.614000000000000434,0.753863632390069149
