# CNT15_PROPAN2OL-AC
# h[nm],U(h)[kJ/mol]
0.149999999999999994,144.384789915096149571
0.150999999999999995,141.977815688966472862
0.151999999999999996,140.315395007343738598
0.152999999999999997,138.818427641406344719
0.153999999999999998,137.258141352169616312
0.154999999999999999,135.580928828582727874
0.156000000000000000,133.808887898654234050
0.157000000000000001,131.986850244027436929
0.158000000000000002,130.157004456693670136
0.159000000000000002,128.349137104384368513
0.160000000000000003,126.579093680779322995
0.161000000000000004,124.851044478593422582
0.162000000000000005,123.161046966273403314
0.163000000000000006,121.500584729626481817
0.164000000000000007,119.859479515060712629
0.165000000000000008,118.227984690167360782
0.166000000000000009,116.598088042565080968
0.167000000000000010,114.964153945138349400
0.168000000000000010,113.323068273374218506
0.169000000000000011,111.674045229536162083
0.170000000000000012,110.018232781909688356
0.171000000000000013,108.358224352411838254
0.172000000000000014,106.697555221608396891
0.173000000000000015,105.040236211052999238
0.174000000000000016,103.390355937011506171
0.175000000000000017,101.751766553306254082
0.176000000000000018,100.127856043127351882
0.177000000000000018,98.521402120539690372
0.178000000000000019,96.934497912078697368
0.179000000000000020,95.368537079659716937
0.180000000000000021,93.824245270840663125
0.181000000000000022,92.301745198432882944
0.182000000000000023,90.800643823910291985
0.183000000000000024,89.320131714130994283
0.184000000000000025,87.859086412616420603
0.185000000000000026,86.416173442270121541
0.186000000000000026,84.989940221828376821
0.187000000000000027,83.578899664717340556
0.188000000000000028,82.181601501404173860
0.189000000000000029,80.796690414147974479
0.190000000000000030,79.422950902319257693
0.191000000000000031,78.059339423868365770
0.192000000000000032,76.705004806956907260
0.193000000000000033,75.359298220909835209
0.194000000000000034,74.021774163690011505
0.195000000000000034,72.692183989130896293
0.196000000000000035,71.370463484202645077
0.197000000000000036,70.056715935018701202
0.198000000000000037,68.751192007634784886
0.199000000000000038,67.454267630613770734
0.200000000000000039,66.166420912752798245
0.201000000000000040,64.888208970729095881
0.202000000000000041,63.620245384934641208
0.203000000000000042,62.363178852742962022
0.204000000000000042,61.117673470564930938
0.205000000000000043,59.884390951669182357
0.206000000000000044,58.663974977135907807
0.207000000000000045,57.457037782933447545
0.208000000000000046,56.264149006745711290
0.209000000000000047,55.085826753171446057
0.210000000000000048,53.922530784264765202
0.211000000000000049,52.774657702888511324
0.212000000000000050,51.642537967679871258
0.213000000000000050,50.526434559225556598
0.214000000000000051,49.426543105949612311
0.215000000000000052,48.342993273937231891
0.216000000000000053,47.275851226234678393
0.217000000000000054,46.225122962956589845
0.218000000000000055,45.190758362797325276
0.219000000000000056,44.172655758387826097
0.220000000000000057,43.170666891586655822
0.221000000000000058,42.184602109586840868
0.222000000000000058,41.214235678088940062
0.223000000000000059,40.259311103285192246
0.224000000000000060,39.319546369639937211
0.225000000000000061,38.394639015147198791
0.226000000000000062,37.484270979674931823
0.227000000000000063,36.588113175003101674
0.228000000000000064,35.705829737121234757
0.229000000000000065,34.837081932202771384
0.230000000000000066,33.981531697390792601
0.231000000000000066,33.138844806111137586
0.232000000000000067,32.308693655101038189
0.233000000000000068,31.490759676744932705
0.234000000000000069,30.684735385701952026
0.235000000000000070,29.890326073258098205
0.236000000000000071,29.107251166415021970
0.237000000000000072,28.335245271508920695
0.238000000000000073,27.574058924223244560
0.239000000000000073,26.823459069289640411
0.240000000000000074,26.083229294040638280
0.241000000000000075,25.353169840360827436
0.242000000000000076,24.633097419547144824
0.243000000000000077,23.922844854198636710
0.244000000000000078,23.222260570573872940
0.245000000000000079,22.531207963932025962
0.246000000000000080,21.849564658265041572
0.247000000000000081,21.177221680573058649
0.248000000000000081,20.514082568478755775
0.249000000000000082,19.860062428549017710
0.250000000000000111,19.215086961227083151
0.251000000000000112,18.579091466800559118
0.252000000000000113,17.952019845361597561
0.253000000000000114,17.333823602277441012
0.254000000000000115,16.724460869291320364
0.255000000000000115,16.123895450034723353
0.256000000000000116,15.532095897456070333
0.257000000000000117,14.949034629468439306
0.258000000000000118,14.374687087994928447
0.259000000000000119,13.809030945545917035
0.260000000000000120,13.252045362501425174
0.261000000000000121,12.703710297394531281
0.262000000000000122,12.164005871695394490
0.263000000000000123,11.632911789881303477
0.264000000000000123,11.110406814940688491
0.265000000000000124,10.596468298897674387
0.266000000000000125,10.091071767453389185
0.267000000000000126,9.594190557417649146
0.268000000000000127,9.105795505244985932
0.269000000000000128,8.625854684689318930
0.270000000000000129,8.154333191345935816
0.271000000000000130,7.691192971653698862
0.272000000000000131,7.236392693781985130
0.273000000000000131,6.789887657718287173
0.274000000000000132,6.351629741802975460
0.275000000000000133,5.921567382920490452
0.276000000000000134,5.499645587549292891
0.277000000000000135,5.085805970892673500
0.278000000000000136,4.679986821353362636
0.279000000000000137,4.282123187676765141
0.280000000000000138,3.892146986165808009
0.281000000000000139,3.509987125461446311
0.282000000000000139,3.135569646486689344
0.283000000000000140,2.768817875263695605
0.284000000000000141,2.409652586432890153
0.285000000000000142,2.057992175427133752
0.286000000000000143,1.713752837381593563
0.287000000000000144,1.376848750989761339
0.288000000000000145,1.047192265645475295
0.289000000000000146,0.724694090341401975
0.290000000000000147,0.409263482921111421
0.291000000000000147,0.100808438408406878
0.292000000000000148,-0.200764124741224403
0.293000000000000149,-0.495548181502826979
0.294000000000000150,-0.783638421180485101
0.295000000000000151,-1.065130073154914925
0.296000000000000152,-1.340118738189134184
0.297000000000000153,-1.608700225902021996
0.298000000000000154,-1.870970398926615541
0.299000000000000155,-2.127025024181900648
0.300000000000000155,-2.376959631604961931
0.301000000000000156,-2.620869380613580546
0.302000000000000157,-2.858848934498947170
0.303000000000000158,-3.090992342882167065
0.304000000000000159,-3.317392932308667497
0.305000000000000160,-3.538143204999488312
0.306000000000000161,-3.753334745728858390
0.307000000000000162,-3.963058136752585447
0.308000000000000163,-4.167402880671431831
0.309000000000000163,-4.366457331077967297
0.310000000000000164,-4.560308630803967311
0.311000000000000165,-4.749042657557691172
0.312000000000000166,-4.932743976716831291
0.313000000000000167,-5.111495801022639895
0.314000000000000168,-5.285379956903782706
0.315000000000000169,-5.454476857144821444
0.316000000000000170,-5.618865479603326385
0.317000000000000171,-5.778623351671084762
0.318000000000000171,-5.933826540169299335
0.319000000000000172,-6.084549646364076025
0.320000000000000173,-6.230865805786701017
0.321000000000000174,-6.372846692543641112
0.322000000000000175,-6.510562527803223531
0.323000000000000176,-6.644082092149187879
0.324000000000000177,-6.773472741496311400
0.325000000000000178,-6.898800426268884678
0.326000000000000179,-7.020129713550393724
0.327000000000000179,-7.137523811919924910
0.328000000000000180,-7.251044598700017829
0.329000000000000181,-7.360752649349729282
0.330000000000000182,-7.466707268746420212
0.331000000000000183,-7.568966524110375182
0.332000000000000184,-7.667587279336572692
0.333000000000000185,-7.762625230509003771
0.334000000000000186,-7.854134942384011886
0.335000000000000187,-7.942169885640089078
0.336000000000000187,-8.026782474703004766
0.337000000000000188,-8.108024105965899508
0.338000000000000189,-8.185945196235485000
0.339000000000000190,-8.260595221246273212
0.340000000000000191,-8.332022754095364192
0.341000000000000192,-8.400275503461212878
0.342000000000000193,-8.465400351480003138
0.343000000000000194,-8.527443391163421538
0.344000000000000195,-8.586449963251073569
0.345000000000000195,-8.642464692401077286
0.346000000000000196,-8.695531522630520982
0.347000000000000197,-8.745693751927127835
0.348000000000000198,-8.792994065961556416
0.349000000000000199,-8.837474570837873244
0.350000000000000200,-8.879176824827741399
0.351000000000000201,-8.918141869040995928
0.352000000000000202,-8.954410256992435535
0.353000000000000203,-8.988022083031300014
0.354000000000000203,-9.019017009606290713
0.355000000000000204,-9.047434293344602807
0.356000000000000205,-9.073312809929435119
0.357000000000000206,-9.096691077765516553
0.358000000000000207,-9.117607280426771155
0.359000000000000208,-9.136099287885352638
0.360000000000000209,-9.152204676525068194
0.361000000000000210,-9.165960747946281018
0.362000000000000210,-9.177404546573015409
0.363000000000000211,-9.186572876076166239
0.364000000000000212,-9.193502314630014993
0.365000000000000213,-9.198229229021581688
0.366000000000000214,-9.200789787635308414
0.367000000000000215,-9.201219972337334241
0.368000000000000216,-9.199555589286136481
0.369000000000000217,-9.195832278697508855
0.370000000000000218,-9.190085523593992889
0.371000000000000218,-9.182350657569646302
0.372000000000000219,-9.172662871602671686
0.373000000000000220,-9.161057219949134023
0.374000000000000221,-9.147568625151867749
0.375000000000000222,-9.132231882199155493
0.376000000000000223,-9.115081661868600804
0.377000000000000224,-9.096152513291578146
0.378000000000000225,-9.075478865774012860
0.379000000000000226,-9.053095029909268732
0.380000000000000226,-9.029035198019110808
0.381000000000000227,-9.003333443958048576
0.382000000000000228,-8.976023722316806897
0.383000000000000229,-8.947139867059744844
0.384000000000000230,-8.916715589630900496
0.385000000000000231,-8.884784476563027056
0.386000000000000232,-8.851379986622919915
0.387000000000000233,-8.816535447526318237
0.388000000000000234,-8.780284052254446081
0.389000000000000234,-8.742658855004020069
0.390000000000000235,-8.703692766801394143
0.391000000000000236,-8.663418550810952468
0.392000000000000237,-8.621868817366911131
0.393000000000000238,-8.579076018756961020
0.394000000000000239,-8.535072443785006513
0.395000000000000240,-8.489890212139801662
0.396000000000000241,-8.443561268594914182
0.397000000000000242,-8.396117377064767240
0.398000000000000242,-8.347590114540626161
0.399000000000000243,-8.298010864929157293
0.400000000000000244,-8.247410812815566317
0.401000000000000245,-8.195820937172268117
0.402000000000000246,-8.143272005032896388
0.403000000000000247,-8.089794565150921102
0.404000000000000248,-8.035418941660845249
0.405000000000000249,-7.980175227759287893
0.406000000000000250,-7.924093279422184999
0.407000000000000250,-7.867202709173587216
0.408000000000000251,-7.809532879920531911
0.409000000000000252,-7.751112898867733136
0.410000000000000253,-7.691971611524882846
0.411000000000000254,-7.632137595818599962
0.412000000000000255,-7.571639156320190800
0.413000000000000256,-7.510504318599778628
0.414000000000000257,-7.448760823716236601
0.415000000000000258,-7.386436122852105157
0.416000000000000258,-7.323557372101475949
0.417000000000000259,-7.260151427418496617
0.418000000000000260,-7.196244839733216381
0.419000000000000261,-7.131863850241016323
0.420000000000000262,-7.067034385871127533
0.421000000000000263,-7.001782054939202915
0.422000000000000264,-6.936132142988268079
0.423000000000000265,-6.870109608821787006
0.424000000000000266,-6.803739080732285061
0.425000000000000266,-6.737044852927995819
0.426000000000000267,-6.670050882159976879
0.427000000000000268,-6.602780784551368853
0.428000000000000269,-6.535257832630078312
0.429000000000000270,-6.467504952565927390
0.430000000000000271,-6.399544721612512532
0.431000000000000272,-6.331399365754061925
0.432000000000000273,-6.263090757556890154
0.433000000000000274,-6.194640414224916292
0.434000000000000274,-6.126069495858145864
0.435000000000000275,-6.057398803913015328
0.436000000000000276,-5.988648779862959515
0.437000000000000277,-5.919839504057291535
0.438000000000000278,-5.850990694776479373
0.439000000000000279,-5.782121707481352679
0.440000000000000280,-5.713251534253722674
0.441000000000000281,-5.644398803425669797
0.442000000000000282,-5.575581779394585880
0.443000000000000282,-5.506818362620714780
0.444000000000000283,-5.438126089804059760
0.445000000000000284,-5.369522134237138644
0.446000000000000285,-5.301023306329900819
0.447000000000000286,-5.232646054303417671
0.448000000000000287,-5.164406465048141825
0.449000000000000288,-5.096320265143175376
0.450000000000000289,-5.028402822032303376
0.451000000000000290,-4.960669145352857079
0.452000000000000290,-4.893133888413245813
0.453000000000000291,-4.825811349814898676
0.454000000000000292,-4.758715475214478019
0.455000000000000293,-4.691859859221957585
0.456000000000000294,-4.625257747430378430
0.457000000000000295,-4.558922038572899460
0.458000000000000296,-4.492865286802742553
0.459000000000000297,-4.427099704091812526
0.460000000000000298,-4.361637162743475571
0.461000000000000298,-4.296489198015331468
0.462000000000000299,-4.231667010847521837
0.463000000000000300,-4.167181470692264078
0.464000000000000301,-4.103043118440416137
0.465000000000000302,-4.039262169440798189
0.466000000000000303,-3.975848516607907612
0.467000000000000304,-3.912811733614049992
0.468000000000000305,-3.850161078161625117
0.469000000000000306,-3.787905495331450823
0.470000000000000306,-3.726053621003264205
0.471000000000000307,-3.664613785344120966
0.472000000000000308,-3.603594016361076235
0.473000000000000309,-3.543002043514015931
0.474000000000000310,-3.482845301385039338
0.475000000000000311,-3.423130933400427178
0.476000000000000312,-3.363865795601846287
0.477000000000000313,-3.305056460462781676
0.478000000000000314,-3.246709220746974101
0.479000000000000314,-3.188830093405306876
0.480000000000000315,-3.131424823507651389
0.481000000000000316,-3.074498888206538716
0.482000000000000317,-3.018057500729239617
0.483000000000000318,-2.962105614395220687
0.484000000000000319,-2.906647926655795633
0.485000000000000320,-2.851688883153056242
0.486000000000000321,-2.797232681795054354
0.487000000000000322,-2.743283276844479701
0.488000000000000322,-2.689844383017910623
0.489000000000000323,-2.636919479593166749
0.490000000000000324,-2.584511814521922357
0.491000000000000325,-2.532624408545192995
0.492000000000000326,-2.481260059309096544
0.493000000000000327,-2.430421345478679385
0.494000000000000328,-2.380110630847326991
0.495000000000000329,-2.330330068439638858
0.496000000000000330,-2.281081604605545543
0.497000000000000330,-2.232366983103656555
0.498000000000000331,-2.184187749171695891
0.499000000000000332,-2.136545253582311066
0.500000000000000333,-2.089440656682180819
0.501000000000000334,-2.042874932412706013
0.502000000000000335,-1.996848872310621914
0.503000000000000336,-1.951363089486815472
0.504000000000000337,-1.906418022581760408
0.505000000000000338,-1.862013939696102849
0.506000000000000338,-1.818150942294935124
0.507000000000000339,-1.774828969084315089
0.508000000000000340,-1.732047799858780435
0.509000000000000341,-1.689807059318627180
0.510000000000000342,-1.648106220855635851
0.511000000000000343,-1.606944610306235477
0.512000000000000344,-1.566321409670943243
0.513000000000000345,-1.526235660799114324
0.514000000000000346,-1.486686269038032693
0.515000000000000346,-1.447672006845396098
0.516000000000000347,-1.409191517364367208
0.517000000000000348,-1.371243317960458397
0.518000000000000349,-1.333825803719331571
0.519000000000000350,-1.296937250905014993
0.520000000000000351,-1.260575820377717982
0.521000000000000352,-1.224739560970774521
0.522000000000000353,-1.189426412826055213
0.523000000000000353,-1.154634210687372375
0.524000000000000354,-1.120360687151469081
0.525000000000000355,-1.086603475876051661
0.526000000000000356,-1.053360114744561926
0.527000000000000357,-1.020628048987389791
0.528000000000000358,-0.988404634259007708
0.529000000000000359,-0.956687139671091424
0.530000000000000360,-0.925472750781054954
0.531000000000000361,-0.894758572536065500
0.532000000000000361,-0.864541632172194818
0.533000000000000362,-0.834818882068718127
0.534000000000000363,-0.805587202557348725
0.535000000000000364,-0.776843404686407224
0.536000000000000365,-0.748584232939875971
0.537000000000000366,-0.720806367911326240
0.538000000000000367,-0.693506428932693320
0.539000000000000368,-0.666680976658074465
0.540000000000000369,-0.640326515602414714
0.541000000000000369,-0.614439496635409643
0.542000000000000370,-0.589016319430539115
0.543000000000000371,-0.564053334869493939
0.544000000000000372,-0.539546847402126883
0.545000000000000373,-0.515493117362117115
0.546000000000000374,-0.491888363238501103
0.547000000000000375,-0.468728763903366819
0.548000000000000376,-0.446010460795919994
0.549000000000000377,-0.423729560063167643
0.550000000000000377,-0.401882134657481849
0.551000000000000378,-0.380464226391388161
0.552000000000000379,-0.359471847949819900
0.553000000000000380,-0.338900984860204313
0.554000000000000381,-0.318747597420657114
0.555000000000000382,-0.299007622586722310
0.556000000000000383,-0.279676975816870177
0.557000000000000384,-0.260751552877306003
0.558000000000000385,-0.242227231606264887
0.559000000000000385,-0.224099873638361036
0.560000000000000386,-0.206365326089261447
0.561000000000000387,-0.189019423201159803
0.562000000000000388,-0.172057987949428698
0.563000000000000389,-0.155476833610897647
0.564000000000000390,-0.139271765294161826
0.565000000000000391,-0.123438581432375891
0.566000000000000392,-0.107973075238943811
0.567000000000000393,-0.092871036126613599
0.568000000000000393,-0.078128251090341341
0.569000000000000394,-0.063740506054450044
0.570000000000000395,-0.049703587184518561
0.571000000000000396,-0.036013282164438679
0.572000000000000397,-0.022665381439187039
0.573000000000000398,-0.009655679423645289
0.574000000000000399,0.003020024321886308
0.575000000000000400,0.015365923949189680
0.576000000000000401,0.027386206212032572
0.577000000000000401,0.039085049388032006
0.578000000000000402,0.050466622232053303
0.579000000000000403,0.061535082960634535
0.580000000000000404,0.072294578266887857
0.581000000000000405,0.082749242365541015
0.582000000000000406,0.092903196067513849
0.583000000000000407,0.102760545883619131
0.584000000000000408,0.112325383156901062
0.585000000000000409,0.121601783223119625
0.586000000000000409,0.130593804598923835
0.587000000000000410,0.139305488197228017
0.588000000000000411,0.147740856569343604
0.589000000000000412,0.155903913173352782
0.590000000000000413,0.163798641668325168
0.591000000000000414,0.171429005233852849
0.592000000000000415,0.178798945914456220
0.593000000000000416,0.185912383988443092
0.594000000000000417,0.192773217360720672
0.595000000000000417,0.199385320979086261
0.596000000000000418,0.205752546273658909
0.597000000000000419,0.211878720618850824
0.598000000000000420,0.217767646817580512
0.599000000000000421,0.223423102607179430
0.600000000000000422,0.228848840186632790
0.601000000000000423,0.234048585764682071
0.602000000000000424,0.239026039128374224
0.603000000000000425,0.243784873231640692
0.604000000000000425,0.248328733803473062
0.605000000000000426,0.252661238975323665
0.606000000000000427,0.256785978927208447
0.607000000000000428,0.260706515552323714
0.608000000000000429,0.264426382139456684
0.609000000000000430,0.267949083073175998
0.610000000000000431,0.271278093551034050
0.611000000000000432,0.274416859317670903
0.612000000000000433,0.277368796415334795
0.613000000000000433,0.280137290950379980
0.614000000000000434,0.282725698875489928
