# CNT15_METHOXYMETHANE-AC
# h[nm],U(h)[kJ/mol]
0.149999999999999994,125.197147621148275221
0.150999999999999995,122.437830717664269287
0.151999999999999996,120.964943906350384850
0.152999999999999997,119.759673222898186395
0.153999999999999998,118.445128916770840988
0.154999999999999999,116.948741637983786745
0.156000000000000000,115.318816199665732825
0.157000000000000001,113.632265029822377755
0.158000000000000002,111.954107569559781155
0.159000000000000002,110.324660159220414357
0.160000000000000003,108.760172011472604936
0.161000000000000004,107.258844637422697588
0.162000000000000005,105.807965299733538700
0.163000000000000006,104.390138138343630203
0.164000000000000007,102.987874947603742726
0.165000000000000008,101.586483584607805142
0.166000000000000009,100.175507481058303938
0.167000000000000010,98.749078988502262177
0.168000000000000010,97.305548520776184773
0.169000000000000011,95.846698881558808125
0.170000000000000012,94.376783531026504193
0.171000000000000013,92.901557185435052588
0.172000000000000014,91.427405934408852772
0.173000000000000015,89.960635303842622079
0.174000000000000016,88.506938585627864313
0.175000000000000017,87.071042932574471251
0.176000000000000018,85.656515172286816551
0.177000000000000018,84.265700911542865015
0.178000000000000019,82.899767335797307055
0.179000000000000020,81.558820503986197537
0.180000000000000021,80.242070573792318555
0.181000000000000022,78.948022259360556063
0.182000000000000023,77.674672191428911106
0.183000000000000024,76.419699217405593572
0.184000000000000025,75.180637725635932611
0.185000000000000026,73.955027620869628890
0.186000000000000026,72.740537533586319796
0.187000000000000027,71.535060200538566733
0.188000000000000028,70.336780739109471483
0.189000000000000029,69.144219812409545511
0.190000000000000030,67.956254517689743011
0.191000000000000031,66.772120304162314142
0.192000000000000032,65.591397412212216977
0.193000000000000033,64.413985292828826346
0.194000000000000034,63.240068274357881251
0.195000000000000034,62.070075444786496632
0.196000000000000035,60.904637354048603015
0.197000000000000036,59.744541745972426838
0.198000000000000037,58.590690129383517615
0.199000000000000038,57.444056611612040797
0.200000000000000039,56.305650058554569171
0.201000000000000040,55.176480322063852668
0.202000000000000041,54.057528992550906821
0.203000000000000042,52.949724894079182036
0.204000000000000042,51.853924340492241640
0.205000000000000043,50.770896012230465999
0.206000000000000044,49.701310191361116608
0.207000000000000045,48.645732003213637995
0.208000000000000046,47.604618252779339116
0.209000000000000047,46.578317408517534659
0.210000000000000048,45.567072271320689936
0.211000000000000049,44.571024868268665386
0.212000000000000050,43.590223125892450184
0.213000000000000050,42.624628902790718143
0.214000000000000051,41.674126993789919027
0.215000000000000052,40.738534755005019861
0.216000000000000053,39.817612039107103783
0.217000000000000054,38.911071171158262416
0.218000000000000055,38.018586736182669483
0.219000000000000056,37.139804989148103687
0.220000000000000057,36.274352735431705241
0.221000000000000058,35.421845564572628007
0.222000000000000058,34.581895351776182679
0.223000000000000059,33.754116970021627253
0.224000000000000060,32.938134180634136783
0.225000000000000061,32.133584691834094826
0.226000000000000062,31.340124393163257821
0.227000000000000063,30.557430788969867308
0.228000000000000064,29.785205666514315226
0.229000000000000065,29.023177043965727506
0.230000000000000066,28.271100450852571839
0.231000000000000066,27.528759598661668662
0.232000000000000067,26.795966502513760332
0.233000000000000068,26.072561116429938011
0.234000000000000069,25.358410544886773152
0.235000000000000070,24.653407892365805765
0.236000000000000071,23.957470810648285209
0.237000000000000072,23.270539800880023051
0.238000000000000073,22.592576324111767860
0.239000000000000073,21.923560770262227493
0.240000000000000074,21.263490331388460675
0.241000000000000075,20.612376820907115871
0.242000000000000076,19.970244476085817098
0.243000000000000077,19.337127776807250257
0.244000000000000078,18.713069309369636528
0.245000000000000079,18.098117699983788498
0.246000000000000080,17.492325638707431068
0.247000000000000081,16.895748010853285592
0.248000000000000081,16.308440149449115353
0.249000000000000082,15.730456219129843376
0.250000000000000111,15.161847738915501083
0.251000000000000112,14.602662248679269652
0.252000000000000113,14.052942121734314895
0.253000000000000114,13.512723523865798114
0.254000000000000115,12.982035517291066640
0.255000000000000115,12.460899306441669765
0.256000000000000116,11.949327621107737940
0.257000000000000117,11.447324231356265756
0.258000000000000118,10.954883587714309812
0.259000000000000119,10.471990579378118724
0.260000000000000120,9.998620402654767148
0.261000000000000121,9.534738531447661813
0.262000000000000122,9.080300781343137118
0.263000000000000123,8.635253458729513554
0.264000000000000123,8.199533586363896731
0.265000000000000124,7.773069196884458520
0.266000000000000125,7.355779685931030265
0.267000000000000126,6.947576216773112101
0.268000000000000127,6.548362168639114245
0.269000000000000128,6.158033621284481285
0.270000000000000129,5.776479868717485644
0.271000000000000130,5.403583955411862760
0.272000000000000131,5.039223228767766294
0.273000000000000131,4.683269902027586085
0.274000000000000132,4.335591622306582238
0.275000000000000133,3.996052038852913935
0.276000000000000134,3.664511367103297168
0.277000000000000135,3.340826944545701505
0.278000000000000136,3.024853774833276443
0.279000000000000137,2.716445057014143849
0.280000000000000138,2.415452697145397565
0.281000000000000139,2.121727799944626902
0.282000000000000139,1.835121138498537308
0.283000000000000140,1.555483600392810306
0.284000000000000141,1.282666608950961074
0.285000000000000142,1.016522518571113309
0.286000000000000143,0.756904983428778655
0.287000000000000144,0.503669299070982124
0.288000000000000145,0.256672716661503320
0.289000000000000146,0.015774729851704312
0.290000000000000147,-0.219162665556884267
0.291000000000000147,-0.448274738818462193
0.292000000000000148,-0.671693817825118722
0.293000000000000149,-0.889549108437527991
0.294000000000000150,-1.101966538819749264
0.295000000000000151,-1.309068627932838957
0.296000000000000152,-1.510974377256959267
0.297000000000000153,-1.707799184741203957
0.298000000000000154,-1.899654779923481085
0.299000000000000155,-2.086649179118432063
0.300000000000000155,-2.268886659538540851
0.301000000000000156,-2.446467751191330642
0.302000000000000157,-2.619489245383243681
0.303000000000000158,-2.788044218656567264
0.304000000000000159,-2.952222070990273117
0.305000000000000160,-3.112108577106276197
0.306000000000000161,-3.267785949740245055
0.307000000000000162,-3.419332913758785786
0.308000000000000163,-3.566824790032286696
0.309000000000000163,-3.710333588004480099
0.310000000000000164,-3.849928105935000566
0.311000000000000165,-3.985674037829106453
0.312000000000000166,-4.117634086109411840
0.313000000000000167,-4.245868079126691619
0.314000000000000168,-4.370433092650592322
0.315000000000000169,-4.491383574525960043
0.316000000000000170,-4.608771471726063496
0.317000000000000171,-4.722646359079431200
0.318000000000000171,-4.833055568993143147
0.319000000000000172,-4.940044321540848493
0.320000000000000173,-5.043655854328636501
0.321000000000000174,-5.143931551596341301
0.322000000000000175,-5.240911072055212117
0.323000000000000176,-5.334632475005119723
0.324000000000000177,-5.425132344315763966
0.325000000000000178,-5.512445909895775209
0.326000000000000179,-5.596607166312525194
0.327000000000000179,-5.677648988261781327
0.328000000000000180,-5.755603242621989857
0.329000000000000181,-5.830500896861734006
0.330000000000000182,-5.902372123600670761
0.331000000000000183,-5.971246401155161365
0.332000000000000184,-6.037152609928163827
0.333000000000000185,-6.100119124530347214
0.334000000000000186,-6.160173901544778730
0.335000000000000187,-6.217344562871373270
0.336000000000000187,-6.271658474609706602
0.337000000000000188,-6.323142821459130758
0.338000000000000189,-6.371824676634739504
0.339000000000000190,-6.417731067315182614
0.340000000000000191,-6.460889035654401091
0.341000000000000192,-6.501325695404614358
0.342000000000000193,-6.539068284210989290
0.343000000000000194,-6.574144211651038461
0.344000000000000195,-6.606581103102215025
0.345000000000000195,-6.636406839531792556
0.346000000000000196,-6.663649593310978503
0.347000000000000197,-6.688337860163440673
0.348000000000000198,-6.710500487364784661
0.349000000000000199,-6.730166698315201756
0.350000000000000200,-6.747366113612429217
0.351000000000000201,-6.762128768755955477
0.352000000000000202,-6.774485128616572815
0.353000000000000203,-6.784466098807904189
0.354000000000000203,-6.792103034098218473
0.355000000000000204,-6.797427744001780070
0.356000000000000205,-6.800472495689726671
0.357000000000000206,-6.801270014360421001
0.358000000000000207,-6.799853481208373296
0.359000000000000208,-6.796256529130261015
0.360000000000000209,-6.790513236304962064
0.361000000000000210,-6.782658117782657037
0.362000000000000210,-6.772726115216160636
0.363000000000000211,-6.760752584864990311
0.364000000000000212,-6.746773284000208371
0.365000000000000213,-6.730824355834917228
0.366000000000000214,-6.712942313102336023
0.367000000000000215,-6.693164020399879455
0.368000000000000216,-6.671526675414424901
0.369000000000000217,-6.648067789140014838
0.370000000000000218,-6.622825165195874497
0.371000000000000218,-6.595836878348467103
0.372000000000000219,-6.567141252337725277
0.373000000000000220,-6.536776837103550619
0.374000000000000221,-6.504782385504702447
0.375000000000000222,-6.471196829618167889
0.376000000000000223,-6.436059256703403619
0.377000000000000224,-6.399408884911585105
0.378000000000000225,-6.361285038816165915
0.379000000000000226,-6.321727124837209111
0.380000000000000226,-6.280774606628145129
0.381000000000000227,-6.238466980489533853
0.382000000000000228,-6.194843750871104504
0.383000000000000229,-6.149944406019340448
0.384000000000000230,-6.103808393824357026
0.385000000000000231,-6.056475097916576900
0.386000000000000232,-6.007983814059825178
0.387000000000000233,-5.958373726884659050
0.388000000000000234,-5.907683887002010081
0.389000000000000234,-5.855953188534572362
0.390000000000000235,-5.803220347099919962
0.391000000000000236,-5.749523878276695754
0.392000000000000237,-5.694902076582198269
0.393000000000000238,-5.639392994987132646
0.394000000000000239,-5.583034424990474420
0.395000000000000240,-5.525863877275088321
0.396000000000000241,-5.467918562962214679
0.397000000000000242,-5.409235375480550445
0.398000000000000242,-5.349850873063719980
0.399000000000000243,-5.289801261887501660
0.400000000000000244,-5.229122379856354641
0.401000000000000245,-5.167849681046964960
0.402000000000000246,-5.106018220814457997
0.403000000000000247,-5.043662641565463289
0.404000000000000248,-4.980817159200517708
0.405000000000000249,-4.917515550226726262
0.406000000000000250,-4.853791139540178712
0.407000000000000250,-4.789676788876354507
0.408000000000000251,-4.725204885925335496
0.409000000000000252,-4.660407334107612876
0.410000000000000253,-4.595315543005057179
0.411000000000000254,-4.529960419440636876
0.412000000000000255,-4.464372359199559881
0.413000000000000256,-4.398581239383554831
0.414000000000000257,-4.332616411389186517
0.415000000000000258,-4.266506694500535879
0.416000000000000258,-4.200280370085581971
0.417000000000000259,-4.133965176385312468
0.418000000000000260,-4.067588303883836076
0.419000000000000261,-4.001176391247308395
0.420000000000000262,-3.934755521819084834
0.421000000000000263,-3.868351220658040823
0.422000000000000264,-3.801988452106716210
0.423000000000000265,-3.735691617875494863
0.424000000000000266,-3.669484555629105582
0.425000000000000266,-3.603390538060981640
0.426000000000000267,-3.537432272441420000
0.427000000000000268,-3.471631900624862599
0.428000000000000269,-3.406010999501793091
0.429000000000000270,-3.340590581880680698
0.430000000000000271,-3.275391097785056438
0.431000000000000272,-3.210432436151259061
0.432000000000000273,-3.145733926911991496
0.433000000000000274,-3.081314343451175386
0.434000000000000274,-3.017191905415383069
0.435000000000000275,-2.953384281867533545
0.436000000000000276,-2.889908594768384908
0.437000000000000277,-2.826781422771559527
0.438000000000000278,-2.764018805318125604
0.439000000000000279,-2.701636247016745873
0.440000000000000280,-2.639648722295646621
0.441000000000000281,-2.578070680312907204
0.442000000000000282,-2.516916050111771330
0.443000000000000282,-2.456198246007752495
0.444000000000000283,-2.395930173194821489
0.445000000000000284,-2.336124233557952401
0.446000000000000285,-2.276792331679550863
0.447000000000000286,-2.217945881027922450
0.448000000000000287,-2.159595810315559472
0.449000000000000288,-2.101752570015981370
0.450000000000000289,-2.044426139027556211
0.451000000000000290,-1.987626031473420651
0.452000000000000290,-1.931361303626698334
0.453000000000000291,-1.875640560950480928
0.454000000000000292,-1.820471965242510759
0.455000000000000293,-1.765863241874502165
0.456000000000000294,-1.711821687116639179
0.457000000000000295,-1.658354175537835928
0.458000000000000296,-1.605467167472725221
0.459000000000000297,-1.553166716546680926
0.460000000000000298,-1.501458477250319223
0.461000000000000298,-1.450347712555404289
0.462000000000000299,-1.399839301564169469
0.463000000000000300,-1.349937747184444259
0.464000000000000301,-1.300647183823299802
0.465000000000000302,-1.251971385092117695
0.466000000000000303,-1.203913771516205156
0.467000000000000304,-1.156477418242533028
0.468000000000000305,-1.109665062739279007
0.469000000000000306,-1.063479112481105604
0.470000000000000306,-1.017921652614556027
0.471000000000000307,-0.972994453597867848
0.472000000000000308,-0.928698978810121645
0.473000000000000309,-0.885036392124559534
0.474000000000000310,-0.842007565441400319
0.475000000000000311,-0.799613086175442689
0.476000000000000312,-0.757853264694374085
0.477000000000000313,-0.716728141703356303
0.478000000000000314,-0.676237495572238556
0.479000000000000314,-0.636380849601638099
0.480000000000000315,-0.597157479224344145
0.481000000000000316,-0.558566419138875836
0.482000000000000317,-0.520606470372003138
0.483000000000000318,-0.483276207267421487
0.484000000000000319,-0.446573984397785728
0.485000000000000320,-0.410497943397667542
0.486000000000000321,-0.375046019714976864
0.487000000000000322,-0.340215949278735053
0.488000000000000322,-0.306005275081082273
0.489000000000000323,-0.272411353671791034
0.490000000000000324,-0.239431361563411910
0.491000000000000325,-0.207062301545604066
0.492000000000000326,-0.175301008907131572
0.493000000000000327,-0.144144157564327663
0.494000000000000328,-0.113588266094818729
0.495000000000000329,-0.083629703675483766
0.496000000000000330,-0.054264695923780207
0.497000000000000330,-0.025489330641642043
0.498000000000000331,0.002700436538759211
0.499000000000000332,0.030308776607836103
0.500000000000000333,0.057339981730546462
0.501000000000000334,0.083798459897815231
0.502000000000000335,0.109688729677611271
0.503000000000000336,0.135015415065882854
0.504000000000000337,0.159783240437426560
0.505000000000000338,0.183997025596619734
0.506000000000000338,0.207661680927943737
0.507000000000000339,0.230782202646133250
0.508000000000000340,0.253363668145671572
0.509000000000000341,0.275411231449274263
0.510000000000000342,0.296930118755044214
0.511000000000000343,0.317925624081765668
0.512000000000000344,0.338403105011867322
0.513000000000000345,0.358367978531439146
0.514000000000000346,0.377825716966681602
0.515000000000000346,0.396781844016119656
0.516000000000000347,0.415241930877844556
0.517000000000000348,0.433211592470937212
0.518000000000000349,0.450696483750382626
0.519000000000000350,0.467702296114476113
0.520000000000000351,0.484234753903907134
0.521000000000000352,0.500299610991539856
0.522000000000000353,0.515902647461933150
0.523000000000000353,0.531049666379622698
0.524000000000000354,0.545746490645070970
0.525000000000000355,0.559998959937301644
0.526000000000000356,0.573812927742103129
0.527000000000000357,0.587194258464653451
0.528000000000000358,0.600148824625577393
0.529000000000000359,0.612682504139099859
0.530000000000000360,0.624801177672328900
0.531000000000000361,0.636510726084348777
0.532000000000000361,0.647817027944038837
0.533000000000000362,0.658725957125328443
0.534000000000000363,0.669243380478765970
0.535000000000000364,0.679375155578118006
0.536000000000000365,0.689127128540814371
0.537000000000000366,0.698505131920970856
0.538000000000000367,0.707514982673818627
0.539000000000000368,0.716162480190193573
0.540000000000000369,0.724453404399984624
0.541000000000000369,0.732393513943156438
0.542000000000000370,0.739988544407214177
0.543000000000000371,0.747244206629821384
0.544000000000000372,0.754166185065317518
0.545000000000000373,0.760760136213932681
0.546000000000000374,0.767031687112460725
0.547000000000000375,0.772986433885152757
0.548000000000000376,0.778629940353590344
0.549000000000000377,0.783967736704369478
0.550000000000000377,0.789005318213365392
0.551000000000000378,0.793748144025341440
0.552000000000000379,0.798201635987778935
0.553000000000000380,0.802371177537671842
0.554000000000000381,0.806262112640174111
0.555000000000000382,0.809879744777877497
0.556000000000000383,0.813229335989627655
0.557000000000000384,0.816316105957659133
0.558000000000000385,0.819145231142005770
0.559000000000000385,0.821721843960977028
0.560000000000000386,0.824051032016666296
0.561000000000000387,0.826137837364348315
0.562000000000000388,0.827987255824702673
0.563000000000000389,0.829604236337782019
0.564000000000000390,0.830993680357687503
0.565000000000000391,0.832160441286881047
0.566000000000000392,0.833109323949139835
0.567000000000000393,0.833845084100089173
0.568000000000000393,0.834372427974374942
0.569000000000000394,0.834696011868421572
0.570000000000000395,0.834820441757865295
0.571000000000000396,0.834750272948664440
0.572000000000000397,0.834490009760937346
0.573000000000000398,0.834044105244660772
0.574000000000000399,0.833416960926215977
0.575000000000000400,0.832612926584995749
0.576000000000000401,0.831636300059097389
0.577000000000000401,0.830491327079271202
0.578000000000000402,0.829182201130269747
0.579000000000000403,0.827713063338783805
0.580000000000000404,0.826088002387059261
0.581000000000000405,0.824311054451491332
0.582000000000000406,0.822386203165324403
0.583000000000000407,0.820317379604701080
0.584000000000000408,0.818108462297322481
0.585000000000000409,0.815763277252923968
0.586000000000000409,0.813285598014862110
0.587000000000000410,0.810679145732081330
0.588000000000000411,0.807947589250764375
0.589000000000000412,0.805094545224940839
0.590000000000000413,0.802123578245435231
0.591000000000000414,0.799038200986433189
0.592000000000000415,0.795841874369039526
0.593000000000000416,0.792538007741206085
0.594000000000000417,0.789129959073384790
0.595000000000000417,0.785621035169294712
0.596000000000000418,0.782014491891243835
0.597000000000000419,0.778313534399376561
0.598000000000000420,0.774521317404312959
0.599000000000000421,0.770640945432610969
0.600000000000000422,0.766675473104500793
0.601000000000000423,0.762627905423386210
0.602000000000000424,0.758501198076569794
0.603000000000000425,0.754298257746703005
0.604000000000000425,0.750021942433481081
0.605000000000000426,0.745675061785105564
0.606000000000000427,0.741260377438978990
0.607000000000000428,0.736780603371332332
0.608000000000000429,0.732238406255093732
0.609000000000000430,0.727636405825863086
0.610000000000000431,0.722977175255282267
0.611000000000000432,0.718263241531587160
0.612000000000000433,0.713497085846882539
0.613000000000000433,0.708681143990682605
0.614000000000000434,0.703817806749444941
0.615000000000000435,0.698909420311665697
0.616000000000000436,0.693958286678182934
