# AuFCC110UCD_ASPSCA-AC
# h[nm],U(h)[kJ/mol]
0.200000000000000011,41.431065654688545408
0.201000000000000012,40.337568284037025990
0.202000000000000013,39.529743902514226761
0.203000000000000014,38.848403102285189448
0.204000000000000015,38.203837363601429900
0.205000000000000016,37.550557700349074253
0.206000000000000016,36.870045491841594298
0.207000000000000017,36.159226147546789321
0.208000000000000018,35.422979824162482032
0.209000000000000019,34.669457450067547200
0.210000000000000020,33.907310125469805939
0.211000000000000021,33.144192832891647527
0.212000000000000022,32.386090327926027044
0.213000000000000023,31.637150234985192299
0.214000000000000024,30.899808122541053024
0.215000000000000024,30.175061129447481534
0.216000000000000025,29.462797752082110492
0.217000000000000026,28.762127134171482368
0.218000000000000027,28.071675741961279016
0.219000000000000028,27.389835745951209844
0.220000000000000029,26.714960072335770747
0.221000000000000030,26.045505641918708761
0.222000000000000031,25.380130039023988786
0.223000000000000032,24.717748664334699527
0.224000000000000032,24.057559984394693231
0.225000000000000033,23.399046266710389119
0.226000000000000034,22.741956511762687398
0.227000000000000035,22.086277386864480832
0.228000000000000036,21.432196981363507149
0.229000000000000037,20.780065233738241659
0.230000000000000038,20.130353985886166868
0.231000000000000039,19.483618828971408732
0.232000000000000040,18.840464231171587528
0.233000000000000040,18.201512881342303274
0.234000000000000041,17.567379737471391365
0.235000000000000042,16.938650924113773044
0.236000000000000043,16.315867366054941812
0.237000000000000044,15.699512862969209337
0.238000000000000045,15.090006188914994567
0.239000000000000046,14.487696729200433055
0.240000000000000047,13.892863134762674093
0.241000000000000048,13.305714471438761848
0.242000000000000048,12.726393360457674220
0.243000000000000049,12.154980640585179685
0.244000000000000050,11.591501126264969201
0.245000000000000051,11.035930085561403757
0.246000000000000052,10.488200113426891846
0.247000000000000053,9.948208127290147473
0.248000000000000054,9.415822261379993563
0.249000000000000055,8.890888482303910934
0.250000000000000056,8.373236790383336015
0.251000000000000056,7.862686908656096207
0.252000000000000057,7.359053394113720614
0.253000000000000058,6.862150133677888952
0.254000000000000059,6.371794210816011272
0.255000000000000060,5.887809147838412471
0.256000000000000061,5.410027544161406077
0.257000000000000062,4.938293142555073345
0.258000000000000063,4.472462364030047155
0.259000000000000064,4.012405357961688068
0.260000000000000064,3.558006617696499951
0.261000000000000065,3.109165213607187006
0.262000000000000066,2.665794695700383521
0.263000000000000067,2.227822716749905840
0.264000000000000068,1.795190424804721463
0.265000000000000069,1.367851671050477780
0.266000000000000070,0.945772075600912920
0.267000000000000071,0.528927990040161777
0.268000000000000071,0.117305391584678537
0.269000000000000072,-0.289101260290934636
0.270000000000000073,-0.690290177912564862
0.271000000000000074,-1.086253387177363416
0.272000000000000075,-1.476977837768156609
0.273000000000000076,-1.862446466023473857
0.274000000000000077,-2.242639197900779369
0.275000000000000078,-2.617533882419792679
0.276000000000000079,-2.987107148634285281
0.277000000000000079,-3.351335181553392495
0.278000000000000080,-3.710194414517644645
0.279000000000000081,-4.063662137343291292
0.280000000000000082,-4.411717021090073132
0.281000000000000083,-4.754339561600933628
0.282000000000000084,-5.091512445022511102
0.283000000000000085,-5.423220839362953072
0.284000000000000086,-5.749452616798293114
0.285000000000000087,-6.070198511918052375
0.286000000000000087,-6.385452221427057040
0.287000000000000088,-6.695210451010320973
0.288000000000000089,-6.999472915140129814
0.289000000000000090,-7.298242295576457650
0.290000000000000091,-7.591524164198249380
0.291000000000000092,-7.879326875620324522
0.292000000000000093,-8.161661434810451254
0.293000000000000094,-8.438541344636460551
0.294000000000000095,-8.709982437954831624
0.295000000000000095,-8.976002698510338718
0.296000000000000096,-9.236622074557894635
0.297000000000000097,-9.491862288752184185
0.298000000000000098,-9.741746647482944610
0.299000000000000099,-9.986299852469930016
0.300000000000000100,-10.225547817075741008
0.301000000000000101,-10.459517489451535255
0.302000000000000102,-10.688236684301230639
0.303000000000000103,-10.911733924739396073
0.304000000000000103,-11.130038295424885320
0.305000000000000104,-11.343179307880873807
0.306000000000000105,-11.551186778660804677
0.307000000000000106,-11.754090720790502544
0.308000000000000107,-11.951921248708647028
0.309000000000000108,-12.144708496741369430
0.310000000000000109,-12.332482550981087144
0.311000000000000110,-12.515273394293542353
0.312000000000000111,-12.693110864051703857
0.313000000000000111,-12.866024622086385421
0.314000000000000112,-13.034044136253584156
0.315000000000000113,-13.197198672944077558
0.316000000000000114,-13.355517299801812570
0.317000000000000115,-13.509028897872415342
0.318000000000000116,-13.657762182370964510
0.319000000000000117,-13.801745731237252457
0.320000000000000118,-13.941008020636733278
0.321000000000000119,-14.075577466564539009
0.322000000000000119,-14.205482471717434834
0.323000000000000120,-14.330751476813215817
0.324000000000000121,-14.451413015558753017
0.325000000000000122,-14.567495772493950668
0.326000000000000123,-14.679028642970465057
0.327000000000000124,-14.786040794558843459
0.328000000000000125,-14.888561729216016616
0.329000000000000126,-14.986621345585183107
0.330000000000000127,-15.080250000842827518
0.331000000000000127,-15.169478571550518708
0.332000000000000128,-15.254338513013649958
0.333000000000000129,-15.334861916693522943
0.334000000000000130,-15.411081565263273774
0.335000000000000131,-15.483030984942178776
0.336000000000000132,-15.550744494785357475
0.337000000000000133,-15.614257252648021890
0.338000000000000134,-15.673605297583918627
0.339000000000000135,-15.728825588476265551
0.340000000000000135,-15.779956038737315893
0.341000000000000136,-15.827035546947886502
0.342000000000000137,-15.870104023341969679
0.343000000000000138,-15.909202412073279120
0.344000000000000139,-15.944372709230298923
0.345000000000000140,-15.975657976594035858
0.346000000000000141,-16.003102351158407401
0.347000000000000142,-16.026751050456642389
0.348000000000000143,-16.046650373758936325
0.349000000000000143,-16.062847699225876852
0.350000000000000144,-16.075391477120195560
0.351000000000000145,-16.084331219194869078
0.352000000000000146,-16.089717484389975510
0.353000000000000147,-16.091601860982539307
0.354000000000000148,-16.090036945344451169
0.355000000000000149,-16.085076317472545071
0.356000000000000150,-16.076774513462193994
0.357000000000000151,-16.065186995101942813
0.358000000000000151,-16.050370116771421891
0.359000000000000152,-16.032381089828117382
0.360000000000000153,-16.011277944670943896
0.361000000000000154,-15.987119490669579491
0.362000000000000155,-15.959965274148810721
0.363000000000000156,-15.929875534616389388
0.364000000000000157,-15.896911159420918480
0.365000000000000158,-15.861133637024598997
0.366000000000000159,-15.822605009071702753
0.367000000000000159,-15.781387821430621798
0.368000000000000160,-15.737545074382694565
0.369000000000000161,-15.691140172126342378
0.370000000000000162,-15.642236871759749306
0.371000000000000163,-15.590899231899991051
0.372000000000000164,-15.537191561090214265
0.373000000000000165,-15.481178366140685654
0.374000000000000166,-15.422924300543026987
0.375000000000000167,-15.362494113090207293
0.376000000000000167,-15.299952596828550355
0.377000000000000168,-15.235364538460952843
0.378000000000000169,-15.168794668313893226
0.379000000000000170,-15.100307610973823458
0.380000000000000171,-15.029967836691870531
0.381000000000000172,-14.957839613648980404
0.382000000000000173,-14.883986961166723262
0.383000000000000174,-14.808473603942777785
0.384000000000000175,-14.731362927383235828
0.385000000000000175,-14.652717934097603703
0.386000000000000176,-14.572601201616450339
0.387000000000000177,-14.491074841384925520
0.388000000000000178,-14.408200459080394040
0.389000000000000179,-14.324039116295779195
0.390000000000000180,-14.238651293625512295
0.391000000000000181,-14.152096855185058999
0.392000000000000182,-14.064435014590390693
0.393000000000000183,-13.975724302418399247
0.394000000000000183,-13.886022535165016834
0.395000000000000184,-13.795386785713006361
0.396000000000000185,-13.703873355317352178
0.397000000000000186,-13.611537747112027574
0.398000000000000187,-13.518434641138188823
0.399000000000000188,-13.424617870890140026
0.400000000000000189,-13.330140401372233327
0.401000000000000190,-13.235054308656369670
0.402000000000000191,-13.139410760927177080
0.403000000000000191,-13.043260000998836645
0.404000000000000192,-12.946651330285220638
0.405000000000000193,-12.849633094202403072
0.406000000000000194,-12.752252668980604611
0.407000000000000195,-12.654556449860518086
0.408000000000000196,-12.556589840647170320
0.409000000000000197,-12.458397244592752884
0.410000000000000198,-12.360022056578490179
0.411000000000000199,-12.261506656564117534
0.412000000000000199,-12.162892404272419355
0.413000000000000200,-12.064219635075312809
0.414000000000000201,-11.965527657046951759
0.415000000000000202,-11.866854749148531667
0.416000000000000203,-11.768238160509014278
0.417000000000000204,-11.669714110765223580
0.418000000000000205,-11.571317791424545973
0.419000000000000206,-11.473083368213117694
0.420000000000000207,-11.375043984371995265
0.421000000000000207,-11.277231764864177777
0.422000000000000208,-11.179677821454614417
0.423000000000000209,-11.082412258626169077
0.424000000000000210,-10.985464180294099990
0.425000000000000211,-10.888861697282042229
0.426000000000000212,-10.792631935522887687
0.427000000000000213,-10.696801044947982007
0.428000000000000214,-10.601394209028923044
0.429000000000000214,-10.506435654936254309
0.430000000000000215,-10.411948664280123111
0.431000000000000216,-10.317955584398632141
0.432000000000000217,-10.224477840159805098
0.433000000000000218,-10.131535946244245139
0.434000000000000219,-10.039149519875767425
0.435000000000000220,-9.947337293968363525
0.436000000000000221,-9.856117130658352821
0.437000000000000222,-9.765506035191311440
0.438000000000000222,-9.675520170134419118
0.439000000000000223,-9.586174869885249805
0.440000000000000224,-9.497484655449204283
0.441000000000000225,-9.409463249458255518
0.442000000000000226,-9.322123591404876564
0.443000000000000227,-9.235477853065445331
0.444000000000000228,-9.149537454088614297
0.445000000000000229,-9.064313077724674983
0.446000000000000230,-8.979814686672963120
0.447000000000000230,-8.896051539025179977
0.448000000000000231,-8.813032204283182125
0.449000000000000232,-8.730764579430760008
0.450000000000000233,-8.649255905039774817
0.451000000000000234,-8.568512781391595112
0.452000000000000235,-8.488541184595941758
0.453000000000000236,-8.409346482689635138
0.454000000000000237,-8.330933451698925296
0.455000000000000238,-8.253306291649479931
0.456000000000000238,-8.176468642509162166
0.457000000000000239,-8.100423600049257544
0.458000000000000240,-8.025173731610740546
0.459000000000000241,-7.950721091762572357
0.460000000000000242,-7.877067237840181591
0.461000000000000243,-7.804213245352448425
0.462000000000000244,-7.732159723246664562
0.463000000000000245,-7.660906829021082665
0.464000000000000246,-7.590454283675876823
0.465000000000000246,-7.520801386493428886
0.466000000000000247,-7.451947029639780062
0.467000000000000248,-7.383889712579526865
0.468000000000000249,-7.316627556297092383
0.469000000000000250,-7.250158317317743517
0.470000000000000251,-7.184479401522382958
0.471000000000000252,-7.119587877750478633
0.472000000000000253,-7.055480491186290060
0.473000000000000254,-6.992153676523608752
0.474000000000000254,-6.929603570905105592
0.475000000000000255,-6.867826026632552150
0.476000000000000256,-6.806816623644674102
0.477000000000000257,-6.746570681759936683
0.478000000000000258,-6.687083272681697110
0.479000000000000259,-6.628349231763832172
0.480000000000000260,-6.570363169535077930
0.481000000000000261,-6.513119482980759933
0.482000000000000262,-6.456612366580993800
0.483000000000000262,-6.400835823104605637
0.484000000000000263,-6.345783674158408161
0.485000000000000264,-6.291449570491812082
0.486000000000000265,-6.237827002056890002
0.487000000000000266,-6.184909307824375091
0.488000000000000267,-6.132689685356292664
0.489000000000000268,-6.081161200136189215
0.490000000000000269,-6.030316794658020285
0.491000000000000270,-5.980149297275216824
0.492000000000000270,-5.930651430811304969
0.493000000000000271,-5.881815820934020778
0.494000000000000272,-5.833635004294707826
0.495000000000000273,-5.786101436435110656
0.496000000000000274,-5.739207499463905293
0.497000000000000275,-5.692945509505184631
0.498000000000000276,-5.647307723921597855
0.499000000000000277,-5.602286348314640563
0.500000000000000222,-5.557873543304926223
0.501000000000000334,-5.514061431095315768
0.502000000000000224,-5.470842101819840764
0.503000000000000336,-5.428207619681413298
0.504000000000000226,-5.386150028881628415
0.505000000000000338,-5.344661359345602492
0.506000000000000227,-5.303733632245433149
0.507000000000000339,-5.263358865325281855
0.508000000000000229,-5.223529078031772244
0.509000000000000341,-5.184236296452834125
0.510000000000000231,-5.145472558068791891
0.511000000000000343,-5.107229916318852148
0.512000000000000233,-5.069500444986820398
0.513000000000000345,-5.032276242409350786
0.514000000000000234,-4.995549435510591607
0.515000000000000346,-4.959312183666431118
0.516000000000000236,-4.923556682402337792
0.517000000000000348,-4.888275166928060855
0.518000000000000238,-4.853459915513028911
0.519000000000000350,-4.819103252705839502
0.520000000000000240,-4.785197552401609045
0.521000000000000352,-4.751735240760591061
0.522000000000000242,-4.718708798981765540
0.523000000000000353,-4.686110765934778932
0.524000000000000243,-4.653933740653928730
0.525000000000000355,-4.622170384697517065
0.526000000000000245,-4.590813424376202434
0.527000000000000357,-4.559855652853601171
0.528000000000000247,-4.529289932122767759
0.529000000000000359,-4.499109194861698136
0.530000000000000249,-4.469306446171384728
0.531000000000000361,-4.439874765199581574
0.532000000000000250,-4.410807306653667048
0.533000000000000362,-4.382097302205691491
0.534000000000000252,-4.353738061792908454
0.535000000000000364,-4.325722974816833322
0.536000000000000254,-4.298045511244025896
0.537000000000000366,-4.270699222611469281
0.538000000000000256,-4.243677742939789610
0.539000000000000368,-4.216974789556992675
0.540000000000000258,-4.190584163835898934
0.541000000000000369,-4.164499751847836606
0.542000000000000259,-4.138715524935723700
0.543000000000000371,-4.113225540208977016
0.544000000000000261,-4.088023940963199543
0.545000000000000373,-4.063104957027139363
0.546000000000000263,-4.038462905039652995
0.547000000000000375,-4.014092188659057925
0.548000000000000265,-3.989987298707610819
0.549000000000000377,-3.966142813253288324
0.550000000000000266,-3.942553397631519463
0.551000000000000378,-3.919213804409024782
0.552000000000000268,-3.896118873292201190
0.553000000000000380,-3.873263530982170799
0.554000000000000270,-3.850642790978827890
0.555000000000000382,-3.828251753335857988
0.556000000000000272,-3.806085604369028541
0.557000000000000384,-3.784139616319557753
0.558000000000000274,-3.762409146974804663
0.559000000000000385,-3.740889639247986675
0.560000000000000275,-3.719576620719039717
0.561000000000000387,-3.698465703138281491
0.562000000000000277,-3.677552581894809158
0.563000000000000389,-3.656833035451308778
0.564000000000000279,-3.636302924747046639
0.565000000000000391,-3.615958192570622121
0.566000000000000281,-3.595794862904182487
0.567000000000000393,-3.575809040240589987
0.568000000000000282,-3.555996908875153739
0.569000000000000394,-3.536354732173302207
0.570000000000000284,-3.516878851815751883
0.571000000000000396,-3.497565687022450298
0.572000000000000286,-3.478411733756782809
0.573000000000000398,-3.459413563911195588
0.574000000000000288,-3.440567824475665226
0.575000000000000400,-3.421871236690142037
0.576000000000000290,-3.403320595182221187
0.577000000000000401,-3.384912767091146524
0.578000000000000291,-3.366644691179333737
0.579000000000000403,-3.348513376932422680
0.580000000000000293,-3.330515903648978426
0.581000000000000405,-3.312649419520758975
0.582000000000000295,-3.294911140704662955
0.583000000000000407,-3.277298350387130910
0.584000000000000297,-3.259808397842058891
0.585000000000000409,-3.242438697483011278
0.586000000000000298,-3.225186727910627660
0.587000000000000410,-3.208050030955979626
0.588000000000000300,-3.191026210720754097
0.589000000000000412,-3.174112932614893356
0.590000000000000302,-3.157307922392537325
0.591000000000000414,-3.140608965186888923
0.592000000000000304,-3.124013904544702402
0.593000000000000416,-3.107520641460999933
0.594000000000000306,-3.091127133414713235
0.595000000000000417,-3.074831393405723201
0.596000000000000307,-3.058631488993978742
0.597000000000000419,-3.042525541341139395
0.598000000000000309,-3.026511724255343427
0.599000000000000421,-3.010588263239501572
0.600000000000000311,-2.994753434543691029
0.601000000000000423,-2.979005564221995250
0.602000000000000313,-2.963343027194321966
0.603000000000000425,-2.947764246313476555
0.604000000000000314,-2.932267691438053436
0.605000000000000426,-2.916851878511304452
0.606000000000000316,-2.901515368646536697
0.607000000000000428,-2.886256767219192110
0.608000000000000318,-2.871074722966074244
0.609000000000000430,-2.855967927091874081
0.610000000000000320,-2.840935112383415451
0.611000000000000432,-2.825975052331736848
0.612000000000000322,-2.811086560262388456
0.613000000000000433,-2.796268488474066949
0.614000000000000323,-2.781519727385881602
0.615000000000000435,-2.766839204693396947
0.616000000000000325,-2.752225884533685107
0.617000000000000437,-2.737678766659509488
0.618000000000000327,-2.723196885622866326
0.619000000000000439,-2.708779309967948912
0.620000000000000329,-2.694425141433763216
0.621000000000000441,-2.680133514166434416
0.622000000000000330,-2.665903593941380212
0.623000000000000442,-2.651734577395406411
0.624000000000000332,-2.637625691268849160
0.625000000000000444,-2.623576191657823298
0.626000000000000334,-2.609585363276672787
0.627000000000000446,-2.595652518730634295
0.628000000000000336,-2.581776997798843176
0.629000000000000448,-2.567958166727644542
0.630000000000000338,-2.554195417534317336
0.631000000000000449,-2.540488167321174551
0.632000000000000339,-2.526835857600114643
0.633000000000000451,-2.513237953627588617
0.634000000000000341,-2.499693943750036507
0.635000000000000453,-2.486203338759739090
0.636000000000000343,-2.472765671261124787
0.637000000000000455,-2.459380495047479798
0.638000000000000345,-2.446047384488076126
0.639000000000000457,-2.432765933925630897
0.640000000000000346,-2.419535757084172900
0.641000000000000458,-2.406356486487132518
0.642000000000000348,-2.393227772885769600
0.643000000000000460,-2.380149284697746559
0.644000000000000350,-2.367120707455931061
0.645000000000000462,-2.354141743267240905
0.646000000000000352,-2.341212110281596814
0.647000000000000464,-2.328331542170797075
0.648000000000000353,-2.315499787617390393
0.649000000000000465,-2.302716609813295179
0.650000000000000355,-2.289981785968291383
0.651000000000000467,-2.277295106828122417
0.652000000000000357,-2.264656376202283994
0.653000000000000469,-2.252065410501276510
0.654000000000000359,-2.239522038283380034
0.655000000000000471,-2.227026099810706317
0.656000000000000361,-2.214577446614602874
0.657000000000000473,-2.202175941070162679
0.658000000000000362,-2.189821455979869658
0.659000000000000474,-2.177513874166194352
0.660000000000000364,-2.165253088073118448
