# AuFCC110UCD_METSCA-AC
# h[nm],U(h)[kJ/mol]
0.149999999999999994,122.312623498875382211
0.150999999999999995,118.544548005395682821
0.151999999999999996,115.891604531456394511
0.152999999999999997,113.602033110106305003
0.153999999999999998,111.372023460273481987
0.154999999999999999,109.114809942434206391
0.156000000000000000,106.834916624068611668
0.157000000000000001,104.564296714810438971
0.158000000000000002,102.333502318777277651
0.159000000000000002,100.161596679856742753
0.160000000000000003,98.055239140815302790
0.161000000000000004,96.011558523461971504
0.162000000000000005,94.021974709817726534
0.163000000000000006,92.075624742677220524
0.164000000000000007,90.161890503181467693
0.165000000000000008,88.271965207390337582
0.166000000000000009,86.399599435540238801
0.167000000000000010,84.541237394501820290
0.168000000000000010,82.695754112873871122
0.169000000000000011,80.863972101281589744
0.170000000000000012,79.048093199524899433
0.171000000000000013,77.251139282847049117
0.172000000000000014,75.476459527063255450
0.173000000000000015,73.727333839433597973
0.174000000000000016,72.006681755624498464
0.175000000000000017,70.316872578723277343
0.176000000000000018,68.659624456906470868
0.177000000000000018,67.035976111261746269
0.178000000000000019,65.446313829765685455
0.179000000000000020,63.890437143224993122
0.180000000000000021,62.367648520391114175
0.181000000000000022,60.876854891241791279
0.182000000000000023,59.416671430305157742
0.183000000000000024,57.985520544585483549
0.184000000000000025,56.581721257514480783
0.185000000000000026,55.203566083213431170
0.186000000000000026,53.849384020090951708
0.187000000000000027,52.517589470913911498
0.188000000000000028,51.206717751041267661
0.189000000000000029,49.915448421874188512
0.190000000000000030,48.642618031220095531
0.191000000000000031,47.387224003958991148
0.192000000000000032,46.148421449230298208
0.193000000000000033,44.925514573097068194
0.194000000000000034,43.717944241058248167
0.195000000000000034,42.525273049567594796
0.196000000000000035,41.347169060873071089
0.197000000000000036,40.183389146884159970
0.198000000000000037,39.033762686857485846
0.199000000000000038,37.898176178227814148
0.200000000000000039,36.776559154681088160
0.201000000000000040,35.668871663007529094
0.202000000000000041,34.575093431053595339
0.203000000000000042,33.495214762598422453
0.204000000000000042,32.429229119706697304
0.205000000000000043,31.377127297000605211
0.206000000000000044,30.338893052977443432
0.207000000000000045,29.314500038504000656
0.208000000000000046,28.303909849494033324
0.209000000000000047,27.307071027204152358
0.210000000000000048,26.323918833443094911
0.211000000000000049,25.354375637390429432
0.212000000000000050,24.398351764016631193
0.213000000000000050,23.455746669903184909
0.214000000000000051,22.526450329421884078
0.215000000000000052,21.610344731826913289
0.216000000000000053,20.707305407118404617
0.217000000000000054,19.817202915008866881
0.218000000000000055,18.939904246579473579
0.219000000000000056,18.075274101996917864
0.220000000000000057,17.223176019821497817
0.221000000000000058,16.383473343925391674
0.222000000000000058,15.556030022851984995
0.223000000000000059,14.740711243660033603
0.224000000000000060,13.937383908000194666
0.225000000000000061,13.145916962498034763
0.226000000000000062,12.366181598608905645
0.227000000000000063,11.598051339116095093
0.228000000000000064,10.841402029518025785
0.229000000000000065,10.096111752839114217
0.230000000000000066,9.362060686048085500
0.231000000000000066,8.639130915402875033
0.232000000000000067,7.927206226788712229
0.233000000000000068,7.226171885577612031
0.234000000000000069,6.535914418811738180
0.235000000000000070,5.856321410678360095
0.236000000000000071,5.187281320372394866
0.237000000000000072,4.528683329586309370
0.238000000000000073,3.880417225077715582
0.239000000000000073,3.242373320075518706
0.240000000000000074,2.614442416720985651
0.241000000000000075,1.996515810325462770
0.242000000000000076,1.388485334968289742
0.243000000000000077,0.790243448865650899
0.244000000000000078,0.201683357015409209
0.245000000000000079,-0.377300832140190223
0.246000000000000080,-0.946813919895481027
0.247000000000000081,-1.506959404624445664
0.248000000000000081,-2.057839247919694081
0.249000000000000082,-2.599553624350424030
0.250000000000000111,-3.132200659737578441
0.251000000000000112,-3.655876162816253494
0.252000000000000113,-4.170673355041538244
0.253000000000000114,-4.676682603100295488
0.254000000000000115,-5.173991158439347871
0.255000000000000115,-5.662682907813219479
0.256000000000000116,-6.142838138509850943
0.257000000000000117,-6.614533321537375166
0.258000000000000118,-7.077840915658901721
0.259000000000000119,-7.532829194755426450
0.260000000000000120,-7.979562100586065299
0.261000000000000121,-8.418099122605307016
0.262000000000000122,-8.848495206097545918
0.263000000000000123,-9.270800689501564662
0.264000000000000123,-9.685061271428605068
0.265000000000000124,-10.091318007528538914
0.266000000000000125,-10.489607337033378442
0.267000000000000126,-10.879961138507026064
0.268000000000000127,-11.262406814057330351
0.269000000000000128,-11.636967401019745694
0.270000000000000129,-12.003661709904584143
0.271000000000000130,-12.362504487209633908
0.272000000000000131,-12.713506601537105212
0.273000000000000131,-13.056675251318305087
0.274000000000000132,-13.392014192339265932
0.275000000000000133,-13.719523983175523796
0.276000000000000134,-14.039202246582425104
0.277000000000000135,-14.351043944846846756
0.278000000000000136,-14.655041667087610691
0.279000000000000137,-14.951185926490472511
0.280000000000000138,-15.239465465480048323
0.281000000000000139,-15.519867566863496222
0.282000000000000139,-15.792378369025993123
0.283000000000000140,-16.056983183316713593
0.284000000000000141,-16.313666811832405301
0.285000000000000142,-16.562413863884113852
0.286000000000000143,-16.803209069518114660
0.287000000000000144,-17.036037588554123090
0.288000000000000145,-17.260885313701916033
0.289000000000000146,-17.477739166417308070
0.290000000000000147,-17.686587384263617651
0.291000000000000147,-17.887419798649236924
0.292000000000000148,-18.080228101919125550
0.293000000000000149,-18.265006102883440064
0.294000000000000150,-18.441749969972402567
0.295000000000000151,-18.610458461309896450
0.296000000000000152,-18.771133141099856090
0.297000000000000153,-18.923778581818215372
0.298000000000000154,-19.068402551798783406
0.299000000000000155,-19.205016187893164670
0.300000000000000155,-19.333634152972894782
0.301000000000000156,-19.454274778125551393
0.302000000000000157,-19.566960189476173326
0.303000000000000158,-19.671716419639544426
0.304000000000000159,-19.768573503879419917
0.305000000000000160,-19.857565561115364972
0.306000000000000161,-19.938730859978818444
0.307000000000000162,-20.012111870175264272
0.308000000000000163,-20.077755299460172012
0.309000000000000163,-20.135712116582588749
0.310000000000000164,-20.186037560591941542
0.311000000000000165,-20.228791136940035500
0.312000000000000166,-20.264036600843638780
0.313000000000000167,-20.291841928400980777
0.314000000000000168,-20.312279275979907567
0.315000000000000169,-20.325424928416136794
0.316000000000000170,-20.331359236576911798
0.317000000000000171,-20.330166544858290223
0.318000000000000171,-20.321935109194594560
0.319000000000000172,-20.306757006165575774
0.320000000000000173,-20.284728033790266011
0.321000000000000174,-20.255947604598116385
0.322000000000000175,-20.220518631566658740
0.323000000000000176,-20.178547407510997402
0.324000000000000177,-20.130143478505068799
0.325000000000000178,-20.075419511906069658
0.326000000000000179,-20.014491159544924415
0.327000000000000179,-19.947476916633348765
0.328000000000000180,-19.874497976926051024
0.329000000000000181,-19.795678084662842622
0.330000000000000182,-19.711143383799377915
0.331000000000000183,-19.621022265020521047
0.332000000000000184,-19.525445211012119273
0.333000000000000185,-19.424544640450211119
0.334000000000000186,-19.318454751148017579
0.335000000000000187,-19.207311362782530040
0.336000000000000187,-19.091251759603391491
0.337000000000000188,-18.970414533507192090
0.338000000000000189,-18.844939427841332247
0.339000000000000190,-18.714967182281530000
0.340000000000000191,-18.580639379107530829
0.341000000000000192,-18.442098291182446701
0.342000000000000193,-18.299486731921273730
0.343000000000000194,-18.152947907515578407
0.344000000000000195,-18.002625271661759854
0.345000000000000195,-17.848662383022620759
0.346000000000000196,-17.691202765632972671
0.347000000000000197,-17.530389772442745766
0.348000000000000198,-17.366366452173654267
0.349000000000000199,-17.199275419648351715
0.350000000000000200,-17.029258729735179401
0.351000000000000201,-16.856457755035030743
0.352000000000000202,-16.681013067422441054
0.353000000000000203,-16.503064323537504521
0.354000000000000203,-16.322750154311659543
0.355000000000000204,-16.140208058596279272
0.356000000000000205,-15.955574300950496891
0.357000000000000206,-15.768983813632051039
0.358000000000000207,-15.580570102822917988
0.359000000000000208,-15.390465159110789273
0.360000000000000209,-15.198799372236303284
0.361000000000000210,-15.005701450106158745
0.362000000000000210,-14.811298342062633182
0.363000000000000211,-14.615715166391131774
0.364000000000000212,-14.419075142039037729
0.365000000000000213,-14.221499524511235890
0.366000000000000214,-14.023107545900433735
0.367000000000000215,-13.824016359003550747
0.368000000000000216,-13.624340985469308052
0.369000000000000217,-13.424194267916073287
0.370000000000000218,-13.223686825954136026
0.371000000000000218,-13.022927016041133896
0.372000000000000219,-12.822020895095548099
0.373000000000000220,-12.621072187788673347
0.374000000000000221,-12.420182257432326622
0.375000000000000222,-12.219450080375873213
0.376000000000000223,-12.018972223823855217
0.377000000000000224,-11.818842826982681515
0.378000000000000225,-11.619153585442839827
0.379000000000000226,-11.419993738701327501
0.380000000000000226,-11.221450060727629960
0.381000000000000227,-11.023606853475016010
0.382000000000000228,-10.826545943238601311
0.383000000000000229,-10.630346679760512174
0.384000000000000230,-10.435085937982229609
0.385000000000000231,-10.240838122344289474
0.386000000000000232,-10.047675173533216153
0.387000000000000233,-9.855666577576146281
0.388000000000000234,-9.664879377183778431
0.389000000000000234,-9.475378185243377160
0.390000000000000235,-9.287225200363831590
0.391000000000000236,-9.100480224376262584
0.392000000000000237,-8.915200681694363638
0.393000000000000238,-8.731441640440257501
0.394000000000000239,-8.549255835242709267
0.395000000000000240,-8.368693691616309493
0.396000000000000241,-8.189803351831626443
0.397000000000000242,-8.012630702187964360
0.398000000000000242,-7.837219401602366631
0.399000000000000243,-7.663610911430097872
0.400000000000000244,-7.491844526433558471
0.401000000000000245,-7.321957406819223024
0.402000000000000246,-7.153984611263308757
0.403000000000000247,-6.987959130849395351
0.404000000000000248,-6.823911923843373195
0.405000000000000249,-6.661871951232844147
0.406000000000000250,-6.501866212960410785
0.407000000000000250,-6.343919784782492854
0.408000000000000251,-6.188055855687143669
0.409000000000000252,-6.034295765806928280
0.410000000000000253,-5.882659044764605660
0.411000000000000254,-5.733163450391848492
0.412000000000000255,-5.585825007763183692
0.413000000000000256,-5.440658048489527943
0.414000000000000257,-5.297675250217700693
0.415000000000000258,-5.156887676284584998
0.416000000000000258,-5.018304815476394509
0.417000000000000259,-4.881934621845823941
0.418000000000000260,-4.747783554541654460
0.419000000000000261,-4.615856617607461132
0.420000000000000262,-4.486157399708067928
0.421000000000000263,-4.358688113744209502
0.422000000000000264,-4.233449636317855536
0.423000000000000265,-4.110441547012270824
0.424000000000000266,-3.989662167453194908
0.425000000000000266,-3.871108600118584153
0.426000000000000267,-3.754776766866749771
0.427000000000000268,-3.640661447154004637
0.428000000000000269,-3.528756315914729047
0.429000000000000270,-3.419053981078448601
0.430000000000000271,-3.311546020699817294
0.431000000000000272,-3.206223019679266706
0.432000000000000273,-3.103074606053280782
0.433000000000000274,-3.002089486834856213
0.434000000000000274,-2.903255483385956293
0.435000000000000275,-2.806559566305341313
0.436000000000000276,-2.711987889816200870
0.437000000000000277,-2.619525825639425598
0.438000000000000278,-2.529157996339598036
0.439000000000000279,-2.440868308131884934
0.440000000000000280,-2.354639983139154236
0.441000000000000281,-2.270455591089780789
0.442000000000000282,-2.188297080447687559
0.443000000000000282,-2.108145808966992441
0.444000000000000283,-2.029982573664939061
0.445000000000000284,-1.953787640207412579
0.446000000000000285,-1.879540771702269408
0.447000000000000286,-1.807221256896960337
0.448000000000000287,-1.736807937777071320
0.449000000000000288,-1.668279236563905643
0.450000000000000289,-1.601613182109394184
0.451000000000000290,-1.536787435687735348
0.452000000000000290,-1.473779316183666310
0.453000000000000291,-1.412565824677890047
0.454000000000000292,-1.353123668431000848
0.455000000000000293,-1.295429284267513248
0.456000000000000294,-1.239458861362525477
0.457000000000000295,-1.185188363433742564
0.458000000000000296,-1.132593550342319011
0.459000000000000297,-1.081649999106306659
0.460000000000000298,-1.032333124331005436
0.461000000000000298,-0.984618198060905669
0.462000000000000299,-0.938480369058320774
0.463000000000000300,-0.893894681514095124
0.464000000000000301,-0.850836093196256749
0.465000000000000302,-0.809279493042691422
0.466000000000000303,-0.769199718204190641
0.467000000000000304,-0.730571570544570337
0.468000000000000305,-0.693369832604874392
0.469000000000000306,-0.657569283038650254
0.470000000000000306,-0.623144711525837058
0.471000000000000307,-0.590070933172703205
0.472000000000000308,-0.558322802405682106
0.473000000000000309,-0.527875226366892880
0.474000000000000310,-0.498703177819517063
0.475000000000000311,-0.470781707571076402
0.476000000000000312,-0.444085956423054262
0.477000000000000313,-0.418591166655045588
0.478000000000000314,-0.394272693052059198
0.479000000000000314,-0.371106013483473940
0.480000000000000315,-0.349066739042164120
0.481000000000000316,-0.328130623752565187
0.482000000000000317,-0.308273573856217842
0.483000000000000318,-0.289471656683596090
0.484000000000000319,-0.271701109120850492
0.485000000000000320,-0.254938345680264411
0.486000000000000321,-0.239159966183022377
0.487000000000000322,-0.224342763063087591
0.488000000000000322,-0.210463728300761765
0.489000000000000323,-0.197500059994653837
0.490000000000000324,-0.185429168580573206
0.491000000000000325,-0.174228682705957788
0.492000000000000326,-0.163876454768282637
0.493000000000000327,-0.154350566125916300
0.494000000000000328,-0.145629331989829108
0.495000000000000329,-0.137691306004342817
0.496000000000000330,-0.130515284525305808
0.497000000000000330,-0.124080310603684518
0.498000000000000331,-0.118365677682741130
0.499000000000000332,-0.113350933016703653
0.500000000000000333,-0.109015880818850636
0.501000000000000334,-0.105340585146744867
0.502000000000000335,-0.102305372532337208
0.503000000000000336,-0.099890834364498193
0.504000000000000337,-0.098077829031445990
0.505000000000000338,-0.096847483830453121
0.506000000000000338,-0.096181196652077777
0.507000000000000339,-0.096060637446044622
0.508000000000000340,-0.096467749475832559
0.509000000000000341,-0.097384750368869580
0.510000000000000342,-0.098794132969129714
0.511000000000000343,-0.100678665998801417
0.512000000000000344,-0.103021394535613584
0.513000000000000345,-0.105805640312224988
0.514000000000000346,-0.109015001844048248
0.515000000000000346,-0.112633354391634244
0.516000000000000347,-0.116644849763753153
0.517000000000000348,-0.121033915967142830
0.518000000000000349,-0.125785256708688398
0.519000000000000350,-0.130883850755795117
0.520000000000000351,-0.136314951160592057
0.521000000000000352,-0.142064084353335673
0.522000000000000353,-0.148117049110474797
0.523000000000000353,-0.154459915402525627
0.524000000000000354,-0.161079023126935089
0.525000000000000355,-0.167960980730918558
0.526000000000000356,-0.175092663729090464
0.527000000000000357,-0.182461213120780480
0.528000000000000358,-0.190054033711533454
0.529000000000000359,-0.197858792343461432
0.530000000000000360,-0.205863416038771646
0.531000000000000361,-0.214056090060852411
0.532000000000000361,-0.222425255897050034
0.533000000000000362,-0.230959609167307567
0.534000000000000363,-0.239648097462558163
0.535000000000000364,-0.248479918116812470
0.536000000000000365,-0.257444515916693095
0.537000000000000366,-0.266531580752057851
0.538000000000000367,-0.275731045211306147
0.539000000000000368,-0.285033082124829695
0.540000000000000369,-0.294428102059929642
0.541000000000000369,-0.303906750770520040
0.542000000000000370,-0.313459906604754590
0.543000000000000371,-0.323078677873635867
0.544000000000000372,-0.332754400183642884
0.545000000000000373,-0.342478633736197635
0.546000000000000374,-0.352243160596808269
0.547000000000000375,-0.362039981936599697
0.548000000000000376,-0.371861315248850299
0.549000000000000377,-0.381699591543064765
0.550000000000000377,-0.391547452519019512
0.551000000000000378,-0.401397747723238385
0.552000000000000379,-0.411243531690054009
0.553000000000000380,-0.421078061069616261
0.554000000000000381,-0.430894791744862560
0.555000000000000382,-0.440687375939595838
0.556000000000000383,-0.450449659319611229
0.557000000000000384,-0.460175678088806550
0.558000000000000385,-0.469859656082111443
0.559000000000000385,-0.479496001857052434
0.560000000000000386,-0.489079305785563967
0.561000000000000387,-0.498604337147817323
0.562000000000000388,-0.508066041229543242
0.563000000000000389,-0.517459536424426103
0.564000000000000390,-0.526780111342981860
0.565000000000000391,-0.536023221929347371
0.566000000000000392,-0.545184488587304950
0.567000000000000393,-0.554259693316805468
0.568000000000000393,-0.563244776862249052
0.569000000000000394,-0.572135835873669008
0.570000000000000395,-0.580929120081922878
0.571000000000000396,-0.589621029488995640
0.572000000000000397,-0.598208111574417445
0.573000000000000398,-0.606687058518723399
0.574000000000000399,-0.615054704444945699
0.575000000000000400,-0.623308022678950246
0.576000000000000401,-0.631444123029479831
0.577000000000000401,-0.639460249088691368
0.578000000000000402,-0.647353775553921151
0.579000000000000403,-0.655122205571363025
0.580000000000000404,-0.662763168102372680
0.581000000000000405,-0.670274415312970051
0.582000000000000406,-0.677653819987163120
0.583000000000000407,-0.684899372964625996
0.584000000000000408,-0.692009180603251783
0.585000000000000409,-0.698981462267044384
0.586000000000000409,-0.705814547839860196
0.587000000000000410,-0.712506875265312534
0.588000000000000411,-0.719056988113323414
0.589000000000000412,-0.725463533173626107
0.590000000000000413,-0.731725258076541096
0.591000000000000414,-0.737841008941351850
0.592000000000000415,-0.743809728052535535
0.593000000000000416,-0.749630451564082145
0.594000000000000417,-0.755302307232152970
0.595000000000000417,-0.760824512176235479
0.596000000000000418,-0.766196370668997817
0.597000000000000419,-0.771417271954967232
0.598000000000000420,-0.776486688098185440
0.599000000000000421,-0.781404171858903096
0.600000000000000422,-0.786169354599461245
0.601000000000000423,-0.790781944219359656
0.602000000000000424,-0.795241723119598953
0.603000000000000425,-0.799548546196325094
0.604000000000000425,-0.803702338863764965
0.605000000000000426,-0.807703095106443114
0.606000000000000427,-0.811550875560727247
0.607000000000000428,-0.815245805625522069
0.608000000000000429,-0.818788073602267907
0.609000000000000430,-0.822177928863917051
0.610000000000000431,-0.825415680053080747
