# AuFCC110UCD_ILESCA-JS
# h[nm],U(h)[kJ/mol]
0.200000000000000011,80.050314175141096484
0.201000000000000012,75.893363769500865601
0.202000000000000013,73.316819309704428065
0.203000000000000014,71.516348942322139237
0.204000000000000015,70.018383036292959787
0.205000000000000016,68.566159140509938652
0.206000000000000016,67.039983912255038945
0.207000000000000017,65.402475834217085549
0.208000000000000018,63.661848795609181195
0.209000000000000019,61.848056954357318205
0.210000000000000020,59.997964909961559954
0.211000000000000021,58.146727728078836606
0.212000000000000022,56.323336171092286406
0.213000000000000023,54.548861025300880101
0.214000000000000024,52.836361486309598945
0.215000000000000024,51.191741047655980879
0.216000000000000025,49.615067300374263937
0.217000000000000026,48.102040429493435170
0.218000000000000027,46.645415122994037915
0.219000000000000028,45.236264474496216792
0.220000000000000029,43.865031725346455005
0.221000000000000030,42.522353546633908650
0.222000000000000031,41.199662440420453891
0.223000000000000032,39.889589818760363471
0.224000000000000032,38.586198432947426795
0.225000000000000033,37.285075310402000071
0.226000000000000034,35.983315842440063648
0.227000000000000035,34.679427323697524344
0.228000000000000036,33.373176899425196495
0.229000000000000037,32.065405099765293073
0.230000000000000038,30.757822310704419522
0.231000000000000039,29.452801891957506086
0.232000000000000040,28.153180345799871276
0.233000000000000040,26.862072041262997857
0.234000000000000041,25.582703530599754771
0.235000000000000042,24.318270453121566987
0.236000000000000043,23.071818378940456284
0.237000000000000044,21.846147663728647359
0.238000000000000045,20.643741421594008045
0.239000000000000046,19.466715031281587756
0.240000000000000047,18.316785127031998570
0.241000000000000048,17.195255748344656865
0.242000000000000048,16.103019195252752382
0.243000000000000049,15.040569124508612830
0.244000000000000050,14.008023498751663638
0.245000000000000051,13.005155141039660194
0.246000000000000052,12.031427830899454889
0.247000000000000053,11.086036088782414311
0.248000000000000054,10.167947020283730097
0.249000000000000055,9.275942819348752977
0.250000000000000056,8.408662753051256544
0.251000000000000056,7.564643663578702437
0.252000000000000057,6.742358221714657596
0.253000000000000058,5.940250347708373013
0.254000000000000059,5.156767378439690575
0.255000000000000060,4.390388703606743270
0.256000000000000061,3.639650718356822523
0.257000000000000062,2.903168045946590059
0.258000000000000063,2.179651072631799913
0.259000000000000064,1.467919909284772118
0.260000000000000064,0.766914951617751584
0.261000000000000065,0.075704254838290908
0.262000000000000066,-0.606512029413784126
0.263000000000000067,-1.280399884404329169
0.264000000000000068,-1.946492045877248334
0.265000000000000069,-2.605190718861504884
0.266000000000000070,-3.256772108127969467
0.267000000000000071,-3.901392483346667550
0.268000000000000071,-4.539095510800537525
0.269000000000000072,-5.169820597556113562
0.270000000000000073,-5.793412010446871818
0.271000000000000074,-6.409628550372659106
0.272000000000000075,-7.018153581639036354
0.273000000000000076,-7.618605235824491118
0.274000000000000077,-8.210546629532327501
0.275000000000000078,-8.793495954990671493
0.276000000000000079,-9.366936321516131869
0.277000000000000079,-9.930325244122256478
0.278000000000000080,-10.483103692852779432
0.279000000000000081,-11.024704632626949774
0.280000000000000082,-11.554560998406229189
0.281000000000000083,-12.072113064279344385
0.282000000000000084,-12.576815177589045547
0.283000000000000085,-13.068141840491671601
0.284000000000000086,-13.545593131370608830
0.285000000000000087,-14.008699467352130341
0.286000000000000087,-14.457025716849269514
0.287000000000000088,-14.890174677643717160
0.288000000000000089,-15.307789941573526349
0.289000000000000090,-15.709558171497988610
0.290000000000000091,-16.095210819931139667
0.291000000000000092,-16.464525321650409495
0.292000000000000093,-16.817325794767675973
0.293000000000000094,-17.153483286272194874
0.294000000000000095,-17.472915598987892594
0.295000000000000095,-17.775586737301619422
0.296000000000000096,-18.061506008975619864
0.297000000000000097,-18.330726819921540738
0.298000000000000098,-18.583345198038934143
0.299000000000000099,-18.819498081163239078
0.300000000000000100,-19.039361402874185103
0.301000000000000101,-19.243148008431685270
0.302000000000000102,-19.431105431470694356
0.303000000000000103,-19.603513560339461463
0.304000000000000103,-19.760682221135141390
0.305000000000000104,-19.902948702610650855
0.306000000000000105,-20.030675246219537655
0.307000000000000106,-20.144246522654547960
0.308000000000000107,-20.244067114341010694
0.309000000000000108,-20.330559021483264104
0.310000000000000109,-20.404159207446053159
0.311000000000000110,-20.465317197494094614
0.312000000000000111,-20.514492743222671578
0.313000000000000111,-20.552153563395350488
0.314000000000000112,-20.578773170370411094
0.315000000000000113,-20.594828789847149153
0.316000000000000114,-20.600799380301470620
0.317000000000000115,-20.597163757207407997
0.318000000000000116,-20.584398825959418389
0.319000000000000117,-20.562977926317582700
0.320000000000000118,-20.533369290194812606
0.321000000000000119,-20.496034613688458137
0.322000000000000119,-20.451427743427196049
0.323000000000000120,-20.399993476554065808
0.324000000000000121,-20.342166472995639737
0.325000000000000122,-20.278370278071470523
0.326000000000000123,-20.209016452973809663
0.327000000000000124,-20.134503810190928164
0.328000000000000125,-20.055217750555357270
0.329000000000000126,-19.971529698265090502
0.330000000000000127,-19.883796629949216594
0.331000000000000127,-19.792360693624384993
0.332000000000000128,-19.697548913211708310
0.333000000000000129,-19.599672974150539773
0.334000000000000130,-19.499029085553395646
0.335000000000000131,-19.395897914290834763
0.336000000000000132,-19.290544586372615044
0.337000000000000133,-19.183218750999511570
0.338000000000000134,-19.074154702695228281
0.339000000000000135,-18.963571556986096311
0.340000000000000135,-18.851673475176603745
0.341000000000000136,-18.738649933866831532
0.342000000000000137,-18.624676034972285521
0.343000000000000138,-18.509912852134540628
0.344000000000000139,-18.394507809550411537
0.345000000000000140,-18.278595089396723949
0.346000000000000141,-18.162296064183731659
0.347000000000000142,-18.045719750533201875
0.348000000000000143,-17.928963281044222100
0.349000000000000143,-17.812112391079260476
0.350000000000000144,-17.695241917475339477
0.351000000000000145,-17.578416306357024013
0.352000000000000146,-17.461690127399975836
0.353000000000000147,-17.345108592064239161
0.354000000000000148,-17.228708073484863661
0.355000000000000149,-17.112516625872583376
0.356000000000000150,-16.996554501439501195
0.357000000000000151,-16.880834663022358910
0.358000000000000151,-16.765363290729457191
0.359000000000000152,-16.650140281085452187
0.360000000000000153,-16.535159737291870385
0.361000000000000154,-16.420410449358740834
0.362000000000000155,-16.305876362994744966
0.363000000000000156,-16.191537036269952665
0.364000000000000157,-16.077368083185017866
0.365000000000000158,-15.963341603396012047
0.366000000000000159,-15.849426597451568455
0.367000000000000159,-15.735589367002154049
0.368000000000000160,-15.621793899537825823
0.369000000000000161,-15.508002237301166559
0.370000000000000162,-15.394174830107308694
0.371000000000000163,-15.280270871882629891
0.372000000000000164,-15.166248620806721092
0.373000000000000165,-15.052065703011672682
0.374000000000000166,-14.937679399855181117
0.375000000000000167,-14.823046918842843311
0.376000000000000167,-14.708125648328055135
0.377000000000000168,-14.592873396166970323
0.378000000000000169,-14.477248612549871609
0.379000000000000170,-14.361210597271002243
0.380000000000000171,-14.244719691733999767
0.381000000000000172,-14.127737456022924079
0.382000000000000173,-14.010226831396598968
0.383000000000000174,-13.892152288589397102
0.384000000000000175,-13.773479962322818793
0.385000000000000175,-13.654177772450797335
0.386000000000000176,-13.534215532177293895
0.387000000000000177,-13.413565043797339271
0.388000000000000178,-13.292200182423281163
0.389000000000000179,-13.170096968165282192
0.390000000000000180,-13.047233627241402232
0.391000000000000181,-12.923590642495472736
0.392000000000000182,-12.799150793803297788
0.393000000000000183,-12.673899188846876385
0.394000000000000183,-12.547823284735260430
0.395000000000000184,-12.420912900947053359
0.396000000000000185,-12.293160224065058372
0.397000000000000186,-12.164559804767966611
0.398000000000000187,-12.035108547536875534
0.399000000000000188,-11.904805693526606447
0.400000000000000189,-11.773652797043274276
0.401000000000000190,-11.641653696059426792
0.402000000000000191,-11.508814477188666459
0.403000000000000191,-11.375143435529977864
0.404000000000000192,-11.240651029781325576
0.405000000000000193,-11.105349833009867666
0.406000000000000194,-10.969254479454166429
0.407000000000000195,-10.832381607721472960
0.408000000000000196,-10.694749800730129152
0.409000000000000197,-10.556379522734649967
0.410000000000000198,-10.417293053758058363
0.411000000000000199,-10.277514421742823814
0.412000000000000199,-10.137069332718896320
0.413000000000000200,-9.995985099274451002
0.414000000000000201,-9.854290567601784900
0.415000000000000202,-9.712016043378035590
0.416000000000000203,-9.569193216728027807
0.417000000000000204,-9.425855086503410973
0.418000000000000205,-9.282035884100515943
0.419000000000000206,-9.137770997027010011
0.420000000000000207,-8.993096892415273658
0.421000000000000207,-8.848051040669400180
0.422000000000000208,-8.702671839420617061
0.423000000000000209,-8.556998537955577078
0.424000000000000210,-8.411071162270584267
0.425000000000000211,-8.264930440894691088
0.426000000000000212,-8.118617731614332200
0.427000000000000213,-7.972174949222233131
0.428000000000000214,-7.825644494404029317
0.429000000000000214,-7.679069183866525705
0.430000000000000215,-7.532492181802870945
0.431000000000000216,-7.385956932781510886
0.432000000000000217,-7.239507096137091757
0.433000000000000218,-7.093186481934218079
0.434000000000000219,-6.947038988566964335
0.435000000000000220,-6.801108542050090300
0.436000000000000221,-6.655439037050854267
0.437000000000000222,-6.510074279703798261
0.438000000000000222,-6.365057932244671868
0.439000000000000223,-6.220433459493567518
0.440000000000000224,-6.076244077211848449
0.441000000000000225,-5.932532702351789311
0.442000000000000226,-5.789341905213338357
0.443000000000000227,-5.646713863516882093
0.444000000000000228,-5.504690318396979976
0.445000000000000229,-5.363312532317529246
0.446000000000000230,-5.222621248904742330
0.447000000000000230,-5.082656654690873133
0.448000000000000231,-4.943458342757814705
0.449000000000000232,-4.805065278266580364
0.450000000000000233,-4.667515765855751120
0.451000000000000234,-4.530847418888869882
0.452000000000000235,-4.395097130528530016
0.453000000000000236,-4.260301046612092968
0.454000000000000237,-4.126494540302243941
0.455000000000000238,-3.993712188483065972
0.456000000000000238,-3.861987749870996911
0.457000000000000239,-3.731354144807833784
0.458000000000000240,-3.601843436702104384
0.459000000000000241,-3.473486815082954760
0.460000000000000242,-3.346314580230473901
0.461000000000000243,-3.220356129344415397
0.462000000000000244,-3.095639944213144812
0.463000000000000245,-2.972193580343156505
0.464000000000000246,-2.850043657509517381
0.465000000000000246,-2.729215851686586980
0.466000000000000247,-2.609734888318069768
0.467000000000000248,-2.491624536885157948
0.468000000000000249,-2.374907606731400556
0.469000000000000250,-2.259605944102480724
0.470000000000000251,-2.145740430359443174
0.471000000000000252,-2.033330981323525855
0.472000000000000253,-1.922396547711277659
0.473000000000000254,-1.812955116618483853
0.474000000000000254,-1.705023714011826952
0.475000000000000255,-1.598618408187534756
0.476000000000000256,-1.493754314156484408
0.477000000000000257,-1.390445598915951653
0.478000000000000258,-1.288705487568184482
0.479000000000000259,-1.188546270247022196
0.480000000000000260,-1.089979309813957631
0.481000000000000261,-0.993015050285693035
0.482000000000000262,-0.897663025956100369
0.483000000000000262,-0.803931871175806778
0.484000000000000263,-0.711829330753550704
0.485000000000000264,-0.621362270944055828
0.486000000000000265,-0.532536690987958194
0.487000000000000266,-0.445357735170016311
0.488000000000000267,-0.359829705362563812
0.489000000000000268,-0.275956074022152054
0.490000000000000269,-0.193739497607741645
0.491000000000000270,-0.113181830390066823
0.492000000000000270,-0.034284138622122609
0.493000000000000271,0.042953284958003525
0.494000000000000272,0.118530906320290910
0.495000000000000273,0.192449935059285065
0.496000000000000274,0.264712309060325945
0.497000000000000275,0.335320678941471939
0.498000000000000276,0.404278392295812250
0.499000000000000277,0.471589477758366293
0.500000000000000222,0.537258628920866954
0.501000000000000334,0.601291188116853226
0.502000000000000224,0.663693130098721662
0.503000000000000336,0.724471045627849808
0.504000000000000226,0.783632124997536761
0.505000000000000338,0.841184141508590444
0.506000000000000227,0.897135434915573904
0.507000000000000339,0.951494894862176310
0.508000000000000229,1.004271944322241206
0.509000000000000341,1.055476523063295868
0.510000000000000231,1.105119071147810494
0.511000000000000343,1.153210512487607753
0.512000000000000233,1.199762238465285735
0.513000000000000345,1.244786091636610470
0.514000000000000234,1.288294349526463378
0.515000000000000346,1.330299708531077929
0.516000000000000236,1.370815267937809168
0.517000000000000348,1.409854514073825005
0.518000000000000238,1.447431304593982837
0.519000000000000350,1.483559852917887723
0.520000000000000240,1.518254712825326536
0.521000000000000352,1.551530763218940789
0.522000000000000242,1.583403193062244529
0.523000000000000353,1.613887486500772184
0.524000000000000243,1.642999408173420495
0.525000000000000355,1.670754988720802414
0.526000000000000245,1.697170510496643248
0.527000000000000357,1.722262493488157631
0.528000000000000247,1.746047681450452416
0.529000000000000359,1.768543028260068040
0.530000000000000249,1.789765684491840814
0.531000000000000361,1.809732984223297425
0.532000000000000250,1.828462432070041999
0.533000000000000362,1.845971690455560310
0.534000000000000252,1.862278567118156758
0.535000000000000364,1.877401002857642442
0.536000000000000254,1.891357059523949058
0.537000000000000366,1.904164908249526444
0.538000000000000256,1.915842817927040143
0.539000000000000368,1.926409143933699442
0.540000000000000258,1.935882317103053030
0.541000000000000369,1.944280832945064263
0.542000000000000259,1.951623241114770924
0.543000000000000371,1.957928135129782587
0.544000000000000261,1.963214142336449086
0.545000000000000373,1.967499914124474003
0.546000000000000263,1.970804116389391680
0.547000000000000375,1.973145420242155890
0.548000000000000265,1.974542492964953322
0.549000000000000377,1.975013989212035082
0.550000000000000266,1.974578542454354046
0.551000000000000378,1.973254756666403820
0.552000000000000268,1.971061198253717395
0.553000000000000380,1.968016388219181234
0.554000000000000270,1.964138794566224089
0.555000000000000382,1.959446824936809106
0.556000000000000272,1.953958819482023657
0.557000000000000384,1.947693043962956949
0.558000000000000274,1.940667683079381645
0.559000000000000385,1.932900834023761671
0.560000000000000275,1.924410500257886181
0.561000000000000387,1.915214585509419809
0.562000000000000277,1.905330887985607236
0.563000000000000389,1.894777094801128658
0.564000000000000279,1.883570776617251141
0.565000000000000391,1.871729382489151661
0.566000000000000281,1.859270234918443121
0.567000000000000393,1.846210525107615963
0.568000000000000282,1.832567308413311169
0.569000000000000394,1.818357499995130411
0.570000000000000284,1.803597870656793223
0.571000000000000396,1.788305042876174200
0.572000000000000286,1.772495487021058080
0.573000000000000398,1.756185517747136160
0.574000000000000288,1.739391290574947790
0.575000000000000400,1.722128798642214020
0.576000000000000290,1.704413869628404132
0.577000000000000401,1.686262162847828039
0.578000000000000291,1.667689166508044440
0.579000000000000403,1.648710195130059786
0.580000000000000293,1.629340387126933631
0.581000000000000405,1.609594702537245681
0.582000000000000295,1.589487920910260810
0.583000000000000407,1.569034639339063286
0.584000000000000297,1.548249270638577979
0.585000000000000409,1.527146041664803944
0.586000000000000298,1.505738991772215041
0.587000000000000410,1.484041971405628768
0.588000000000000300,1.462068640823581678
0.589000000000000412,1.439832468949596045
0.590000000000000302,1.417346732348336635
0.591000000000000414,1.394624514323143050
0.592000000000000304,1.371678704132017090
0.593000000000000416,1.348521996318590821
0.594000000000000306,1.325166890155143662
0.595000000000000417,1.301625689194376267
0.596000000000000307,1.277910500927052162
0.597000000000000419,1.254033236542216878
0.598000000000000309,1.230005610787154202
0.599000000000000421,1.205839141924083702
0.600000000000000311,1.181545151780581726
0.601000000000000423,1.157134765890860617
0.602000000000000313,1.132618913725129906
0.603000000000000425,1.108008329004066095
0.604000000000000314,1.083313550095779565
0.605000000000000426,1.058544920492380692
0.606000000000000316,1.033712589363615653
0.607000000000000428,1.008826512184789692
0.608000000000000318,0.983896451436469532
0.609000000000000430,0.958931977373276956
0.610000000000000320,0.933942468859478958
0.611000000000000432,0.908937114268577928
0.612000000000000322,0.883924912444834177
0.613000000000000433,0.858914673724015421
0.614000000000000323,0.833915021011252255
0.615000000000000435,0.808934390913556234
0.616000000000000325,0.783981034924903231
0.617000000000000437,0.759063020661472576
0.618000000000000327,0.734188233145095182
0.619000000000000439,0.709364376132604835
0.620000000000000329,0.684598973489157880
0.621000000000000441,0.659899370603390878
0.622000000000000330,0.635272735842502101
0.623000000000000442,0.610726062045223506
0.624000000000000332,0.586266168050940673
0.625000000000000444,0.561899700262855739
0.626000000000000334,0.537633134243678534
0.627000000000000446,0.513472776341773574
0.628000000000000336,0.489424765346275770
0.629000000000000448,0.465495074169305689
0.630000000000000338,0.441689511553799874
0.631000000000000449,0.418013723805137072
0.632000000000000339,0.394473196545234828
0.633000000000000451,0.371073256487370273
0.634000000000000341,0.347819073230427656
0.635000000000000453,0.324715661070884509
0.636000000000000343,0.301767880831461777
0.637000000000000455,0.278980441704643423
0.638000000000000345,0.256357903110170426
0.639000000000000457,0.233904676564801683
0.640000000000000346,0.211625027563431767
0.641000000000000458,0.189523077470019230
0.642000000000000348,0.167602805417443046
0.643000000000000460,0.145868050214821493
0.644000000000000350,0.124322512261465401
0.645000000000000462,0.102969755466092772
0.646000000000000352,0.081813209170537277
0.647000000000000464,0.060856170076615881
0.648000000000000353,0.040101804175495581
0.649000000000000465,0.019553148678253907
0.650000000000000355,-0.000786886052958735
0.651000000000000467,-0.020915514574344547
0.652000000000000357,-0.040830074431131784
0.653000000000000469,-0.060528024230468588
0.654000000000000359,-0.080006941717268187
0.655000000000000471,-0.099264521853838786
0.656000000000000361,-0.118298574903994050
0.657000000000000473,-0.137107024522484522
0.658000000000000362,-0.155687905850300234
0.659000000000000474,-0.174039363616651149
0.660000000000000364,-0.192159650248180158
0.661000000000000476,-0.210047123986147971
0.662000000000000366,-0.227700247012021073
0.663000000000000478,-0.245117583582240423
