# AuFCC110UCD_NC4-JS
# h[nm],U(h)[kJ/mol]
0.149999999999999994,173.246032934275547177
0.150999999999999995,170.555021678509177718
0.151999999999999996,166.900573959972376770
0.152999999999999997,163.050548655810729315
0.153999999999999998,159.315310334145976867
0.154999999999999999,155.775506849059411252
0.156000000000000000,152.411398916805950421
0.157000000000000001,149.171781942804756227
0.158000000000000002,146.007088496197695804
0.159000000000000002,142.882243062047962212
0.160000000000000003,139.778875311438071094
0.161000000000000004,136.692613801123854955
0.162000000000000005,133.628702431040579768
0.163000000000000006,130.597639025321882400
0.164000000000000007,127.611607652842010907
0.165000000000000008,124.681945183547369993
0.166000000000000009,121.817601110598346281
0.167000000000000010,119.024420379134383552
0.168000000000000010,116.305038297090760580
0.169000000000000011,113.659184019243099328
0.170000000000000012,111.084219465704535423
0.171000000000000013,108.575778904887968679
0.172000000000000014,106.128412425557513643
0.173000000000000015,103.736169924043565516
0.174000000000000016,101.393089354216954234
0.175000000000000017,99.093573609963840454
0.176000000000000018,96.832655096227398417
0.177000000000000018,94.606156714507491756
0.178000000000000019,92.410763661107694134
0.179000000000000020,90.244023086062185257
0.180000000000000021,88.104289145261105887
0.181000000000000022,85.990630010024531771
0.182000000000000023,83.902711541590534239
0.183000000000000024,81.840670020907907656
0.184000000000000025,79.804983857397999714
0.185000000000000026,77.796351797630450164
0.186000000000000026,75.815582952875118394
0.187000000000000027,73.863502041149502020
0.188000000000000028,71.940871629229746986
0.189000000000000029,70.048331867107577864
0.190000000000000030,68.186357215123180708
0.191000000000000031,66.355228943483055559
0.192000000000000032,64.555021699413757119
0.193000000000000033,62.785602150690067447
0.194000000000000034,61.046637588114052164
0.195000000000000034,59.337612368523458883
0.196000000000000035,57.657850172471114547
0.197000000000000036,56.006540209370655248
0.198000000000000037,54.382765704487631808
0.199000000000000038,52.785533227699410475
0.200000000000000039,51.213801658381512993
0.201000000000000040,49.666509812525546863
0.202000000000000041,48.142601978736102808
0.203000000000000042,46.641050813158678068
0.204000000000000042,45.160877225869207052
0.205000000000000043,43.701167050765256761
0.206000000000000044,42.261084426840163530
0.207000000000000045,40.839881931254112146
0.208000000000000046,39.436907594942383071
0.209000000000000047,38.051609001256075260
0.210000000000000048,36.683534719287401060
0.211000000000000049,35.332333358238898313
0.212000000000000050,33.997750549666235997
0.213000000000000050,32.679624172849386810
0.214000000000000051,31.377878137007154891
0.215000000000000052,30.092515024522725753
0.216000000000000053,28.823607883563717280
0.217000000000000054,27.571291438052391243
0.218000000000000055,26.335752959262283213
0.219000000000000056,25.117223017592223755
0.220000000000000057,23.915966306307399947
0.221000000000000058,22.732272702094093120
0.222000000000000058,21.566448700815325168
0.223000000000000059,20.418809341434005944
0.224000000000000060,19.289670707081722156
0.225000000000000061,18.179343070000246740
0.226000000000000062,17.088124726762814021
0.227000000000000063,16.016296551912009960
0.228000000000000064,14.964117281978976948
0.229000000000000065,13.931819527763659394
0.230000000000000066,12.919606500711617869
0.231000000000000066,11.927649429124937086
0.232000000000000067,10.956085631687994209
0.233000000000000068,10.005017209235619546
0.234000000000000069,9.074510310702908811
0.235000000000000070,8.164594925620686894
0.236000000000000071,7.275265153208708924
0.237000000000000072,6.406479896916233763
0.238000000000000073,5.558163933024916403
0.239000000000000073,4.730209302520846038
0.240000000000000074,3.922476976725306486
0.241000000000000075,3.134798749033011589
0.242000000000000076,2.366979307421860135
0.243000000000000077,1.618798445071178094
0.244000000000000078,0.890013369362796070
0.245000000000000079,0.180361072658844185
0.246000000000000080,-0.510439268519018774
0.247000000000000081,-1.182683896008032365
0.248000000000000081,-1.836682101047081517
0.249000000000000082,-2.472753907450970789
0.250000000000000111,-3.091227827393429717
0.251000000000000112,-3.692438707265382369
0.252000000000000113,-4.276725678210654635
0.253000000000000114,-4.844430223236781075
0.254000000000000115,-5.395894370275141405
0.255000000000000115,-5.931459018222813739
0.256000000000000116,-6.451462400851059265
0.257000000000000117,-6.956238691509069483
0.258000000000000118,-7.446116749787170974
0.259000000000000119,-7.921419009728788652
0.260000000000000120,-8.382460507788632498
0.261000000000000121,-8.829548047517826959
0.262000000000000122,-9.262979496910158872
0.263000000000000123,-9.683043213453910170
0.264000000000000123,-10.090017591195271862
0.265000000000000124,-10.484170723518115409
0.266000000000000125,-10.865760174873376087
0.267000000000000126,-11.235032854336587604
0.268000000000000127,-11.592224983626014279
0.269000000000000128,-11.937562152063103227
0.270000000000000129,-12.271259450894408616
0.271000000000000130,-12.593521679408652858
0.272000000000000131,-12.904543615364406861
0.273000000000000131,-13.204510342385614052
0.274000000000000132,-13.493597627174461095
0.275000000000000133,-13.771972339626765702
0.276000000000000134,-14.039792909206681770
0.277000000000000135,-14.297209811238053234
0.278000000000000136,-14.544366077094469603
0.279000000000000137,-14.781397822611598514
0.280000000000000138,-15.008434789399723641
0.281000000000000139,-15.225600894097373939
0.282000000000000139,-15.433014780973170588
0.283000000000000140,-15.630790373650423675
0.284000000000000141,-15.819037422093046530
0.285000000000000142,-15.997862041350469298
0.286000000000000143,-16.167367238910419047
0.287000000000000144,-16.327653427848964895
0.288000000000000145,-16.478818923298099719
0.289000000000000146,-16.620960420066445806
0.290000000000000147,-16.754173449552588693
0.291000000000000147,-16.878552814377353997
0.292000000000000148,-16.994192999434527991
0.293000000000000149,-17.101188558314696309
0.294000000000000150,-17.199634474297834430
0.295000000000000151,-17.289626495333330070
0.296000000000000152,-17.371261442633784355
0.297000000000000153,-17.444637492699989423
0.298000000000000154,-17.509854432770183053
0.299000000000000155,-17.567013889846172958
0.300000000000000155,-17.616219533594232871
0.301000000000000156,-17.657577253548712548
0.302000000000000157,-17.691195311162751125
0.303000000000000158,-17.717184467353668254
0.304000000000000159,-17.735658086280558621
0.305000000000000160,-17.746732216169924357
0.306000000000000161,-17.750525648071903362
0.307000000000000162,-17.747159953485741823
0.308000000000000163,-17.736759501838726294
0.309000000000000163,-17.719451458839632352
0.310000000000000164,-17.695365766755532633
0.311000000000000165,-17.664635107680020099
0.312000000000000166,-17.627394850874011922
0.313000000000000167,-17.583782985264782894
0.314000000000000168,-17.533940038188909227
0.315000000000000169,-17.478008981457719528
0.316000000000000170,-17.416135125813074325
0.317000000000000171,-17.348466004824395270
0.318000000000000171,-17.275151249258414055
0.319000000000000172,-17.196342452929165745
0.320000000000000173,-17.112193031008825272
0.321000000000000174,-17.022858071750647468
0.322000000000000175,-16.928494182543328606
0.323000000000000176,-16.829259331182363724
0.324000000000000177,-16.725312683208709785
0.325000000000000178,-16.616814436128080956
0.326000000000000179,-16.503925651287307375
0.327000000000000179,-16.386808084145162212
0.328000000000000180,-16.265624013636475809
0.329000000000000181,-16.140536071290249254
0.330000000000000182,-16.011707070721826085
0.331000000000000183,-15.879299838082312490
0.332000000000000184,-15.743477044008400867
0.333000000000000185,-15.604401037578833566
0.334000000000000186,-15.462233682745921470
0.335000000000000187,-15.317136197674120268
0.336000000000000187,-15.169268997382124198
0.337000000000000188,-15.018791540049681643
0.338000000000000189,-14.865862177317385573
0.339000000000000190,-14.710638008874292737
0.340000000000000191,-14.553274741597050479
0.341000000000000192,-14.393926553474127417
0.342000000000000193,-14.232745962519009808
0.343000000000000194,-14.069883700849180386
0.344000000000000195,-13.905488594080162912
0.345000000000000195,-13.739707446159631132
0.346000000000000196,-13.572684929741487991
0.347000000000000197,-13.404563482177829670
0.348000000000000198,-13.235483207184781662
0.349000000000000199,-13.065581782217872586
0.350000000000000200,-12.894994371573980985
0.351000000000000201,-12.723853545218393180
0.352000000000000202,-12.552289203319450195
0.353000000000000203,-12.380428506457434423
0.354000000000000203,-12.208395811460016844
0.355000000000000204,-12.036312612803261146
0.356000000000000205,-11.864297489505158723
0.357000000000000206,-11.692466057427164827
0.358000000000000207,-11.520930926889136003
0.359000000000000208,-11.349801665493838954
0.360000000000000209,-11.179184766048775757
0.361000000000000210,-11.009183619465551018
0.362000000000000210,-10.839898492510432249
0.363000000000000211,-10.671426510273796850
0.364000000000000212,-10.503861643221267030
0.365000000000000213,-10.337294698684578620
0.366000000000000214,-10.171813316646979075
0.367000000000000215,-10.007501969674468256
0.368000000000000216,-9.844441966842115477
0.369000000000000217,-9.682711461502490735
0.370000000000000218,-9.522385462742189333
0.371000000000000218,-9.363535850371292213
0.372000000000000219,-9.206231393290543963
0.373000000000000220,-9.050537771080822580
0.374000000000000221,-8.896517598660253157
0.375000000000000222,-8.744230453854729745
0.376000000000000223,-8.593732907729336290
0.377000000000000224,-8.445078557529230423
0.378000000000000225,-8.298318062080666024
0.379000000000000226,-8.153499179504667183
0.380000000000000226,-8.010666807098463238
0.381000000000000227,-7.869863023242048783
0.382000000000000228,-7.731127131190194568
0.383000000000000229,-7.594495704613100528
0.384000000000000230,-7.460002634751747408
0.385000000000000231,-7.327679179057653869
0.386000000000000232,-7.197554011189626344
0.387000000000000233,-7.069653272243759723
0.388000000000000234,-6.944000623096385993
0.389000000000000234,-6.820617297743437391
0.390000000000000235,-6.699522157522909360
0.391000000000000236,-6.580731746111399438
0.392000000000000237,-6.464260345188809431
0.393000000000000238,-6.350120030669556215
0.394000000000000239,-6.238320729401984899
0.395000000000000240,-6.128870276241721093
0.396000000000000241,-6.021774471408276597
0.397000000000000242,-5.917037138037933630
0.398000000000000242,-5.814660179849781230
0.399000000000000243,-5.714643638845315010
0.400000000000000244,-5.616985752965421241
0.401000000000000245,-5.521683013632832093
0.402000000000000246,-5.428730223110716402
0.403000000000000247,-5.338120551612269615
0.404000000000000248,-5.249845594099263657
0.405000000000000249,-5.163895426710888081
0.406000000000000250,-5.080258662767444200
0.407000000000000250,-4.998922508296822720
0.408000000000000251,-4.919872817034496748
0.409000000000000252,-4.843094144851260552
0.410000000000000253,-4.768569803565370968
0.411000000000000254,-4.696281914099144750
0.412000000000000255,-4.626211458942481869
0.413000000000000256,-4.558338333888795724
0.414000000000000257,-4.492641399011181313
0.415000000000000258,-4.429098528849543470
0.416000000000000258,-4.367686661781511326
0.417000000000000259,-4.308381848552691906
0.418000000000000260,-4.251159299943899406
0.419000000000000261,-4.195993433555231356
0.420000000000000262,-4.142857919689150847
0.421000000000000263,-4.091725726316664868
0.422000000000000264,-4.042569163112604613
0.423000000000000265,-3.995359924548031128
0.424000000000000266,-3.950069132029703667
0.425000000000000266,-3.906667375077864879
0.426000000000000267,-3.865124751535768066
0.427000000000000268,-3.825410906805646327
0.428000000000000269,-3.787495072107362581
0.429000000000000270,-3.751346101757544460
0.430000000000000271,-3.716932509468239054
0.431000000000000272,-3.684222503665530724
0.432000000000000273,-3.653184021829681605
0.433000000000000274,-3.623784763859645430
0.434000000000000274,-3.595992224465820009
0.435000000000000275,-3.569773724595953102
0.436000000000000276,-3.545096441900130291
0.437000000000000277,-3.521927440241690910
0.438000000000000278,-3.500233698261689064
0.439000000000000279,-3.479982137005532827
0.440000000000000280,-3.461139646620905896
0.441000000000000281,-3.443673112137017434
0.442000000000000282,-3.427549438335840026
0.443000000000000282,-3.412735573726363381
0.444000000000000283,-3.399198533633902120
0.445000000000000284,-3.386905422416528033
0.446000000000000285,-3.375823454821447633
0.447000000000000286,-3.365919976494629928
0.448000000000000287,-3.357162483657066154
0.449000000000000288,-3.349518641961787946
0.450000000000000289,-3.342956304545745549
0.451000000000000290,-3.337443529291143740
0.452000000000000290,-3.332948595311033380
0.453000000000000291,-3.329440018674069357
0.454000000000000292,-3.326886567383684934
0.455000000000000293,-3.325257275626979148
0.456000000000000294,-3.324521457308782235
0.457000000000000295,-3.324648718886457743
0.458000000000000296,-3.325608971521083479
0.459000000000000297,-3.327372442560677435
0.460000000000000298,-3.329909686371240518
0.461000000000000298,-3.333191594531259572
0.462000000000000299,-3.337189405405492693
0.463000000000000300,-3.341874713113594630
0.464000000000000301,-3.347219475909354092
0.465000000000000302,-3.353196023985986152
0.466000000000000303,-3.359777066723084626
0.467000000000000304,-3.366935699390503522
0.468000000000000305,-3.374645409324571688
0.469000000000000306,-3.382880081591701948
0.470000000000000306,-3.391614004154478668
0.471000000000000307,-3.400821872555039427
0.472000000000000308,-3.410478794130539004
0.473000000000000309,-3.420560291775193829
0.474000000000000310,-3.431042307263241664
0.475000000000000311,-3.441901204147147730
0.476000000000000312,-3.453113770244864433
0.477000000000000313,-3.464657219730095328
0.478000000000000314,-3.476509194839039196
0.479000000000000314,-3.488647767207108785
0.480000000000000315,-3.501051438848634234
0.481000000000000316,-3.513699142792683805
0.482000000000000317,-3.526570243387522119
0.483000000000000318,-3.539644536286338905
0.484000000000000319,-3.552902248126428297
0.485000000000000320,-3.566324035913890356
0.486000000000000321,-3.579890986125593422
0.487000000000000322,-3.593584613539982708
0.488000000000000322,-3.607386859808020318
0.489000000000000323,-3.621280091775348264
0.490000000000000324,-3.635247099566490281
0.491000000000000325,-3.649271094441694174
0.492000000000000326,-3.663335706436723793
0.493000000000000327,-3.677424981795763159
0.494000000000000328,-3.691523380207257787
0.495000000000000329,-3.705615771852339257
0.496000000000000330,-3.719687434275209093
0.497000000000000330,-3.733724049084679475
0.498000000000000331,-3.747711698495705512
0.499000000000000332,-3.761636861719665603
0.500000000000000333,-3.775486411211844029
0.501000000000000334,-3.789247608784285681
0.502000000000000335,-3.802908101592071155
0.503000000000000336,-3.816455918000757119
0.504000000000000337,-3.829879463342567902
0.505000000000000338,-3.843167515568620018
0.506000000000000338,-3.856309220804342797
0.507000000000000339,-3.869294088814984267
0.508000000000000340,-3.882111988387858759
0.509000000000000341,-3.894753142637907395
0.510000000000000342,-3.907208124242740332
0.511000000000000343,-3.919467850613352233
0.512000000000000344,-3.931523579006301894
0.513000000000000345,-3.943366901583080786
0.514000000000000346,-3.954989740422244271
0.515000000000000346,-3.966384342489438275
0.516000000000000347,-3.977543274570621179
0.517000000000000348,-3.988459418173360582
0.518000000000000349,-3.999125964400943367
0.519000000000000350,-4.009536408803938023
0.520000000000000351,-4.019684546213641241
0.521000000000000352,-4.029564465561636943
0.522000000000000353,-4.039170544689579145
0.523000000000000353,-4.048497445153137697
0.524000000000000354,-4.057540107023918097
0.525000000000000355,-4.066293743692941831
0.526000000000000356,-4.074753836679166241
0.527000000000000357,-4.082916130446458070
0.528000000000000358,-4.090776627232129314
0.529000000000000359,-4.098331581890144015
0.530000000000000360,-4.105577496751889655
0.531000000000000361,-4.112511116507343800
0.532000000000000361,-4.119129423109271215
0.533000000000000362,-4.125429630703001393
0.534000000000000363,-4.131409180584193486
0.535000000000000364,-4.137065736186930742
0.536000000000000365,-4.142397178104277877
0.537000000000000366,-4.147401599143423212
0.538000000000000367,-4.152077299417298306
0.539000000000000368,-4.156422781474685024
0.540000000000000369,-4.160436745470364350
0.541000000000000369,-4.164118084377177453
0.542000000000000370,-4.167465879241375681
0.543000000000000371,-4.170479394482866198
0.544000000000000372,-4.173158073241674870
0.545000000000000373,-4.175501532771903612
0.546000000000000374,-4.177509559884438950
0.547000000000000375,-4.179182106439466970
0.548000000000000376,-4.180519284889930631
0.549000000000000377,-4.181521363876803399
0.550000000000000377,-4.182188763877141113
0.551000000000000378,-4.182522052905672361
0.552000000000000379,-4.182521942270748028
0.553000000000000380,-4.182189282385286866
0.554000000000000381,-4.181525058633306813
0.555000000000000382,-4.180530387292727745
0.556000000000000383,-4.179206511514736100
0.557000000000000384,-4.177554797360362393
0.558000000000000385,-4.175576729894500794
0.559000000000000385,-4.173273909337779308
0.560000000000000386,-4.170648047276506176
0.561000000000000387,-4.167700962930964259
0.562000000000000388,-4.164434579482191978
0.563000000000000389,-4.160850920457421331
0.564000000000000390,-4.156952106174212958
0.565000000000000391,-4.152740350243376177
0.566000000000000392,-4.148217956130653583
0.567000000000000393,-4.143387313777160408
0.568000000000000393,-4.138250896278456104
0.569000000000000394,-4.132811256622206386
0.570000000000000395,-4.127071024484260775
0.571000000000000396,-4.121032903082935128
0.572000000000000397,-4.114699666091387265
0.573000000000000398,-4.108074154607757933
0.574000000000000399,-4.101159274182858638
0.575000000000000400,-4.093957991905122107
0.576000000000000401,-4.086473333542445019
0.577000000000000401,-4.078708380740707184
0.578000000000000402,-4.070666268278428923
0.579000000000000403,-4.062350181377330394
0.580000000000000404,-4.053763353068330133
0.581000000000000405,-4.044909061612541379
0.582000000000000406,-4.035790627976866496
0.583000000000000407,-4.026411413363667258
0.584000000000000408,-4.016774816794137948
0.585000000000000409,-4.006884272744744457
0.586000000000000409,-3.996743248836369222
0.587000000000000410,-3.986355243575558038
0.588000000000000411,-3.975723784147319861
0.589000000000000412,-3.964852424259050601
0.590000000000000413,-3.953744742034864146
0.591000000000000414,-3.942404337959898530
0.592000000000000415,-3.930834832873993268
0.593000000000000416,-3.919039866014082385
0.594000000000000417,-3.907023093104812883
0.595000000000000417,-3.894788184496781103
0.596000000000000418,-3.882338823351656032
0.597000000000000419,-3.869678703873809411
0.598000000000000420,-3.856811529587610643
0.599000000000000421,-3.843741011659917550
0.600000000000000422,-3.830470867267097734
0.601000000000000423,-3.817004818005931277
0.602000000000000424,-3.803346588347808144
0.603000000000000425,-3.789499904135584352
0.604000000000000425,-3.775468491122435211
0.605000000000000426,-3.761256073552095902
0.606000000000000427,-3.746866372779910304
0.607000000000000428,-3.732303105933892251
0.608000000000000429,-3.717569984615431089
0.609000000000000430,-3.702670713638682720
0.610000000000000431,-3.687608989808354387
