# AuFCC110UCD_BUTENE13-AC
# h[nm],U(h)[kJ/mol]
0.149999999999999994,113.219724795288740893
0.150999999999999995,109.877886639893020515
0.151999999999999996,107.631275007954172906
0.152999999999999997,105.670384615720081456
0.153999999999999998,103.697491476204575633
0.154999999999999999,101.651890954616476392
0.156000000000000000,99.564064472347084234
0.157000000000000001,97.484496453038232744
0.158000000000000002,95.453810777001564247
0.159000000000000002,93.494303007496498026
0.160000000000000003,91.611378514515962479
0.161000000000000004,89.798598587514646852
0.162000000000000005,88.043144623002149274
0.163000000000000006,86.330301651289005349
0.164000000000000007,84.646539396907215291
0.165000000000000008,82.981256542490257289
0.166000000000000009,81.327458308258698594
0.167000000000000010,79.681687315400594684
0.168000000000000010,78.043500714435552368
0.169000000000000011,76.414728023553749381
0.170000000000000012,74.798678980243764158
0.171000000000000013,73.199411473992967103
0.172000000000000014,71.621121486273210621
0.173000000000000015,70.067681012941150698
0.174000000000000016,68.542325185350421179
0.175000000000000017,67.047474339433989599
0.176000000000000018,65.584668482849252769
0.177000000000000018,64.154588489168475007
0.178000000000000019,62.757138712069753694
0.179000000000000020,61.391568214850977370
0.180000000000000021,60.056611438839624384
0.181000000000000022,58.750633168057063926
0.182000000000000023,57.471766605851790644
0.183000000000000024,56.218036967422676753
0.184000000000000025,54.987466053865333038
0.185000000000000026,53.778155750220818732
0.186000000000000026,52.588350289163749096
0.187000000000000027,51.416478491211094592
0.188000000000000028,50.261178101576895472
0.189000000000000029,49.121304871993707764
0.190000000000000030,47.995929262127766890
0.191000000000000031,46.884323633417373856
0.192000000000000032,45.785942643528770191
0.193000000000000033,44.700399277442244284
0.194000000000000034,43.627438616541752481
0.195000000000000034,42.566911085335171094
0.196000000000000035,41.518746553179958880
0.197000000000000036,40.482930324625122864
0.198000000000000037,39.459481739357741503
0.199000000000000038,38.448435828777704160
0.200000000000000039,37.449828244418149836
0.201000000000000040,36.463683484256648626
0.202000000000000041,35.490006294715911395
0.203000000000000042,34.528776015655807896
0.204000000000000042,33.579943558813795335
0.205000000000000043,32.643430662407006082
0.206000000000000044,31.719131041276018124
0.207000000000000045,30.806913048462622129
0.208000000000000046,29.906623476187412791
0.209000000000000047,29.018092147942059711
0.210000000000000048,28.141136985405800885
0.211000000000000049,27.275569271190015286
0.212000000000000050,26.421198868534538917
0.213000000000000050,25.577839200018914312
0.214000000000000051,24.745311827513710057
0.215000000000000052,23.923450513776010951
0.216000000000000053,23.112104681409796569
0.217000000000000054,22.311142216776108427
0.218000000000000055,21.520451594499554915
0.219000000000000056,20.739943322326176656
0.220000000000000057,19.969550726242069061
0.221000000000000058,19.209230112099056953
0.222000000000000058,18.458960352718790432
0.223000000000000059,17.718741958853506446
0.224000000000000060,16.988595698785399435
0.225000000000000061,16.268560835097332529
0.226000000000000062,15.558693048598644992
0.227000000000000063,14.859062118890381754
0.228000000000000064,14.169749428942386871
0.229000000000000065,13.490845357644198899
0.230000000000000066,12.822446619878871132
0.231000000000000066,12.164653608513564365
0.232000000000000067,11.517567787043343941
0.233000000000000068,10.881289175667092195
0.234000000000000069,10.255913967497750861
0.235000000000000070,9.641532305560403415
0.236000000000000071,9.038226245336607789
0.237000000000000072,8.446067921968630543
0.238000000000000073,7.865117935923139569
0.239000000000000073,7.295423965987215986
0.240000000000000074,6.737019613967538234
0.241000000000000075,6.189923481417241469
0.242000000000000076,5.654138475130694452
0.243000000000000077,5.129651335028072801
0.244000000000000078,4.616432375391194221
0.245000000000000079,4.114435428192618538
0.246000000000000080,3.623597975462865772
0.247000000000000081,3.143841456236630361
0.248000000000000081,2.675071732583222950
0.249000000000000082,2.217179698525784115
0.250000000000000111,1.770042015256272361
0.251000000000000112,1.333521955928183456
0.252000000000000113,0.907470343420908265
0.253000000000000114,0.491726564792311471
0.254000000000000115,0.086119646632656865
0.255000000000000115,-0.309530623818725537
0.256000000000000116,-0.695412546164576151
0.257000000000000117,-1.071721336453873574
0.258000000000000118,-1.438657951464728413
0.259000000000000119,-1.796427919240405346
0.260000000000000120,-2.145240186427670004
0.261000000000000121,-2.485305991923562718
0.262000000000000122,-2.816837775292782453
0.263000000000000123,-3.140048127383416876
0.264000000000000123,-3.455148789557063616
0.265000000000000124,-3.762349706968077356
0.266000000000000125,-4.061858140384685179
0.267000000000000126,-4.353877840147416300
0.268000000000000127,-4.638608285013669175
0.269000000000000128,-4.916243987843301078
0.270000000000000129,-5.186973869343370680
0.271000000000000130,-5.450980700411044211
0.272000000000000131,-5.708440612992761842
0.273000000000000131,-5.959522678816048469
0.274000000000000132,-6.204388554846127946
0.275000000000000133,-6.443192193872290474
0.276000000000000134,-6.676079618236729019
0.277000000000000135,-6.903188754378822622
0.278000000000000136,-7.124649325579751391
0.279000000000000137,-7.340582800051099532
0.280000000000000138,-7.551102391315571261
0.281000000000000139,-7.756313107674921881
0.282000000000000139,-7.956311847445877383
0.283000000000000140,-8.151187536567295666
0.284000000000000141,-8.341021305137019226
0.285000000000000142,-8.525886699422848380
0.286000000000000143,-8.705849925904910691
0.287000000000000144,-8.880970123944013750
0.288000000000000145,-9.051299663730267397
0.289000000000000146,-9.216884466243735474
0.290000000000000147,-9.377764342054467406
0.291000000000000147,-9.533973345897692298
0.292000000000000148,-9.685540144081455693
0.293000000000000149,-9.832488391914401049
0.294000000000000150,-9.974837118480596843
0.295000000000000151,-10.112601116233083332
0.296000000000000152,-10.245791333027458592
0.297000000000000153,-10.374415264369112322
0.298000000000000154,-10.498477343802125716
0.299000000000000155,-10.617979329522045262
0.300000000000000155,-10.732920685448808840
0.301000000000000156,-10.843298955147986362
0.302000000000000157,-10.949110127138258264
0.303000000000000158,-11.050348990268982874
0.304000000000000159,-11.147009477994268778
0.305000000000000160,-11.239085000507284207
0.306000000000000161,-11.326568763831550868
0.307000000000000162,-11.409454075093140801
0.308000000000000163,-11.487734633319206523
0.309000000000000163,-11.561404805224057668
0.310000000000000164,-11.630459885553610988
0.311000000000000165,-11.694896341662186501
0.312000000000000166,-11.754712042092887003
0.313000000000000167,-11.809906469023475850
0.314000000000000168,-11.860480914524167417
0.315000000000000169,-11.906438660652025163
0.316000000000000170,-11.947785143479020320
0.317000000000000171,-11.984528101216799456
0.318000000000000171,-12.016677706661768710
0.319000000000000172,-12.044246684238888889
0.320000000000000173,-12.067250411971739865
0.321000000000000174,-12.085707008750542713
0.322000000000000175,-12.099637407308851067
0.323000000000000176,-12.109065413353745200
0.324000000000000177,-12.114017751324141159
0.325000000000000178,-12.114524097276611059
0.326000000000000179,-12.110617099420146303
0.327000000000000179,-12.102332386837552747
0.328000000000000180,-12.089708566945462920
0.329000000000000181,-12.072787212255246203
0.330000000000000182,-12.051612837003526479
0.331000000000000183,-12.026232864226066965
0.332000000000000184,-11.996697583849334379
0.333000000000000185,-11.963060102373631821
0.334000000000000186,-11.925376284717943420
0.335000000000000187,-11.883704688791278059
0.336000000000000187,-11.838106493348016457
0.337000000000000188,-11.788645419675455983
0.338000000000000189,-11.735387647651466025
0.339000000000000190,-11.678401726697952512
0.340000000000000191,-11.617758482142596321
0.341000000000000192,-11.553530917487474738
0.342000000000000193,-11.485794113067473887
0.343000000000000194,-11.414625121566157162
0.344000000000000195,-11.340102860839385457
0.345000000000000195,-11.262308004480868107
0.346000000000000196,-11.181322870545363557
0.347000000000000197,-11.097231308828131802
0.348000000000000198,-11.010118587080919283
0.349000000000000199,-10.920071276526542192
0.350000000000000200,-10.827177137016235520
0.351000000000000201,-10.731525002155304804
0.352000000000000202,-10.633204664704958731
0.353000000000000203,-10.532306762550028623
0.354000000000000203,-10.428922665504703815
0.355000000000000204,-10.323144363210708718
0.356000000000000205,-10.215064354365619437
0.357000000000000206,-10.104775537501915039
0.358000000000000207,-9.992371103520856224
0.359000000000000208,-9.877944430169719681
0.360000000000000209,-9.761588978634904379
0.361000000000000210,-9.643398192408586311
0.362000000000000210,-9.523465398571865137
0.363000000000000211,-9.401883711623266748
0.364000000000000212,-9.278745939967969036
0.365000000000000213,-9.154144495169713736
0.366000000000000214,-9.028171304055183199
0.367000000000000215,-8.900917723748268173
0.368000000000000216,-8.772474459700330129
0.369000000000000217,-8.642931486771471938
0.370000000000000218,-8.512377973407515341
0.371000000000000218,-8.380902208947215826
0.372000000000000219,-8.248591534085070620
0.373000000000000220,-8.115532274506076504
0.374000000000000221,-7.981809677700421268
0.375000000000000222,-7.847507852958024444
0.376000000000000223,-7.712709714535757044
0.377000000000000224,-7.577496927982903863
0.378000000000000225,-7.441949859604056527
0.379000000000000226,-7.306147529032609000
0.380000000000000226,-7.170167564882459210
0.381000000000000227,-7.034086163440089301
0.382000000000000228,-6.897978050354767632
0.383000000000000229,-6.761916445280000687
0.384000000000000230,-6.625973029415263227
0.385000000000000231,-6.490217915893772727
0.386000000000000232,-6.354719622958295844
0.387000000000000233,-6.219545049864415809
0.388000000000000234,-6.084759455447706245
0.389000000000000234,-5.950426439289307368
0.390000000000000235,-5.816607925411908298
0.391000000000000236,-5.683364148436842456
0.392000000000000237,-5.550753642131025956
0.393000000000000238,-5.418833230271699719
0.394000000000000239,-5.287658019755470562
0.395000000000000240,-5.157281395877718388
0.396000000000000241,-5.027755019707671025
0.397000000000000242,-4.899128827484010351
0.398000000000000242,-4.771451031955975530
0.399000000000000243,-4.644768125594578301
0.400000000000000244,-4.519124885598754915
0.401000000000000245,-4.394564380621945432
0.402000000000000246,-4.271127979144459630
0.403000000000000247,-4.148855359417945365
0.404000000000000248,-4.027784520908957333
0.405000000000000249,-3.907951797169242347
0.406000000000000250,-3.789391870061437295
0.407000000000000250,-3.672137785269841803
0.408000000000000251,-3.556220969026917977
0.409000000000000252,-3.441671245987584005
0.410000000000000253,-3.328516858184296545
0.411000000000000254,-3.216784484997517346
0.412000000000000255,-3.106499264077291933
0.413000000000000256,-2.997684813153282057
0.414000000000000257,-2.890363252671817040
0.415000000000000258,-2.784555229200300630
0.416000000000000258,-2.680279939540563650
0.417000000000000259,-2.577555155494507311
0.418000000000000260,-2.476397249226877761
0.419000000000000261,-2.376821219171525001
0.420000000000000262,-2.278840716429311630
0.421000000000000263,-2.182468071607206905
0.422000000000000264,-2.087714322049941007
0.423000000000000265,-1.994589239416922677
0.424000000000000266,-1.903101357559211282
0.425000000000000266,-1.813258000652331337
0.426000000000000267,-1.725065311542885782
0.427000000000000268,-1.638528280268119586
0.428000000000000269,-1.553650772709364691
0.429000000000000270,-1.470435559341853882
0.430000000000000271,-1.388884344044724717
0.431000000000000272,-1.308997792936886118
0.432000000000000273,-1.230775563205619205
0.433000000000000274,-1.154216331896467107
0.434000000000000274,-1.079317824634232981
0.435000000000000275,-1.006076844246565072
0.436000000000000276,-0.934489299262772577
0.437000000000000277,-0.864550232261998675
0.438000000000000278,-0.796253848046245105
0.439000000000000279,-0.729593541614991015
0.440000000000000280,-0.664561925919406438
0.441000000000000281,-0.601150859375498059
0.442000000000000282,-0.539351473116704727
0.443000000000000282,-0.479154197967521678
0.444000000000000283,-0.420548791121162668
0.445000000000000284,-0.363524362505099397
0.446000000000000285,-0.308069400819468153
0.447000000000000286,-0.254171799234680085
0.448000000000000287,-0.201818880735055217
0.449000000000000288,-0.150997423096853656
0.450000000000000289,-0.101693683489584380
0.451000000000000290,-0.053893422690690071
0.452000000000000290,-0.007581928904461336
0.453000000000000291,0.037255958823091961
0.454000000000000292,0.080635827600778337
0.455000000000000293,0.122573668106877393
0.456000000000000294,0.163085852427666100
0.457000000000000295,0.202189112325008191
0.458000000000000296,0.239900517937360197
0.459000000000000297,0.276237456917955315
0.460000000000000298,0.311217614013198973
0.461000000000000298,0.344858951083744536
0.462000000000000299,0.377179687570070088
0.463000000000000300,0.408198281403884533
0.464000000000000301,0.437933410366031506
0.465000000000000302,0.466403953891113332
0.466000000000000303,0.493628975318609886
0.467000000000000304,0.519627704589691986
0.468000000000000305,0.544419521388494254
0.469000000000000306,0.568023938726328836
0.470000000000000306,0.590460586966703005
0.471000000000000307,0.611749198288836893
0.472000000000000308,0.631909591586834241
0.473000000000000309,0.650961657801498284
0.474000000000000310,0.668925345681291139
0.475000000000000311,0.685820647968812147
0.476000000000000312,0.701667588008686671
0.477000000000000313,0.716486206772775969
0.478000000000000314,0.730296550298061398
0.479000000000000314,0.743118657532549576
0.480000000000000315,0.754972548584291192
0.481000000000000316,0.765878213368308747
0.482000000000000317,0.775855600646215282
0.483000000000000318,0.784924607452985423
0.484000000000000319,0.793105068905311517
0.485000000000000320,0.800416748385721966
0.486000000000000321,0.806879328096664183
0.487000000000000322,0.812512399978479238
0.488000000000000322,0.817335456985243569
0.489000000000000323,0.821367884712235985
0.490000000000000324,0.824628953368830131
0.491000000000000325,0.827137810090438519
0.492000000000000326,0.828913471583180184
0.493000000000000327,0.829974817094810802
0.494000000000000328,0.830340581705439562
0.495000000000000329,0.830029349931608929
0.496000000000000330,0.829059549637132576
0.497000000000000330,0.827449446244256981
0.498000000000000331,0.825217137238545839
0.499000000000000332,0.822380546961017478
0.500000000000000333,0.818957421680969078
0.501000000000000334,0.814965324943037972
0.502000000000000335,0.810421633181965695
0.503000000000000336,0.805343531598667339
0.504000000000000337,0.799748010291147060
0.505000000000000338,0.793651860633901807
0.506000000000000338,0.787071671899453928
0.507000000000000339,0.780023828115762541
0.508000000000000340,0.772524505153225460
0.509000000000000341,0.764589668035128733
0.510000000000000342,0.756235068465394455
0.511000000000000343,0.747476242567588822
0.512000000000000344,0.738328508829174557
0.513000000000000345,0.728806966245103549
0.514000000000000346,0.718926492654863414
0.515000000000000346,0.708701743267245332
0.516000000000000347,0.698147149367096098
0.517000000000000348,0.687276917198415327
0.518000000000000349,0.676105027018306659
0.519000000000000350,0.664645232316291690
0.520000000000000351,0.652911059193569621
0.521000000000000352,0.640915805897016910
0.522000000000000353,0.628672542502633935
0.523000000000000353,0.616194110743381929
0.524000000000000354,0.603493123976350465
0.525000000000000355,0.590581967284296572
0.526000000000000356,0.577472797706771290
0.527000000000000357,0.564177544595975355
0.528000000000000358,0.550707910092768316
0.529000000000000359,0.537075369718179929
0.530000000000000360,0.523291173075980498
0.531000000000000361,0.509366344661888570
0.532000000000000361,0.495311684775122607
0.533000000000000362,0.481137770528062447
0.534000000000000363,0.466854956949930067
0.535000000000000364,0.452473378180421881
0.536000000000000365,0.438002948749363519
0.537000000000000366,0.423453364938541577
0.538000000000000367,0.408834106221931393
0.539000000000000368,0.394154436780645656
0.540000000000000369,0.379423407089036879
0.541000000000000369,0.364649855568424108
0.542000000000000370,0.349842410305042706
0.543000000000000371,0.335009490828902801
0.544000000000000372,0.320159309950274917
0.545000000000000373,0.305299875650681896
0.546000000000000374,0.290438993025297965
0.547000000000000375,0.275584266273765199
0.548000000000000376,0.260743100736503197
0.549000000000000377,0.245922704973701833
0.550000000000000377,0.231130092884222288
0.551000000000000378,0.216372085861717522
0.552000000000000379,0.201655314985418249
0.553000000000000380,0.186986223242990468
0.554000000000000381,0.172371067783080506
0.555000000000000382,0.157815922195125968
0.556000000000000383,0.143326678814137826
0.557000000000000384,0.128909051048232998
0.558000000000000385,0.114568575726734914
0.559000000000000385,0.100310615466734851
0.560000000000000386,0.086140361056138384
0.561000000000000387,0.072062833851158331
0.562000000000000388,0.058082888186415493
0.563000000000000389,0.044205213795771400
0.564000000000000390,0.030434338242158621
0.565000000000000391,0.016774629354654590
0.566000000000000392,0.003230297671181681
0.567000000000000393,-0.010194601114776103
0.568000000000000393,-0.023496163704975981
0.569000000000000394,-0.036670636746223326
0.570000000000000395,-0.049714414380575292
0.571000000000000396,-0.062624035797362754
0.572000000000000397,-0.075396182788321456
0.573000000000000398,-0.088027677307080540
0.574000000000000399,-0.100515479034270785
0.575000000000000400,-0.112856682949381448
0.576000000000000401,-0.125048516910498564
0.577000000000000401,-0.137088339243008617
0.578000000000000402,-0.148973636338290222
0.579000000000000403,-0.160702020263342849
0.580000000000000404,-0.172271226382358783
0.581000000000000405,-0.183679110991075645
0.582000000000000406,-0.194923648964788754
0.583000000000000407,-0.206002931420856850
0.584000000000000408,-0.216915163396438848
0.585000000000000409,-0.227658661542217089
0.586000000000000409,-0.238231851832848424
0.587000000000000410,-0.248633267294730315
0.588000000000000411,-0.258861545751777444
0.589000000000000412,-0.268915427589787037
0.590000000000000413,-0.278793753539932965
0.591000000000000414,-0.288495462481954235
0.592000000000000415,-0.298019589267517371
0.593000000000000416,-0.307365262564220365
0.594000000000000417,-0.316531702720699859
0.595000000000000417,-0.325518219653218477
0.596000000000000418,-0.334324210754151530
0.597000000000000419,-0.342949158822701161
0.598000000000000420,-0.351392630018194541
0.599000000000000421,-0.359654271836236439
0.600000000000000422,-0.367733811108050257
0.601000000000000423,-0.375631052023200018
0.602000000000000424,-0.383345874175983592
0.603000000000000425,-0.390878230635690271
0.604000000000000425,-0.398228146040895403
0.605000000000000426,-0.405395714717979416
0.606000000000000427,-0.412381098824054326
0.607000000000000428,-0.419184526514323974
0.608000000000000429,-0.425806290134169374
0.609000000000000430,-0.432246744435816788
0.610000000000000431,-0.438506304819916815
0.611000000000000432,-0.444585445601900997
0.612000000000000433,-0.450484698303238340
0.613000000000000433,-0.456204649967661191
0.614000000000000434,-0.461745941502286761
