# AuFCC110UCD_THRSCA-AC
# h[nm],U(h)[kJ/mol]
0.149999999999999994,120.012653103240978680
0.150999999999999995,117.038797157513641878
0.151999999999999996,115.164340134550158723
0.152999999999999997,113.570540462259216952
0.153999999999999998,111.955241051021999965
0.154999999999999999,110.255910205354368259
0.156000000000000000,108.502438841029103855
0.157000000000000001,106.745182108448744884
0.158000000000000002,105.024716292496606229
0.159000000000000002,103.363233746776742805
0.160000000000000003,101.765975736722225520
0.161000000000000004,100.226331614851176255
0.162000000000000005,98.731369180381776118
0.163000000000000006,97.266372894990155373
0.164000000000000007,95.817957575808890169
0.165000000000000008,94.375821474075422657
0.166000000000000009,92.933412055451540823
0.167000000000000010,91.487829941672572431
0.168000000000000010,90.039270029839968856
0.169000000000000011,88.590239774623753988
0.170000000000000012,87.144728447738117438
0.171000000000000013,85.707440731452933846
0.172000000000000014,84.283158661979413750
0.173000000000000015,82.876258933776426829
0.174000000000000016,81.490386966801324320
0.175000000000000017,80.128273039662502697
0.176000000000000018,78.791667066462878211
0.177000000000000018,77.481365227092140913
0.178000000000000019,76.197301923385609257
0.179000000000000020,74.938683045723365694
0.180000000000000021,73.704140251566116149
0.181000000000000022,72.491890130712661744
0.182000000000000023,71.299886257607624884
0.183000000000000024,70.125955895992518663
0.184000000000000025,68.967916355795082950
0.185000000000000026,67.823668638701377631
0.186000000000000026,66.691268048656255019
0.187000000000000027,65.568972931261541248
0.188000000000000028,64.455273710614989113
0.189000000000000029,63.348904993085611181
0.190000000000000030,62.248843785647387961
0.191000000000000031,61.154296907794218896
0.192000000000000032,60.064680528667011572
0.193000000000000033,58.979594492916262993
0.194000000000000034,57.898793757814061678
0.195000000000000034,56.822158888123851739
0.196000000000000035,55.749667173125331487
0.197000000000000036,54.681365562976040451
0.198000000000000037,53.617346283609229829
0.199000000000000038,52.557725689520268020
0.200000000000000039,51.502626656672418903
0.201000000000000040,50.452164604658833014
0.202000000000000041,49.406437067076211633
0.203000000000000042,48.365516599008728349
0.204000000000000042,47.329446716711544241
0.205000000000000043,46.298240502552843623
0.206000000000000044,45.271881473301235133
0.207000000000000045,44.250326297257537078
0.208000000000000046,43.233508951066518478
0.209000000000000047,42.221345926206915067
0.210000000000000048,41.213742124476816286
0.211000000000000049,40.210597118067980205
0.212000000000000050,39.211811490330738650
0.213000000000000050,38.217293015818803781
0.214000000000000051,37.226962480839134173
0.215000000000000052,36.240758987095702537
0.216000000000000053,35.258644620032136174
0.217000000000000054,34.280608399382217044
0.218000000000000055,33.306669461727281600
0.219000000000000056,32.336879453254091743
0.220000000000000057,31.371324135297811608
0.221000000000000058,30.410124225687447108
0.222000000000000058,29.453435515522624399
0.223000000000000059,28.501448314040477072
0.224000000000000060,27.554386283953192560
0.225000000000000061,26.612504736380163450
0.226000000000000062,25.676088458596090902
0.227000000000000063,24.745449149617293472
0.228000000000000064,23.820922538491196008
0.229000000000000065,22.902865258362773204
0.230000000000000066,21.991651546278195184
0.231000000000000066,21.087669834527368096
0.232000000000000067,20.191319294386985916
0.233000000000000068,19.303006387628482088
0.234000000000000069,18.423141475307438952
0.235000000000000070,17.552135527323972752
0.236000000000000071,16.690396970189731007
0.237000000000000072,15.838328704475790332
0.238000000000000073,14.996325317652374309
0.239000000000000073,14.164770512545365122
0.240000000000000074,13.344034766482337773
0.241000000000000075,12.534473231436313867
0.242000000000000076,11.736423881119616652
0.243000000000000077,10.950205907055458709
0.244000000000000078,10.176118362167063225
0.245000000000000079,9.414439047368833968
0.246000000000000080,8.665423634015201770
0.247000000000000081,7.929305012839217071
0.248000000000000081,7.206292858180049166
0.249000000000000082,6.496573394828502046
0.250000000000000111,5.800309353687262970
0.251000000000000112,5.117640101620854587
0.252000000000000113,4.448681930328045375
0.253000000000000114,3.793528488782714536
0.254000000000000115,3.152251343721877763
0.255000000000000115,2.524900652792195999
0.256000000000000116,1.911505935265210399
0.257000000000000117,1.312076925675372152
0.258000000000000118,0.726604496299239733
0.259000000000000119,0.155061635055051633
0.260000000000000120,-0.402595533859625043
0.261000000000000121,-0.946426698476485306
0.262000000000000122,-1.476506287757382019
0.263000000000000123,-1.992922390667119625
0.264000000000000123,-2.495775674919406217
0.265000000000000124,-2.985178313816300832
0.266000000000000125,-3.461252928729810385
0.267000000000000126,-3.924131553919639082
0.268000000000000127,-4.373954629551876749
0.269000000000000128,-4.810870027983638053
0.270000000000000129,-5.235032117615840086
0.271000000000000130,-5.646600867892802356
0.272000000000000131,-6.045740998345332073
0.273000000000000131,-6.432621173937799419
0.274000000000000132,-6.807413248388155758
0.275000000000000133,-7.170291556585226544
0.276000000000000134,-7.521432256729599253
0.277000000000000135,-7.861012722371026662
0.278000000000000136,-8.189210984109013935
0.279000000000000137,-8.506205220358747709
0.280000000000000138,-8.812173296263159372
0.281000000000000139,-9.107292349551213917
0.282000000000000139,-9.391738421899468392
0.283000000000000140,-9.665686134148014474
0.284000000000000141,-9.929308403549523376
0.285000000000000142,-10.182776201090092627
0.286000000000000143,-10.426258346809849087
0.287000000000000144,-10.659921340967596137
0.288000000000000145,-10.883929228836146663
0.289000000000000146,-11.098443496878354964
0.290000000000000147,-11.303622998039891456
0.291000000000000147,-11.499623903897482791
0.292000000000000148,-11.686599681422094932
0.293000000000000149,-11.864701092150417239
0.294000000000000150,-12.034076211605865936
0.295000000000000151,-12.194870466868373171
0.296000000000000152,-12.347226690260132642
0.297000000000000153,-12.491285187189982153
0.298000000000000154,-12.627183816281455364
0.299000000000000155,-12.755058079996675957
0.300000000000000155,-12.875041224059831535
0.301000000000000156,-12.987264344078065292
0.302000000000000157,-13.091856497854243102
0.303000000000000158,-13.188944821982804712
0.304000000000000159,-13.278654651418165145
0.305000000000000160,-13.361109640801554832
0.306000000000000161,-13.436431886428717775
0.307000000000000162,-13.504742047835099683
0.308000000000000163,-13.566159468067287008
0.309000000000000163,-13.620802291799403605
0.310000000000000164,-13.668787580539969895
0.311000000000000165,-13.710231424258202182
0.312000000000000166,-13.745249048839387029
0.313000000000000167,-13.773954918855253027
0.314000000000000168,-13.796462835208547659
0.315000000000000169,-13.812886027279665413
0.316000000000000170,-13.823337239269116949
0.317000000000000171,-13.827928810489961364
0.318000000000000171,-13.826772749422502784
0.319000000000000172,-13.819980801396400949
0.320000000000000173,-13.807664509815200660
0.321000000000000174,-13.789935270883910690
0.322000000000000175,-13.766904381842291372
0.323000000000000176,-13.738683082745140496
0.324000000000000177,-13.705382591865589603
0.325000000000000178,-13.667114134828841188
0.326000000000000179,-13.623988967612813639
0.327000000000000179,-13.576118393576365406
0.328000000000000180,-13.523613774698603152
0.329000000000000181,-13.466586537232526410
0.330000000000000182,-13.405148171991863038
0.331000000000000183,-13.339410229505602956
0.332000000000000184,-13.269484310285458051
0.333000000000000185,-13.195482050461743384
0.334000000000000186,-13.117515103050498837
0.335000000000000187,-13.035695115120324417
0.336000000000000187,-12.950133701131358421
0.337000000000000188,-12.860942412720666184
0.338000000000000189,-12.768232705209419109
0.339000000000000190,-12.672115901106220548
0.340000000000000191,-12.572703150878815848
0.341000000000000192,-12.470105391263677674
0.342000000000000193,-12.364433301378266350
0.343000000000000194,-12.255797256896119762
0.344000000000000195,-12.144307282538409964
0.345000000000000195,-12.030073003129640341
0.346000000000000196,-11.913203593457076579
0.347000000000000197,-11.793807727166205623
0.348000000000000198,-11.671993524915992069
0.349000000000000199,-11.547868502008853397
0.350000000000000200,-11.421539515701528700
0.351000000000000201,-11.293112712393403640
0.352000000000000202,-11.162693474879580080
0.353000000000000203,-11.030386369846397088
0.354000000000000203,-10.896295095777263739
0.355000000000000204,-10.760522431426982948
0.356000000000000205,-10.623170185013144362
0.357000000000000206,-10.484339144263495669
0.358000000000000207,-10.344129027448362379
0.359000000000000208,-10.202638435518213811
0.360000000000000209,-10.059964805456766967
0.361000000000000210,-9.916204364951159533
0.362000000000000210,-9.771452088471663799
0.363000000000000211,-9.625801654844810429
0.364000000000000212,-9.479345406395397688
0.365000000000000213,-9.332174309724447170
0.366000000000000214,-9.184377918182573097
0.367000000000000215,-9.036044336090190754
0.368000000000000216,-8.887260184749086633
0.369000000000000217,-8.738110570282321632
0.370000000000000218,-8.588679053333148516
0.371000000000000218,-8.439047620646711323
0.372000000000000219,-8.289296658552476771
0.373000000000000220,-8.139504928359302838
0.374000000000000221,-7.989749543669629084
0.375000000000000222,-7.840105949613759506
0.376000000000000223,-7.690647904000624813
0.377000000000000224,-7.541447460376448753
0.378000000000000225,-7.392574952978494096
0.379000000000000226,-7.244098983566916949
0.380000000000000226,-7.096086410114137877
0.381000000000000227,-6.948602337327194789
0.382000000000000228,-6.801710108975778546
0.383000000000000229,-6.655471301995289579
0.384000000000000230,-6.509945722331456963
0.385000000000000231,-6.365191402490909311
0.386000000000000232,-6.221264600759345953
0.387000000000000233,-6.078219802047206244
0.388000000000000234,-5.936109720320696503
0.389000000000000234,-5.794985302574566788
0.390000000000000235,-5.654895734301377708
0.391000000000000236,-5.515888446411019608
0.392000000000000237,-5.378009123552794257
0.393000000000000238,-5.241301713791954420
0.394000000000000239,-5.105808439591354997
0.395000000000000240,-4.971569810048736215
0.396000000000000241,-4.838624634339448782
0.397000000000000242,-4.707010036314192014
0.398000000000000242,-4.576761470201316406
0.399000000000000243,-4.447912737363087565
0.400000000000000244,-4.320496004055217831
0.401000000000000245,-4.194541820139734867
0.402000000000000246,-4.070079138700805288
0.403000000000000247,-3.947135336514026704
0.404000000000000248,-3.825736235320090550
0.405000000000000249,-3.705906123854118217
0.406000000000000250,-3.587667780582696420
0.407000000000000250,-3.471042497101429092
0.408000000000000251,-3.356050102146337366
0.409000000000000252,-3.242708986173594266
0.410000000000000253,-3.131036126462579450
0.411000000000000254,-3.021047112698481918
0.412000000000000255,-2.912756172991421533
0.413000000000000256,-2.806176200290160683
0.414000000000000257,-2.701318779149413984
0.415000000000000258,-2.598194212810974957
0.416000000000000258,-2.496811550559730364
0.417000000000000259,-2.397178615316964745
0.418000000000000260,-2.299302031434316440
0.419000000000000261,-2.203187252652883288
0.420000000000000262,-2.108838590193248486
0.421000000000000263,-2.016259240943145237
0.422000000000000264,-1.925451315710834832
0.423000000000000265,-1.836415867513123690
0.424000000000000266,-1.749152919868588230
0.425000000000000266,-1.663661495067088270
0.426000000000000267,-1.579939642388362042
0.427000000000000268,-1.497984466243252877
0.428000000000000269,-1.417792154212394351
0.429000000000000270,-1.339358004958346005
0.430000000000000271,-1.262676455988035240
0.431000000000000272,-1.187741111243741710
0.432000000000000273,-1.114544768501708250
0.433000000000000274,-1.043079446558624390
0.434000000000000274,-0.973336412187160049
0.435000000000000275,-0.905306206842915961
0.436000000000000276,-0.838978673105946315
0.437000000000000277,-0.774342980841091544
0.438000000000000278,-0.711387653062347747
0.439000000000000279,-0.650100591487330570
0.440000000000000280,-0.590469101768849369
0.441000000000000281,-0.532479918391491447
0.442000000000000282,-0.476119229222037643
0.443000000000000282,-0.421372699703143561
0.444000000000000283,-0.368225496680924747
0.445000000000000284,-0.316662311857487277
0.446000000000000285,-0.266667384860329926
0.447000000000000286,-0.218224525921577761
0.448000000000000287,-0.171317138160166499
0.449000000000000288,-0.125928239461371938
0.450000000000000289,-0.082040483948292470
0.451000000000000290,-0.039636183040839115
0.452000000000000290,0.001302673901715023
0.453000000000000291,0.040794399358004926
0.454000000000000292,0.078857587844315555
0.455000000000000293,0.115511096539107030
0.456000000000000294,0.150774026333864830
0.457000000000000295,0.184665703311514218
0.458000000000000296,0.217205660652996235
0.459000000000000297,0.248413620972244509
0.460000000000000298,0.278309479079264788
0.461000000000000298,0.306913285170654304
0.462000000000000299,0.334245228446451104
0.463000000000000300,0.360325621151890652
0.464000000000000301,0.385174883042142202
0.465000000000000302,0.408813526267865879
0.466000000000000303,0.431262140679108452
0.467000000000000304,0.452541379544655009
0.468000000000000305,0.472671945683657391
0.469000000000000306,0.491674578006263630
0.470000000000000306,0.509570038459413288
0.471000000000000307,0.526379099374013393
0.472000000000000308,0.542122531209261238
0.473000000000000309,0.556821090689799680
0.474000000000000310,0.570495509331101713
0.475000000000000311,0.583166482348382309
0.476000000000000312,0.594854657944024812
0.477000000000000313,0.605580626968576841
0.478000000000000314,0.615364912949960097
0.479000000000000314,0.624227962485582322
0.480000000000000315,0.632190135991893110
0.481000000000000316,0.639271698805715882
0.482000000000000317,0.645492812631753399
0.483000000000000318,0.650873527330390278
0.484000000000000319,0.655433773040014933
0.485000000000000320,0.659193352627837958
0.486000000000000321,0.662171934463308576
0.487000000000000322,0.664389045508012810
0.488000000000000322,0.665864064716034543
0.489000000000000323,0.666616216738585066
0.490000000000000324,0.666664565926833985
0.491000000000000325,0.666028010626732558
0.492000000000000326,0.664725277759678379
0.493000000000000327,0.662774917682853015
0.494000000000000328,0.660195299322998586
0.495000000000000329,0.657004605577586553
0.496000000000000330,0.653220828977088441
0.497000000000000330,0.648861767602335049
0.498000000000000331,0.643945021250784788
0.499000000000000332,0.638487987845675398
0.500000000000000333,0.632507860081964801
0.501000000000000334,0.626021622303129077
0.502000000000000335,0.619046047602800353
0.503000000000000336,0.611597695145375653
0.504000000000000337,0.603692907699720949
0.505000000000000338,0.595347809380175286
0.506000000000000338,0.586578303589095018
0.507000000000000339,0.577400071155292016
0.508000000000000340,0.567828568662702482
0.509000000000000341,0.557879026963759017
0.510000000000000342,0.547566449871967675
0.511000000000000343,0.536905613028300865
0.512000000000000344,0.525911062936032181
0.513000000000000345,0.514597116158778345
0.514000000000000346,0.502977858676512346
0.515000000000000346,0.491067145394514071
0.516000000000000347,0.478878599800151239
0.517000000000000348,0.466425613762558311
0.518000000000000349,0.453721347470371517
0.519000000000000350,0.440778729502727284
0.520000000000000351,0.427610457028750279
0.521000000000000352,0.414228996131027816
0.522000000000000353,0.400646582248420369
0.523000000000000353,0.386875220733847003
0.524000000000000354,0.372926687522616152
0.525000000000000355,0.358812529907035493
0.526000000000000356,0.344544067413157129
0.527000000000000357,0.330132392775446148
0.528000000000000358,0.315588373005458334
0.529000000000000359,0.300922650550493387
0.530000000000000360,0.286145644538450372
0.531000000000000361,0.271267552105044496
0.532000000000000361,0.256298349799760405
0.533000000000000362,0.241247795066877296
0.534000000000000363,0.226125427798129053
0.535000000000000364,0.210940571953477873
0.536000000000000365,0.195702337246713626
0.537000000000000366,0.180419620892578320
0.538000000000000367,0.165101109412235325
0.539000000000000368,0.149755280493952869
0.540000000000000369,0.134390404906015837
0.541000000000000369,0.119014548458857838
0.542000000000000370,0.103635574013581172
0.543000000000000371,0.088261143534060921
0.544000000000000372,0.072898720179874782
0.545000000000000373,0.057555570437464697
0.546000000000000374,0.042238766286928658
0.547000000000000375,0.026955187401932219
0.548000000000000376,0.011711523380324763
0.549000000000000377,-0.003485723996888601
0.550000000000000377,-0.018630238480521581
0.551000000000000378,-0.033715887044365560
0.552000000000000379,-0.048736717554621563
0.553000000000000380,-0.063686956419793259
0.554000000000000381,-0.078561006222945665
0.555000000000000382,-0.093353443338393488
0.556000000000000383,-0.108059015534634290
0.557000000000000384,-0.122672639565400018
0.558000000000000385,-0.137189398750585001
0.559000000000000385,-0.151604540548787442
0.560000000000000386,-0.165913474123051158
0.561000000000000387,-0.180111767901497577
0.562000000000000388,-0.194195147134298363
0.563000000000000389,-0.208159491448566131
0.564000000000000390,-0.222000832402490078
0.565000000000000391,-0.235715351040194948
0.566000000000000392,-0.249299375448586602
0.567000000000000393,-0.262749378317483573
0.568000000000000393,-0.276061974504260954
0.569000000000000394,-0.289233918604206053
0.570000000000000395,-0.302262102527657617
0.571000000000000396,-0.315143553085090566
0.572000000000000397,-0.327875429581153011
0.573000000000000398,-0.340455021418632764
0.574000000000000399,-0.352879745713348736
0.575000000000000400,-0.365147144920851263
0.576000000000000401,-0.377254884475812902
0.577000000000000401,-0.389200750444955779
0.578000000000000402,-0.400982647194291775
0.579000000000000403,-0.412598595071421381
0.580000000000000404,-0.424046728103657067
0.581000000000000405,-0.435325291712595486
0.582000000000000406,-0.446432640445841300
0.583000000000000407,-0.457367235726460319
0.584000000000000408,-0.468127643620762535
0.585000000000000409,-0.478712532624943232
0.586000000000000409,-0.489120671471161839
0.587000000000000410,-0.499350926953454954
0.588000000000000411,-0.509402261774016596
0.589000000000000412,-0.519273732410264310
0.590000000000000413,-0.528964487003054429
0.591000000000000414,-0.538473763266467342
0.592000000000000415,-0.547800886419504751
0.593000000000000416,-0.556945267139994815
0.594000000000000417,-0.565906399541049154
0.595000000000000417,-0.574683859170316280
0.596000000000000418,-0.583277301032299245
0.597000000000000419,-0.591686457633962104
0.598000000000000420,-0.599911137053860788
0.599000000000000421,-0.607951221034926936
0.600000000000000422,-0.615806663101164276
0.601000000000000423,-0.623477486698315264
0.602000000000000424,-0.630963783358694963
0.603000000000000425,-0.638265710890287385
0.604000000000000425,-0.645383491590178937
0.605000000000000426,-0.652317410482416093
0.606000000000000427,-0.659067813580410555
0.607000000000000428,-0.665635106173788405
0.608000000000000429,-0.672019751139947497
0.609000000000000430,-0.678222267280048863
0.610000000000000431,-0.684243227679746324
0.611000000000000432,-0.690083258094413843
0.612000000000000433,-0.695743035358933337
0.613000000000000433,-0.701223285822069720
