# AuFCC110UCD_CS-3-AC
# h[nm],U(h)[kJ/mol]
0.149999999999999994,147.365860326822428306
0.150999999999999995,143.188325763743421248
0.151999999999999996,140.391920596209047289
0.152999999999999997,137.974956357448547806
0.153999999999999998,135.552226145316438988
0.154999999999999999,133.033055219534674052
0.156000000000000000,130.446300332756464968
0.157000000000000001,127.852085580606654958
0.158000000000000002,125.302706625639046933
0.159000000000000002,122.829822899506865497
0.160000000000000003,120.444438172730684755
0.161000000000000004,118.142047423468540046
0.162000000000000005,115.908921424442766579
0.163000000000000006,113.727627094075501191
0.164000000000000007,111.581083770048437032
0.165000000000000008,109.455088859785817590
0.166000000000000009,107.339540747632099738
0.167000000000000010,105.228688396085203749
0.168000000000000010,103.120736360489246408
0.169000000000000011,101.017085449101415406
0.170000000000000012,98.921424400514553099
0.171000000000000013,96.838823631261064406
0.172000000000000014,94.774926418767137193
0.173000000000000015,92.735288755841622788
0.174000000000000016,90.724886625178967847
0.175000000000000017,88.747787266128213446
0.176000000000000018,86.806967252653123523
0.177000000000000018,84.904252906313374183
0.178000000000000019,83.040355940730265161
0.179000000000000020,81.214977767050442026
0.180000000000000021,79.426958386348829322
0.181000000000000022,77.674449350491528321
0.182000000000000023,75.955094237837855076
0.183000000000000024,74.266204022938140383
0.184000000000000025,72.604918342062433112
0.185000000000000026,70.968346813653425897
0.186000000000000026,69.353687197650842222
0.187000000000000027,67.758319263667928567
0.188000000000000028,66.179874817716978441
0.189000000000000029,64.616285465793495746
0.190000000000000030,63.065810436261550365
0.191000000000000031,61.527047210533638122
0.192000000000000032,59.998927889290584403
0.193000000000000033,58.480704209846997799
0.194000000000000034,56.971923982038674694
0.195000000000000034,55.472401469740603375
0.196000000000000035,53.982183949190904571
0.197000000000000036,52.501516352447048064
0.198000000000000037,51.030805576447150429
0.199000000000000038,49.570585721310280292
0.200000000000000039,48.121485226746450792
0.201000000000000040,46.684196609786951626
0.202000000000000041,45.259449274314881961
0.203000000000000042,43.847985664443733356
0.204000000000000042,42.450540869199286931
0.205000000000000043,41.067825653464986146
0.206000000000000044,39.700512787145925131
0.207000000000000045,38.349226467881898373
0.208000000000000046,37.014534579039391815
0.209000000000000047,35.696943490741546157
0.210000000000000048,34.396895094063836495
0.211000000000000049,33.114765754154362298
0.212000000000000050,31.850866874113002325
0.213000000000000050,30.605446775489941302
0.214000000000000051,29.378693621047222706
0.215000000000000052,28.170739129111051824
0.216000000000000053,26.981662854862499046
0.217000000000000054,25.811496840995374669
0.218000000000000055,24.660230467292258538
0.219000000000000056,23.527815355044829460
0.220000000000000057,22.414170207275624591
0.221000000000000058,21.319185488997341338
0.222000000000000058,20.242727872980943005
0.223000000000000059,19.184644395555125129
0.224000000000000060,18.144766283753494207
0.225000000000000061,17.122912429683445623
0.226000000000000062,16.118892500384486510
0.227000000000000063,15.132509681787862377
0.228000000000000064,14.163563063832523170
0.229000000000000065,13.211849680496147386
0.230000000000000066,12.277166223645261667
0.231000000000000066,11.359310453368344440
0.232000000000000067,10.458082330013482419
0.233000000000000068,9.573284894673570022
0.234000000000000069,8.704724925512493883
0.235000000000000070,7.852213397252947757
0.236000000000000071,7.015565770490863606
0.237000000000000072,6.194602136382195035
0.238000000000000073,5.389147240780953751
0.239000000000000073,4.599030410187054940
0.240000000000000074,3.824085399969205046
0.241000000000000075,3.064150183341244116
0.242000000000000076,2.319066697542300215
0.243000000000000077,1.588680561654999268
0.244000000000000078,0.872840778532107286
0.245000000000000079,0.171399431419241383
0.246000000000000080,-0.515788615912653681
0.247000000000000081,-1.188866008364646065
0.248000000000000081,-1.847973172391527141
0.249000000000000082,-2.493248568296805523
0.250000000000000111,-3.124828918899634544
0.251000000000000112,-3.742849412616676918
0.252000000000000113,-4.347443879948087897
0.253000000000000114,-4.938744943163416501
0.254000000000000115,-5.516884139666803577
0.255000000000000115,-6.081992020080051020
0.256000000000000116,-6.634198222533581379
0.257000000000000117,-7.173631525004445564
0.258000000000000118,-7.700419877797775037
0.259000000000000119,-8.214690418444932973
0.260000000000000120,-8.716569471396500290
0.261000000000000121,-9.206182534929347128
0.262000000000000122,-9.683654257676430177
0.263000000000000123,-10.149108407130247755
0.264000000000000123,-10.602667832377312251
0.265000000000000124,-11.044454423196063075
0.266000000000000125,-11.474589067502686035
0.267000000000000126,-11.893191608963082473
0.268000000000000127,-12.300380806411675749
0.269000000000000128,-12.696274296530694059
0.270000000000000129,-13.080988561054383013
0.271000000000000130,-13.454638899573179600
0.272000000000000131,-13.817339408825295877
0.273000000000000131,-14.169202969182483898
0.274000000000000132,-14.510341238862533686
0.275000000000000133,-14.840864656236766095
0.276000000000000134,-15.160882450446987235
0.277000000000000135,-15.470502660402914330
0.278000000000000136,-15.769832162102087381
0.279000000000000137,-16.058976704095567101
0.280000000000000138,-16.338040950817624974
0.281000000000000139,-16.607128533406111615
0.282000000000000139,-16.866342107559415098
0.283000000000000140,-17.115783417909057107
0.284000000000000141,-17.355553368330447483
0.285000000000000142,-17.585752097570253483
0.286000000000000143,-17.806479059534265019
0.287000000000000144,-18.017833107555333072
0.288000000000000145,-18.219912581946765329
0.289000000000000146,-18.412815400138565991
0.290000000000000147,-18.596639148696581856
0.291000000000000147,-18.771481176531331414
0.292000000000000148,-18.937438688618790650
0.293000000000000149,-19.094608839574199521
0.294000000000000150,-19.243088826445070794
0.295000000000000151,-19.382975980118224868
0.296000000000000152,-19.514367854767506572
0.297000000000000153,-19.637362314804210683
0.298000000000000154,-19.752057618829134356
0.299000000000000155,-19.858552500124439177
0.300000000000000155,-19.956946243263644192
0.301000000000000156,-20.047338756458898956
0.302000000000000157,-20.129830639306586448
0.303000000000000158,-20.204523245633033923
0.304000000000000159,-20.271518741183903956
0.305000000000000160,-20.330920155940304994
0.306000000000000161,-20.382831430885296697
0.307000000000000162,-20.427357459081697755
0.308000000000000163,-20.464604120959954514
0.309000000000000163,-20.494678313749794540
0.310000000000000164,-20.517687975023598312
0.311000000000000165,-20.533742100351158655
0.312000000000000166,-20.542950755096157422
0.313000000000000167,-20.545425080412588414
0.314000000000000168,-20.541277293526011505
0.315000000000000169,-20.530620682408553535
0.316000000000000170,-20.513569594979571775
0.317000000000000171,-20.490239422983361095
0.318000000000000171,-20.460746580714491927
0.319000000000000172,-20.425208478777410193
0.320000000000000173,-20.383743493081688314
0.321000000000000174,-20.336470929286701192
0.322000000000000175,-20.283510982920958554
0.323000000000000176,-20.224984695410064717
0.324000000000000177,-20.161013906255178085
0.325000000000000178,-20.091721201609384906
0.326000000000000179,-20.017229859504627854
0.327000000000000179,-19.937663791984114425
0.328000000000000180,-19.853147484397247524
0.329000000000000181,-19.763805932115140251
0.330000000000000182,-19.669764574922691480
0.331000000000000183,-19.571149229343394182
0.332000000000000184,-19.468086019148564958
0.333000000000000185,-19.360701304300246051
0.334000000000000186,-19.249121608571964970
0.335000000000000187,-19.133473546086506190
0.336000000000000187,-19.013883747004118874
0.337000000000000188,-18.890478782587592832
0.338000000000000189,-18.763385089864335953
0.339000000000000190,-18.632728896097493276
0.340000000000000191,-18.498636143270395849
0.341000000000000192,-18.361232412780800871
0.342000000000000193,-18.220642850532179580
0.343000000000000194,-18.076992092601397388
0.344000000000000195,-17.930404191652236534
0.345000000000000195,-17.781002544256459430
0.346000000000000196,-17.628909819273580695
0.347000000000000197,-17.474247887432600379
0.348000000000000198,-17.317137752249067262
0.349000000000000199,-17.157699482401962854
0.350000000000000200,-16.996052145686043389
0.351000000000000201,-16.832313744645933440
0.352000000000000202,-16.666601153989898165
0.353000000000000203,-16.499030059872339393
0.354000000000000203,-16.329714901125562676
0.355000000000000204,-16.158768812513251589
0.356000000000000205,-15.986303570069873459
0.357000000000000206,-15.812429538582540189
0.358000000000000207,-15.637255621264007033
0.359000000000000208,-15.460889211658543019
0.360000000000000209,-15.283436147814962069
0.361000000000000210,-15.105000668754490434
0.362000000000000210,-14.925685373254541588
0.363000000000000211,-14.745591180963234734
0.364000000000000212,-14.564817295853643486
0.365000000000000213,-14.383461172020693297
0.366000000000000214,-14.201618481818822914
0.367000000000000215,-14.019383086332783961
0.368000000000000216,-13.836847008169613105
0.369000000000000217,-13.654100406554935176
0.370000000000000218,-13.471231554712762346
0.371000000000000218,-13.288326819503575749
0.372000000000000219,-13.105470643292147059
0.373000000000000220,-12.922745528012853811
0.374000000000000221,-12.740232021397106976
0.375000000000000222,-12.558008705324429144
0.376000000000000223,-12.376152186256287990
0.377000000000000224,-12.194737087708940493
0.378000000000000225,-12.013836044719614193
0.379000000000000226,-11.833519700258118945
0.380000000000000226,-11.653856703534344774
0.381000000000000227,-11.474913710150222101
0.382000000000000228,-11.296755384043699166
0.383000000000000229,-11.119444401170783365
0.384000000000000230,-10.943041454870588325
0.385000000000000231,-10.767605262857967929
0.386000000000000232,-10.593192575786947174
0.387000000000000233,-10.419858187328179255
0.388000000000000234,-10.247654945702867835
0.389000000000000234,-10.076633766615788801
0.390000000000000235,-9.906843647529360197
0.391000000000000236,-9.738331683221399970
0.392000000000000237,-9.571143082568660532
0.393000000000000238,-9.405321186499094210
0.394000000000000239,-9.240907487055665115
0.395000000000000240,-9.077941647515322288
0.396000000000000241,-8.916461523507127396
0.397000000000000242,-8.756503185074041795
0.398000000000000242,-8.598100939624002237
0.399000000000000243,-8.441287355716157847
0.400000000000000244,-8.286093287629245907
0.401000000000000245,-8.132547900660210161
0.402000000000000246,-7.980678697101646790
0.403000000000000247,-7.830511542847931494
0.404000000000000248,-7.682070694581040193
0.405000000000000249,-7.535378827487940967
0.406000000000000250,-7.390457063462608112
0.407000000000000250,-7.247324999747064567
0.408000000000000251,-7.106000737966631675
0.409000000000000252,-6.966500913516322058
0.410000000000000253,-6.828840725255925115
0.411000000000000254,-6.693033965473143887
0.412000000000000255,-6.559093050074888076
0.413000000000000256,-6.427029048968533331
0.414000000000000257,-6.296851716595772253
0.415000000000000258,-6.168569522583394971
0.416000000000000258,-6.042189682476220014
0.417000000000000259,-5.917718188518866995
0.418000000000000260,-5.795159840454340738
0.419000000000000261,-5.674518276308386788
0.420000000000000262,-5.555796003130197391
0.421000000000000263,-5.438994427660970743
0.422000000000000264,-5.324113886903171888
0.423000000000000265,-5.211153678564399705
0.424000000000000266,-5.100112091351375554
0.425000000000000266,-4.990986435090007056
0.426000000000000267,-4.883773070649407799
0.427000000000000268,-4.778467439648274251
0.428000000000000269,-4.675064093923484876
0.429000000000000270,-4.573556724741790980
0.430000000000000271,-4.473938191736361425
0.431000000000000272,-4.376200551551273854
0.432000000000000273,-4.280335086177799120
0.433000000000000274,-4.186332330967551307
0.434000000000000274,-4.094182102308230320
0.435000000000000275,-4.003873524949050022
0.436000000000000276,-3.915395058963474728
0.437000000000000277,-3.828734526337965072
0.438000000000000278,-3.743879137176318039
0.439000000000000279,-3.660815515509966644
0.440000000000000280,-3.579529724705408533
0.441000000000000281,-3.500007292460760588
0.442000000000000282,-3.422233235384277261
0.443000000000000282,-3.346192083148149088
0.444000000000000283,-3.271867902211997858
0.445000000000000284,-3.199244319110837065
0.446000000000000285,-3.128304543302985685
0.447000000000000286,-3.059031389574415449
0.448000000000000287,-2.991407299995985092
0.449000000000000288,-2.925414365431281194
0.450000000000000289,-2.861034346592835398
0.451000000000000290,-2.798248694645321777
0.452000000000000290,-2.737038571354786232
0.453000000000000291,-2.677384868783366123
0.454000000000000292,-2.619268228529642251
0.455000000000000293,-2.562669060514926933
0.456000000000000294,-2.507567561316567328
0.457000000000000295,-2.453943732049439941
0.458000000000000296,-2.401777395797430437
0.459000000000000297,-2.351048214596928698
0.460000000000000298,-2.301735705974807367
0.461000000000000298,-2.253819259043646106
0.462000000000000299,-2.207278150157288454
0.463000000000000300,-2.162091558130075253
0.464000000000000301,-2.118238579023492552
0.465000000000000302,-2.075698240504135761
0.466000000000000303,-2.034449515777128958
0.467000000000000304,-1.994471337099419816
0.468000000000000305,-1.955742608877667710
0.469000000000000306,-1.918242220355393046
0.470000000000000306,-1.881949057894570343
0.471000000000000307,-1.846842016856683255
0.472000000000000308,-1.812900013088762918
0.473000000000000309,-1.780101994019739120
0.474000000000000310,-1.748426949372862804
0.475000000000000311,-1.717853921499837400
0.476000000000000312,-1.688362015342679268
0.477000000000000313,-1.659930408029035132
0.478000000000000314,-1.632538358107210374
0.479000000000000314,-1.606165214426962917
0.480000000000000315,-1.580790424672179784
0.481000000000000316,-1.556393543551845005
0.482000000000000317,-1.532954240655436839
0.483000000000000318,-1.510452307979211817
0.484000000000000319,-1.488867667129672112
0.485000000000000320,-1.468180376210709293
0.486000000000000321,-1.448370636400710287
0.487000000000000322,-1.429418798226179010
0.488000000000000322,-1.411305367538172817
0.489000000000000323,-1.394011011198113659
0.490000000000000324,-1.377516562479270013
0.491000000000000325,-1.361803026190369748
0.492000000000000326,-1.346851583527679308
0.493000000000000327,-1.332643596661923890
0.494000000000000328,-1.319160613066373999
0.495000000000000329,-1.306384369592305639
0.496000000000000330,-1.294296796298169960
0.497000000000000330,-1.282880020038569047
0.498000000000000331,-1.272116367819241090
0.499000000000000332,-1.261988369924102349
0.500000000000000333,-1.252478762820416591
0.501000000000000334,-1.243570491848009718
0.502000000000000335,-1.235246713698469723
0.503000000000000336,-1.227490798690179741
0.504000000000000337,-1.220286332844919386
0.505000000000000338,-1.213617119771770891
0.506000000000000338,-1.207467182363952896
0.507000000000000339,-1.201820764314096568
0.508000000000000340,-1.196662331453494099
0.509000000000000341,-1.191976572920691257
0.510000000000000342,-1.187748402164731765
0.511000000000000343,-1.183962957788302628
0.512000000000000344,-1.180605604235930972
0.513000000000000345,-1.177661932332286110
0.514000000000000346,-1.175117759675628593
0.515000000000000346,-1.172959130891208179
0.516000000000000347,-1.171172317749497482
0.517000000000000348,-1.169743819154006603
0.518000000000000349,-1.168660361003223569
0.519000000000000350,-1.167908895931307978
0.520000000000000351,-1.167476602932013163
0.521000000000000352,-1.167350886870147209
0.522000000000000353,-1.167519377884929543
0.523000000000000353,-1.167969930689382041
0.524000000000000354,-1.168690623769942150
0.525000000000000355,-1.169669758490267331
0.526000000000000356,-1.170895858103166765
0.527000000000000357,-1.172357666674596732
0.528000000000000358,-1.174044147923359649
0.529000000000000359,-1.175944483980315924
0.530000000000000360,-1.178048074070610074
0.531000000000000361,-1.180344533122478889
0.532000000000000361,-1.182823690306046283
0.533000000000000362,-1.185475587505477213
0.534000000000000363,-1.188290477727713679
0.535000000000000364,-1.191258823451013082
0.536000000000000365,-1.194371294916377169
0.537000000000000366,-1.197618768364898445
0.538000000000000367,-1.200992324223940422
0.539000000000000368,-1.204483245245095757
0.540000000000000369,-1.208083014596592841
0.541000000000000369,-1.211783313912986992
0.542000000000000370,-1.215576021304697774
0.543000000000000371,-1.219453209329965260
0.544000000000000372,-1.223407142931768776
0.545000000000000373,-1.227430277342069775
0.546000000000000374,-1.231515255955753174
0.547000000000000375,-1.235654908176559541
0.548000000000000376,-1.239842247237227024
0.549000000000000377,-1.244070467995955553
0.550000000000000377,-1.248332944711288972
0.551000000000000378,-1.252623228797474342
0.552000000000000379,-1.256935046562161373
0.553000000000000380,-1.261262296928447268
0.554000000000000381,-1.265599049142968280
0.555000000000000382,-1.269939540471933803
0.556000000000000383,-1.274278173886702614
0.557000000000000384,-1.278609515740634972
0.558000000000000385,-1.282928293438761802
0.559000000000000385,-1.287229393101869679
0.560000000000000386,-1.291507857226388278
0.561000000000000387,-1.295758882341649487
0.562000000000000388,-1.299977816665758734
0.563000000000000389,-1.304160157761535599
0.564000000000000390,-1.308301550193689433
0.565000000000000391,-1.312397783188552491
0.566000000000000392,-1.316444788297499446
0.567000000000000393,-1.320438637065215470
0.568000000000000393,-1.324375538703883581
0.569000000000000394,-1.328251837774381050
0.570000000000000395,-1.332064011875428999
0.571000000000000396,-1.335808669341698174
0.572000000000000397,-1.339482546951811681
0.573000000000000398,-1.343082507647045398
0.574000000000000399,-1.346605538261671287
0.575000000000000400,-1.350048747265651716
0.576000000000000401,-1.353409362520515691
0.577000000000000401,-1.356684729049133509
0.578000000000000402,-1.359872306820061327
0.579000000000000403,-1.362969668547128865
0.580000000000000404,-1.365974497504924390
0.581000000000000405,-1.368884585360722994
0.582000000000000406,-1.371697830023465903
0.583000000000000407,-1.374412233510292181
0.584000000000000408,-1.377025899831148203
0.585000000000000409,-1.379537032891917869
0.586000000000000409,-1.381943934416578035
0.587000000000000410,-1.384245001888722681
0.588000000000000411,-1.386438726512901010
0.589000000000000412,-1.388523691196137166
0.590000000000000413,-1.390498568549919156
0.591000000000000414,-1.392362118913039737
0.592000000000000415,-1.394113188395554648
0.593000000000000416,-1.395750706944112407
0.594000000000000417,-1.397273686428937456
0.595000000000000417,-1.398681218752684696
0.596000000000000418,-1.399972473981348386
0.597000000000000419,-1.401146698497458098
0.598000000000000420,-1.402203213175695184
0.599000000000000421,-1.403141411581080300
0.600000000000000422,-1.403960758189902736
0.601000000000000423,-1.404660786633449066
0.602000000000000424,-1.405241097964676111
0.603000000000000425,-1.405701358947897273
0.604000000000000425,-1.406041300371536185
0.605000000000000426,-1.406260715383996551
0.606000000000000427,-1.406359457852750960
0.607000000000000428,-1.406337440746513456
0.608000000000000429,-1.406194634540768318
0.609000000000000430,-1.405931065646308431
0.610000000000000431,-1.405546814861130311
