# AuFCC110UCD_CS-8537-AC
# h[nm],U(h)[kJ/mol]
0.200000000000000011,106.244343341535568470
0.201000000000000012,101.717594852469773059
0.202000000000000013,98.562280262697839817
0.203000000000000014,96.082202968573909629
0.204000000000000015,93.869470232354771611
0.205000000000000016,91.704321720104644555
0.206000000000000016,89.485350312974475173
0.207000000000000017,87.181808831291490947
0.208000000000000018,84.801791141872826074
0.209000000000000019,82.371674209865901162
0.210000000000000020,79.923421399403096643
0.211000000000000021,77.487264567807216054
0.212000000000000022,75.087971757103133541
0.213000000000000023,72.743421893190685523
0.214000000000000024,70.464589260716152808
0.215000000000000024,68.256320688113191864
0.216000000000000025,66.118492099237215598
0.217000000000000026,64.047277404759967112
0.218000000000000027,62.036366211257323755
0.219000000000000028,60.078038657182709414
0.220000000000000029,58.164054303787295908
0.221000000000000030,56.286343808090329333
0.222000000000000031,54.437511883942576674
0.223000000000000032,52.611171393900448834
0.224000000000000032,50.802133953526706023
0.225000000000000033,49.006484105856756628
0.226000000000000034,47.221563335757771540
0.227000000000000035,45.445887937524616973
0.228000000000000036,43.679021719667879609
0.229000000000000037,41.921421201825893377
0.230000000000000038,40.174267641089258518
0.231000000000000039,38.439297112560069536
0.232000000000000040,36.718637072219380002
0.233000000000000040,35.014655401735026885
0.234000000000000041,33.329825888109766652
0.235000000000000042,31.666612413951849447
0.236000000000000043,30.027372798962812084
0.237000000000000044,28.414282203744125610
0.238000000000000045,26.829275243304188336
0.239000000000000046,25.274005419423119179
0.240000000000000047,23.749820129759775966
0.241000000000000048,22.257749311795706149
0.242000000000000048,20.798505699647925837
0.243000000000000049,19.372494683717452091
0.244000000000000050,17.979831843352673815
0.245000000000000051,16.620366351267570337
0.246000000000000052,15.293708608984550423
0.247000000000000053,13.999260651811241019
0.248000000000000054,12.736248049350900047
0.249000000000000055,11.503752215212184495
0.250000000000000056,10.300742221383892172
0.251000000000000056,9.126105384334987747
0.252000000000000057,7.978676048342968841
0.253000000000000058,6.857262135032646810
0.254000000000000059,5.760669155698091792
0.255000000000000060,4.687721494466837058
0.256000000000000061,3.637280866047492900
0.257000000000000062,2.608261932374809078
0.258000000000000063,1.599645128890375023
0.259000000000000064,0.610486804611578227
0.260000000000000064,-0.360073178215365719
0.261000000000000065,-1.312806207927399438
0.262000000000000066,-2.248391851831278210
0.263000000000000067,-3.167416736304448754
0.264000000000000068,-4.070375158576114316
0.265000000000000069,-4.957671208676908137
0.266000000000000070,-5.829622183250902978
0.267000000000000071,-6.686463079902128293
0.268000000000000071,-7.528351970674397542
0.269000000000000072,-8.355376065419562792
0.270000000000000073,-9.167558289560911788
0.271000000000000074,-9.964864215561910044
0.272000000000000075,-10.747209202804395289
0.273000000000000076,-11.514465616173918505
0.274000000000000077,-12.266470009126368979
0.275000000000000078,-13.003030172107960638
0.276000000000000079,-13.723931961716479222
0.277000000000000079,-14.428945839770147330
0.278000000000000080,-15.117833064371907881
0.279000000000000081,-15.790351487048363666
0.280000000000000082,-16.446260921048637016
0.281000000000000083,-17.085328055890990129
0.282000000000000084,-17.707330902238123116
0.283000000000000085,-18.312062759183127980
0.284000000000000086,-18.899335703066828529
0.285000000000000087,-19.468983603059609067
0.286000000000000087,-20.020864673980366177
0.287000000000000088,-20.554863581241399118
0.288000000000000089,-21.070893116460069905
0.289000000000000090,-21.568895465227804209
0.290000000000000091,-22.048843090830764879
0.291000000000000092,-22.510739259441482574
0.292000000000000093,-22.954618233500028168
0.293000000000000094,-23.380545160739099941
0.294000000000000095,-23.788615686632368806
0.295000000000000095,-24.178955318014374143
0.296000000000000096,-24.551718565279301743
0.297000000000000097,-24.907087889964049765
0.298000000000000098,-25.245272483698705912
0.299000000000000099,-25.566506903504752302
0.300000000000000100,-25.871049587272885617
0.301000000000000101,-26.159181271991474915
0.302000000000000102,-26.431203335950549160
0.303000000000000103,-26.687436084743005438
0.304000000000000103,-26.928216999444156698
0.305000000000000104,-27.153898963895546359
0.306000000000000105,-27.364848486564955721
0.307000000000000106,-27.561443931016345488
0.308000000000000107,-27.744073767615056170
0.309000000000000108,-27.913134857724021032
0.310000000000000109,-28.069030780326198027
0.311000000000000110,-28.212170209741589844
0.312000000000000111,-28.342965351903224303
0.313000000000000111,-28.461830445514891608
0.314000000000000112,-28.569180333341183342
0.315000000000000113,-28.665429107876502002
0.316000000000000114,-28.750988834707083441
0.317000000000000115,-28.826268356016591099
0.318000000000000116,-28.891672175893226893
0.319000000000000117,-28.947599428371962205
0.320000000000000118,-28.994442928486972022
0.321000000000000119,-29.032588306017714785
0.322000000000000119,-29.062413221080145576
0.323000000000000120,-29.084286660244327294
0.324000000000000121,-29.098568311445081491
0.325000000000000122,-29.105608015591474924
0.326000000000000123,-29.105745292471112862
0.327000000000000124,-29.099308938281893688
0.328000000000000125,-29.086616691905895493
0.329000000000000126,-29.067974966861847008
0.330000000000000127,-29.043678645732903476
0.331000000000000127,-29.014010933762023114
0.332000000000000128,-28.979243268233101816
0.333000000000000129,-28.939635280212776536
0.334000000000000130,-28.895434805208601858
0.335000000000000131,-28.846877939306086347
0.336000000000000132,-28.794189137372153908
0.337000000000000133,-28.737581349958428945
0.338000000000000134,-28.677256195599216682
0.339000000000000135,-28.613404165274083368
0.340000000000000135,-28.546204855893648755
0.341000000000000136,-28.475827229765048543
0.342000000000000137,-28.402429897101104217
0.343000000000000138,-28.326161418750977816
0.344000000000000139,-28.247160626450881438
0.345000000000000140,-28.165556958017184286
0.346000000000000141,-28.081470805032267890
0.347000000000000142,-27.995013870702848635
0.348000000000000143,-27.906289535701723992
0.349000000000000143,-27.815393229934443298
0.350000000000000144,-27.722412808303268150
0.351000000000000145,-27.627428928669424124
0.352000000000000146,-27.530515430342450856
0.353000000000000147,-27.431739711549720795
0.354000000000000148,-27.331163104461449365
0.355000000000000149,-27.228841246464799752
0.356000000000000150,-27.124824446495800601
0.357000000000000151,-27.019158045348525832
0.358000000000000151,-26.911882768988181880
0.359000000000000152,-26.803035073996522186
0.360000000000000153,-26.692647484377026501
0.361000000000000154,-26.580748919039592693
0.362000000000000155,-26.467365009374201890
0.363000000000000156,-26.352518406406737483
0.364000000000000157,-26.236229077109488372
0.365000000000000158,-26.118514589514365554
0.366000000000000159,-25.999390386346583171
0.367000000000000159,-25.878870046962468621
0.368000000000000160,-25.756965537436986580
0.369000000000000161,-25.633687448702954015
0.370000000000000162,-25.509045222697199762
0.371000000000000163,-25.383047366518034949
0.372000000000000164,-25.255701654642500387
0.373000000000000165,-25.127015319294031315
0.374000000000000166,-24.996995229087804802
0.375000000000000167,-24.865648056115389863
0.376000000000000167,-24.732980431661104603
0.377000000000000168,-24.598999090769627429
0.378000000000000169,-24.463711005909061669
0.379000000000000170,-24.327123509995349337
0.380000000000000171,-24.189244409062418129
0.381000000000000172,-24.050082084879221611
0.382000000000000173,-23.909645587828233460
0.383000000000000174,-23.767944720372121026
0.384000000000000175,-23.624990111444390095
0.385000000000000175,-23.480793282107455866
0.386000000000000176,-23.335366702827627705
0.387000000000000177,-23.188723842719760171
0.388000000000000178,-23.040879211117619718
0.389000000000000179,-22.891848391826094655
0.390000000000000180,-22.741648070411713434
0.391000000000000181,-22.590296054885758537
0.392000000000000182,-22.437811290131964626
0.393000000000000183,-22.284213866426561879
0.394000000000000183,-22.129525022394268774
0.395000000000000184,-21.973767142737887781
0.396000000000000185,-21.816963751073124911
0.397000000000000186,-21.659139498193400897
0.398000000000000187,-21.500320146081797645
0.399000000000000188,-21.340532547979353950
0.400000000000000189,-21.179804624810660840
0.401000000000000190,-21.018165338258580022
0.402000000000000191,-20.855644660771357479
0.403000000000000191,-20.692273542775456718
0.404000000000000192,-20.528083877358362486
0.405000000000000193,-20.363108462675704402
0.406000000000000194,-20.197380962327304843
0.407000000000000195,-20.030935863936971231
0.408000000000000196,-19.863808436160795168
0.409000000000000197,-19.696034684339004173
0.410000000000000198,-19.527651304996719972
0.411000000000000199,-19.358695639388763254
0.412000000000000199,-19.189205626274485894
0.413000000000000200,-19.019219754098848796
0.414000000000000201,-18.848777012746626980
0.415000000000000202,-18.677916845027187520
0.416000000000000203,-18.506679098038787856
0.417000000000000204,-18.335103974551763883
0.418000000000000205,-18.163231984541919672
0.419000000000000206,-17.991103896996829548
0.420000000000000207,-17.818760692109247401
0.421000000000000207,-17.646243513964599003
0.422000000000000208,-17.473593623820825371
0.423000000000000209,-17.300852354072365102
0.424000000000000210,-17.128061062982204987
0.425000000000000211,-16.955261090259021728
0.426000000000000212,-16.782493713550177716
0.427000000000000213,-16.609800105914224844
0.428000000000000214,-16.437221294331074262
0.429000000000000214,-16.264798119301406842
0.430000000000000215,-16.092571195581633958
0.431000000000000216,-15.920580874095330515
0.432000000000000217,-15.748867205056432894
0.433000000000000218,-15.577469902335092655
0.434000000000000219,-15.406428309092001783
0.435000000000000220,-15.235781364702853935
0.436000000000000221,-15.065567572990062217
0.437000000000000222,-14.895824971775098788
0.438000000000000222,-14.726591103761037971
0.439000000000000223,-14.557902988751157736
0.440000000000000224,-14.389797097206326271
0.441000000000000225,-14.222309325140491509
0.442000000000000226,-14.055474970351118813
0.443000000000000227,-13.889328709977956322
0.444000000000000228,-13.723904579381741797
0.445000000000000229,-13.559235952331485819
0.446000000000000230,-13.395355522486932287
0.447000000000000230,-13.232295286161001258
0.448000000000000231,-13.070086526344761424
0.449000000000000232,-12.908759797975843497
0.450000000000000233,-12.748344914430036923
0.451000000000000234,-12.588870935213590130
0.452000000000000235,-12.430366154833315306
0.453000000000000236,-12.272858092819616260
0.454000000000000237,-12.116373484877248856
0.455000000000000238,-11.960938275136999920
0.456000000000000238,-11.806577609481291091
0.457000000000000239,-11.653315829915413815
0.458000000000000240,-11.501176469956146065
0.459000000000000241,-11.350182251008128276
0.460000000000000242,-11.200355079699034988
0.461000000000000243,-11.051716046143100769
0.462000000000000244,-10.904285423103392105
0.463000000000000245,-10.758082666021959284
0.464000000000000246,-10.613126413887950861
0.465000000000000246,-10.469434490912934876
0.466000000000000247,-10.327023908983070655
0.467000000000000248,-10.185910870857735944
0.468000000000000249,-10.046110774084523243
0.469000000000000250,-9.907638215600403697
0.470000000000000251,-9.770506996989421822
0.471000000000000252,-9.634730130367227474
0.472000000000000253,-9.500319844863515328
0.473000000000000254,-9.367287593673280455
0.474000000000000254,-9.235644061648605074
0.475000000000000255,-9.105399173402894064
0.476000000000000256,-8.976562101900023904
0.477000000000000257,-8.849141277501352931
0.478000000000000258,-8.723144397443869380
0.479000000000000259,-8.598578435723585045
0.480000000000000260,-8.475449653358579027
0.481000000000000261,-8.353763609006593427
0.482000000000000262,-8.233525169913049169
0.483000000000000262,-8.114738523165422990
0.484000000000000263,-7.997407187230868075
0.485000000000000264,-7.881534023754449336
0.486000000000000265,-7.767121249595950516
0.487000000000000266,-7.654170449083875560
0.488000000000000267,-7.542682586465765837
0.489000000000000268,-7.432658018534868738
0.490000000000000269,-7.324096507413304202
0.491000000000000270,-7.216997233473135154
0.492000000000000270,-7.111358808376692764
0.493000000000000271,-7.007179288218745583
0.494000000000000272,-6.904456186753276548
0.495000000000000273,-6.803186488688315769
0.496000000000000274,-6.703366663033238027
0.497000000000000275,-6.604992676482886793
0.498000000000000276,-6.508060006824123889
0.499000000000000277,-6.412563656350566355
0.500000000000000222,-6.318498165271968503
0.501000000000000334,-6.225857625105357229
0.502000000000000224,-6.134635692035542931
0.503000000000000336,-6.044825600232925922
0.504000000000000226,-5.956420175117695948
0.505000000000000338,-5.869411846559077439
0.506000000000000227,-5.783792662000051266
0.507000000000000339,-5.699554299497004095
0.508000000000000229,-5.616688080665794836
0.509000000000000341,-5.535184983524794156
0.510000000000000231,-5.455035655227260527
0.511000000000000343,-5.376230424674498742
0.512000000000000233,-5.298759315003083614
0.513000000000000345,-5.222612055938602893
0.514000000000000234,-5.147778096010037885
0.515000000000000346,-5.074246614617936579
0.516000000000000236,-5.002006533951411704
0.517000000000000348,-4.931046530748068868
0.518000000000000238,-4.861355047892391035
0.519000000000000350,-4.792920305847629514
0.520000000000000240,-4.725730313917372527
0.521000000000000352,-4.659772881332657768
0.522000000000000242,-4.595035628161298291
0.523000000000000353,-4.531505996036105266
0.524000000000000243,-4.469171258699262239
0.525000000000000355,-4.408018532360103769
0.526000000000000245,-4.348034785864281382
0.527000000000000357,-4.289206850671941851
0.528000000000000247,-4.231521430643652160
0.529000000000000359,-4.174965111632102932
0.530000000000000249,-4.119524370878828279
0.531000000000000361,-4.065185586214570712
0.532000000000000250,-4.011935045062921645
0.533000000000000362,-3.959758953246294233
0.534000000000000252,-3.908643443594292499
0.535000000000000364,-3.858574584354082848
0.536000000000000254,-3.809538387403063275
0.537000000000000366,-3.761520816263798306
0.538000000000000256,-3.714507793922085632
0.539000000000000368,-3.668485210448224620
0.540000000000000258,-3.623438930422820281
0.541000000000000369,-3.579354800167461548
0.542000000000000259,-3.536218654781872139
0.543000000000000371,-3.494016324988255207
0.544000000000000261,-3.452733643784506423
0.545000000000000373,-3.412356452907503890
0.546000000000000263,-3.372870609108201023
0.547000000000000375,-3.334261990239964835
0.548000000000000265,-3.296516501162254364
0.549000000000000377,-3.259620079461120756
0.550000000000000266,-3.223558700988766734
0.551000000000000378,-3.188318385224051532
0.552000000000000268,-3.153885200456098215
0.553000000000000380,-3.120245268793121252
0.554000000000000270,-3.087384770998862216
0.555000000000000382,-3.055289951158697725
0.556000000000000272,-3.023947121178098829
0.557000000000000384,-2.993342665115475754
0.558000000000000274,-2.963463043352286164
0.559000000000000385,-2.934294796602482602
0.560000000000000275,-2.905824549764222997
0.561000000000000387,-2.878039015616129515
0.562000000000000277,-2.850924998360838902
0.563000000000000389,-2.824469397018442685
0.564000000000000279,-2.798659208672479082
0.565000000000000391,-2.773481531571118985
0.566000000000000281,-2.748923568086233615
0.567000000000000393,-2.724972627533049696
0.568000000000000282,-2.701616128853154830
0.569000000000000394,-2.678841603163411911
0.570000000000000284,-2.656636696173676704
0.571000000000000396,-2.634989170475898312
0.572000000000000286,-2.613886907707445140
0.573000000000000398,-2.593317910591189435
0.574000000000000288,-2.573270304855225454
0.575000000000000400,-2.553732341034860909
0.576000000000000290,-2.534692396159496930
0.577000000000000401,-2.516138975327167682
0.578000000000000291,-2.498060713169363289
0.579000000000000403,-2.480446375208708698
0.580000000000000293,-2.463284859112255809
0.581000000000000405,-2.446565195842864249
0.582000000000000295,-2.430276550711341521
0.583000000000000407,-2.414408224331840547
0.584000000000000297,-2.398949653483094746
0.585000000000000409,-2.383890411877992221
0.586000000000000298,-2.369220210843955066
0.587000000000000410,-2.354928899916615137
0.588000000000000300,-2.341006467349190601
0.589000000000000412,-2.327443040539974639
0.590000000000000302,-2.314228886380294448
0.591000000000000414,-2.301354411525362131
0.592000000000000304,-2.288810162590176667
0.593000000000000416,-2.276586826272896324
0.594000000000000306,-2.264675229407884682
0.595000000000000417,-2.253066338950616476
0.596000000000000307,-2.241751261896626879
0.597000000000000419,-2.230721245136698450
0.598000000000000309,-2.219967675250399175
0.599000000000000421,-2.209482078239921599
0.600000000000000311,-2.199256119206479454
0.601000000000000423,-2.189281601971076796
0.602000000000000313,-2.179550468641768379
0.603000000000000425,-2.170054799129204071
0.604000000000000314,-2.160786810612559616
0.605000000000000426,-2.151738856957484458
0.606000000000000316,-2.142903428088134721
0.607000000000000428,-2.134273149314866114
0.608000000000000318,-2.125840780619566939
0.609000000000000430,-2.117599215900171306
0.610000000000000320,-2.109541482176165772
0.611000000000000432,-2.101660738756690794
0.612000000000000322,-2.093950276372871677
0.613000000000000433,-2.086403516275969316
0.614000000000000323,-2.079014009302910804
0.615000000000000435,-2.071775434910699598
0.616000000000000325,-2.064681600181194732
0.617000000000000437,-2.057726438797725876
0.618000000000000327,-2.050904009994952037
0.619000000000000439,-2.044208497483318787
0.620000000000000329,-2.037634208349522247
0.621000000000000441,-2.031175571934244140
0.622000000000000330,-2.024827138688485739
0.623000000000000442,-2.018583579009716633
0.624000000000000332,-2.012439682059073309
0.625000000000000444,-2.006390354560840805
0.626000000000000334,-2.000430619585285008
0.627000000000000446,-1.994555615316069730
0.628000000000000336,-1.988760593803278853
0.629000000000000448,-1.983040919703150662
0.630000000000000338,-1.977392069005556197
0.631000000000000449,-1.971809627750242599
0.632000000000000339,-1.966289290732800676
0.633000000000000451,-1.960826860201337452
0.634000000000000341,-1.955418244544754547
0.635000000000000453,-1.950059456973596950
0.636000000000000343,-1.944746614194206247
0.637000000000000455,-1.939475935077231039
0.638000000000000345,-1.934243739321104938
0.639000000000000457,-1.929046446111437829
0.640000000000000346,-1.923880572777018516
0.641000000000000458,-1.918742733443217219
0.642000000000000348,-1.913629637683455842
0.643000000000000460,-1.908538089169502516
0.644000000000000350,-1.903464984321236786
0.645000000000000462,-1.898407310956542915
0.646000000000000352,-1.893362146941955704
0.647000000000000464,-1.888326658844673434
0.648000000000000353,-1.883298100586542789
0.649000000000000465,-1.878273812100536899
0.650000000000000355,-1.873251217990333783
0.651000000000000467,-1.868227826193443075
0.652000000000000357,-1.863201226648485420
0.653000000000000469,-1.858169089966993370
0.654000000000000359,-1.853129166110333070
0.655000000000000471,-1.848079283072066703
0.656000000000000361,-1.843017345566278831
0.657000000000000473,-1.837941333722245663
0.658000000000000362,-1.832849301785842044
