# AuFCC110UCD_CS-6334-AC
# h[nm],U(h)[kJ/mol]
0.149999999999999994,136.402180781865411063
0.150999999999999995,133.344883789919691708
0.151999999999999996,131.023991441919292811
0.152999999999999997,128.913673550119654010
0.153999999999999998,126.806353614429667687
0.154999999999999999,124.650403372143728120
0.156000000000000000,122.460024655334521526
0.157000000000000001,120.268472482336591156
0.158000000000000002,118.106377232974892877
0.159000000000000002,115.993875199485046323
0.160000000000000003,113.939751574928095579
0.161000000000000004,111.943657537524359213
0.162000000000000005,109.999241536924884599
0.163000000000000006,108.097111349070388542
0.164000000000000007,106.227170647143296378
0.165000000000000008,104.380219314618329918
0.166000000000000009,102.548880251804689578
0.167000000000000010,100.727987784097564372
0.168000000000000010,98.914588749892459418
0.169000000000000011,97.107694556623499693
0.170000000000000012,95.307897415805484798
0.171000000000000013,93.516935944727492824
0.172000000000000014,91.737269244418030212
0.173000000000000015,89.971696626343785397
0.174000000000000016,88.223042998518039326
0.175000000000000017,86.493917325898678428
0.176000000000000018,84.786542938299731986
0.177000000000000018,83.102653018723998457
0.178000000000000019,81.443441618486332345
0.179000000000000020,79.809559344465057507
0.180000000000000021,78.201142889734470032
0.181000000000000022,76.617868387943261155
0.182000000000000023,75.059019826878142112
0.183000000000000024,73.523565212329046403
0.184000000000000025,72.010234659645760757
0.185000000000000026,70.517595996568246619
0.186000000000000026,69.044124721312712722
0.187000000000000027,67.588266241667128043
0.188000000000000028,66.148489214192011332
0.189000000000000029,64.723329513049975503
0.190000000000000030,63.311424900494742474
0.191000000000000031,61.911540865782342280
0.192000000000000032,60.522588368486481158
0.193000000000000033,59.143634388189596507
0.194000000000000034,57.773906266273776566
0.195000000000000034,56.412790845960174124
0.196000000000000035,55.059829390299469765
0.197000000000000036,53.714709198398999490
0.198000000000000037,52.377252759196174736
0.199000000000000038,51.047405188681509003
0.200000000000000039,49.725220597722248783
0.201000000000000040,48.410847938862197282
0.202000000000000041,47.104516785514050525
0.203000000000000042,45.806523408441648826
0.204000000000000042,44.517217433987084974
0.205000000000000043,43.236989297015682610
0.206000000000000044,41.966258639317324253
0.207000000000000045,40.705463751085659396
0.208000000000000046,39.455052108658549059
0.209000000000000047,38.215472025304741521
0.210000000000000048,36.987165402727363528
0.211000000000000049,35.770561548309800060
0.212000000000000050,34.566072006121096649
0.213000000000000050,33.374086337530343371
0.214000000000000051,32.194968779179539808
0.215000000000000052,31.029055701342173279
0.216000000000000053,29.876653787709141596
0.217000000000000054,28.738038857837182150
0.218000000000000055,27.613455255375452424
0.219000000000000056,26.503115728336251067
0.220000000000000057,25.407201731731468897
0.221000000000000058,24.325864087574455397
0.222000000000000058,23.259223942286592290
0.223000000000000059,22.207373966771115192
0.224000000000000060,21.170379749654721024
0.225000000000000061,20.148281339339874307
0.226000000000000062,19.141094895464732417
0.227000000000000063,18.148814415070681605
0.228000000000000064,17.171413503187391569
0.229000000000000065,16.208847161633109124
0.230000000000000066,15.261053573586323751
0.231000000000000066,14.327955864904931005
0.232000000000000067,13.409463826263614550
0.233000000000000068,12.505475582955263292
0.234000000000000069,11.615879201677760335
0.235000000000000070,10.740554225820282852
0.236000000000000071,9.879373132695477011
0.237000000000000072,9.032202707853491219
0.238000000000000073,8.198905333086434766
0.239000000000000073,7.379340186006293933
0.240000000000000074,6.573364350172281156
0.241000000000000075,5.780833835681308486
0.242000000000000076,5.001604510928574499
0.243000000000000077,4.235532946913077801
0.244000000000000078,3.482477176021391951
0.245000000000000079,2.742297367682235976
0.246000000000000080,2.014856423661343765
0.247000000000000081,1.300020496065104059
0.248000000000000081,0.597659431359020998
0.249000000000000082,-0.092352856112874096
0.250000000000000111,-0.770138077490540529
0.251000000000000112,-1.435813325934745421
0.252000000000000113,-2.089490892578972137
0.253000000000000114,-2.731278138112581466
0.254000000000000115,-3.361277416218671821
0.255000000000000115,-3.979586045115985460
0.256000000000000116,-4.586296323502554451
0.257000000000000117,-5.181495587263245994
0.258000000000000118,-5.765266303380971458
0.259000000000000119,-6.337686197582732994
0.260000000000000120,-6.898828412352759010
0.261000000000000121,-7.448761692053436079
0.262000000000000122,-7.987550592012331308
0.263000000000000123,-8.515255708554700931
0.264000000000000123,-9.031933927088475755
0.265000000000000124,-9.537638685478489364
0.266000000000000125,-10.032420250079855606
0.267000000000000126,-10.516326001934793055
0.268000000000000127,-10.989400730773706272
0.269000000000000128,-11.451686934596347456
0.270000000000000129,-11.903225122745288544
0.271000000000000130,-12.344054120519256657
0.272000000000000131,-12.774211373506686229
0.273000000000000131,-13.193733249952506625
0.274000000000000132,-13.602655339600222106
0.275000000000000133,-14.001012747578716500
0.276000000000000134,-14.388840382027495934
0.277000000000000135,-14.766173234274003079
0.278000000000000136,-15.133046650495050045
0.279000000000000137,-15.489496593907503552
0.280000000000000138,-15.835559896642379840
0.281000000000000139,-16.171274500562951459
0.282000000000000139,-16.496679686387697217
0.283000000000000140,-16.811816290576068411
0.284000000000000141,-17.116726909527006484
0.285000000000000142,-17.411456090727845947
0.286000000000000143,-17.696050510574171000
0.287000000000000144,-17.970559138659144338
0.288000000000000145,-18.235033388405337718
0.289000000000000146,-18.489527253979794352
0.290000000000000147,-18.734097433498824614
0.291000000000000147,-18.968803438587663379
0.292000000000000148,-19.193707690416765388
0.293000000000000149,-19.408875602386181924
0.294000000000000150,-19.614375649677423752
0.295000000000000151,-19.810279425933877917
0.296000000000000152,-19.996661687369957860
0.297000000000000153,-20.173600384643311401
0.298000000000000154,-20.341176682855603985
0.299000000000000155,-20.499474970074274438
0.300000000000000155,-20.648582854791541763
0.301000000000000156,-20.788591152757117442
0.302000000000000157,-20.919593863638581865
0.303000000000000158,-21.041688137977097028
0.304000000000000159,-21.154974234918039855
0.305000000000000160,-21.259555471204048871
0.306000000000000161,-21.355538161924748408
0.307000000000000162,-21.443031553520928156
0.308000000000000163,-21.522147749542092754
0.309000000000000163,-21.593001629656455975
0.310000000000000164,-21.655710762409476899
0.311000000000000165,-21.710395312222992459
0.312000000000000166,-21.757177941121351950
0.313000000000000167,-21.796183705663551677
0.314000000000000168,-21.827539949551706400
0.315000000000000169,-21.851376192376463337
0.316000000000000170,-21.867824014949359679
0.317000000000000171,-21.877016941659665150
0.318000000000000171,-21.879090320281182613
0.319000000000000172,-21.874181199640847950
0.320000000000000173,-21.862428205546923010
0.321000000000000174,-21.843971415360016408
0.322000000000000175,-21.818952231575330813
0.323000000000000176,-21.787513254769102389
0.324000000000000177,-21.749798156246704650
0.325000000000000178,-21.705951550713798781
0.326000000000000179,-21.656118869276831163
0.327000000000000179,-21.600446233062200463
0.328000000000000180,-21.539080327728282072
0.329000000000000181,-21.472168279128602819
0.330000000000000182,-21.399857530368159075
0.331000000000000183,-21.322295720480276771
0.332000000000000184,-21.239630564935112034
0.333000000000000185,-21.152009738176655418
0.334000000000000186,-21.059580758369776277
0.335000000000000187,-20.962490874524672080
0.336000000000000187,-20.860886956151997396
0.337000000000000188,-20.754915385587892729
0.338000000000000189,-20.644721953115286794
0.339000000000000190,-20.530451754994651026
0.340000000000000191,-20.412249094504694824
0.341000000000000192,-20.290257386081989921
0.342000000000000193,-20.164619062636209179
0.343000000000000194,-20.035475486107316101
0.344000000000000195,-19.902966861319328018
0.345000000000000195,-19.767232153176244935
0.346000000000000196,-19.628409007234850492
0.347000000000000197,-19.486633673680554324
0.348000000000000198,-19.342040934723307544
0.349000000000000199,-19.194764035422160475
0.350000000000000200,-19.044934617939443200
0.351000000000000201,-18.892682659217623353
0.352000000000000202,-18.738136412065227177
0.353000000000000203,-18.581422349631438351
0.354000000000000203,-18.422665113242857160
0.355000000000000204,-18.261987463570005019
0.356000000000000205,-18.099510235086022192
0.357000000000000206,-17.935352293774940335
0.358000000000000207,-17.769630498042044309
0.359000000000000208,-17.602459662775210347
0.360000000000000209,-17.433952526501602875
0.361000000000000210,-17.264219721581049782
0.362000000000000210,-17.093369747374033807
0.363000000000000211,-16.921508946319228528
0.364000000000000212,-16.748741482853461093
0.365000000000000213,-16.575169325103932039
0.366000000000000214,-16.400892229281396340
0.367000000000000215,-16.226007726700473199
0.368000000000000216,-16.050611113352491799
0.369000000000000217,-15.874795441954564268
0.370000000000000218,-15.698651516397926997
0.371000000000000218,-15.522267888517486512
0.372000000000000219,-15.345730857104314282
0.373000000000000220,-15.169124469082177598
0.374000000000000221,-14.992530522769300205
0.375000000000000222,-14.816028573146066805
0.376000000000000223,-14.639695939050195506
0.377000000000000224,-14.463607712220658996
0.378000000000000225,-14.287836768112345709
0.379000000000000226,-14.112453778403940774
0.380000000000000226,-13.937527225122456898
0.381000000000000227,-13.763123416308161495
0.382000000000000228,-13.589306503145120786
0.383000000000000229,-13.416138498483368480
0.384000000000000230,-13.243679296679530921
0.385000000000000231,-13.071986694684635921
0.386000000000000232,-12.901116414308365421
0.387000000000000233,-12.731122125590720984
0.388000000000000234,-12.562055471213422919
0.389000000000000234,-12.393966091884792036
0.390000000000000235,-12.226901652633186401
0.391000000000000236,-12.060907869945966198
0.392000000000000237,-11.896028539691938519
0.393000000000000238,-11.732305565767557454
0.394000000000000239,-11.569778989407993208
0.395000000000000240,-11.408487019106450688
0.396000000000000241,-11.248466061086450196
0.397000000000000242,-11.089750750273301705
0.398000000000000242,-10.932373981713197963
0.399000000000000243,-10.776366942389380199
0.400000000000000244,-10.621759143386812596
0.401000000000000245,-10.468578452358670461
0.402000000000000246,-10.316851126249096282
0.403000000000000247,-10.166601844228624785
0.404000000000000248,-10.017853740800438445
0.405000000000000249,-9.870628439036860158
0.406000000000000250,-9.724946083907351380
0.407000000000000250,-9.580825375660861454
0.408000000000000251,-9.438283603226688356
0.409000000000000252,-9.297336677599906452
0.410000000000000253,-9.157999165178594581
0.411000000000000254,-9.020284321021788898
0.412000000000000255,-8.884204121998427794
0.413000000000000256,-8.749769299799114108
0.414000000000000257,-8.616989373783649597
0.415000000000000258,-8.485872683639119174
0.416000000000000258,-8.356426421824071582
0.417000000000000259,-8.228656665776185264
0.418000000000000260,-8.102568409861749643
0.419000000000000261,-7.978165597046555035
0.420000000000000262,-7.855451150269246341
0.421000000000000263,-7.734427003499045661
0.422000000000000264,-7.615094132461156740
0.423000000000000265,-7.497452585013965276
0.424000000000000266,-7.381501511163802931
0.425000000000000266,-7.267239192703257800
0.426000000000000267,-7.154663072460850870
0.427000000000000268,-7.043769783150297670
0.428000000000000269,-6.934555175808787553
0.429000000000000270,-6.827014347814682083
0.430000000000000271,-6.721141670475563323
0.431000000000000272,-6.616930816178955510
0.432000000000000273,-6.514374785098316245
0.433000000000000274,-6.413465931448142143
0.434000000000000274,-6.314195989282403332
0.435000000000000275,-6.216556097831582584
0.436000000000000276,-6.120536826374111783
0.437000000000000277,-6.026128198638616595
0.438000000000000278,-5.933319716734256843
0.439000000000000279,-5.842100384606851549
0.440000000000000280,-5.752458731019112648
0.441000000000000281,-5.664382832053944661
0.442000000000000282,-5.577860333140315596
0.443000000000000282,-5.492878470601471719
0.444000000000000283,-5.409424092726213829
0.445000000000000284,-5.327483680363938490
0.446000000000000285,-5.247043367044780915
0.447000000000000286,-5.168088958626894325
0.448000000000000287,-5.090605952472643025
0.449000000000000288,-5.014579556156607332
0.450000000000000289,-4.939994705708003586
0.451000000000000290,-4.866836083390914780
0.452000000000000290,-4.795088135025805443
0.453000000000000291,-4.724735086856105326
0.454000000000000292,-4.655760961964064748
0.455000000000000293,-4.588149596240080896
0.456000000000000294,-4.521884653910274388
0.457000000000000295,-4.456949642626968355
0.458000000000000296,-4.393327928127211734
0.459000000000000297,-4.331002748464490182
0.460000000000000298,-4.269957227819048740
0.461000000000000298,-4.210174389892396896
0.462000000000000299,-4.151637170891672390
0.463000000000000300,-4.094328432109664462
0.464000000000000301,-4.038230972106566341
0.465000000000000302,-3.983327538499447318
0.466000000000000303,-3.929600839365599452
0.467000000000000304,-3.877033554266034798
0.468000000000000305,-3.825608344895550239
0.469000000000000306,-3.775307865365569171
0.470000000000000306,-3.726114772126435604
0.471000000000000307,-3.678011733535451633
0.472000000000000308,-3.630981439077372475
0.473000000000000309,-3.585006608243779258
0.474000000000000310,-3.540069999078048646
0.475000000000000311,-3.496154416392360353
0.476000000000000312,-3.453242719663594862
0.477000000000000313,-3.411317830614394531
0.478000000000000314,-3.370362740486273712
0.479000000000000314,-3.330360517011244692
0.480000000000000315,-3.291294311088444946
0.481000000000000316,-3.253147363172492756
0.482000000000000317,-3.215903009379850630
0.483000000000000318,-3.179544687319855178
0.484000000000000319,-3.144055941656691999
0.485000000000000320,-3.109420429408840114
0.486000000000000321,-3.075621924992169465
0.487000000000000322,-3.042644325013087681
0.488000000000000322,-3.010471652817856558
0.489000000000000323,-2.979088062804351456
0.490000000000000324,-2.948477844502257916
0.491000000000000325,-2.918625426427790437
0.492000000000000326,-2.889515379718861077
0.493000000000000327,-2.861132421556614513
0.494000000000000328,-2.833461418379156438
0.495000000000000329,-2.806487388893136981
0.496000000000000330,-2.780195506888957446
0.497000000000000330,-2.754571103865097292
0.498000000000000331,-2.729599671467077826
0.499000000000000332,-2.705266863746526695
0.500000000000000333,-2.681558499245626059
0.501000000000000334,-2.658460562912186020
0.502000000000000335,-2.635959207850556485
0.503000000000000336,-2.614040756913408536
0.504000000000000337,-2.592691704139391540
0.505000000000000338,-2.571898716041560284
0.506000000000000338,-2.551648632751402523
0.507000000000000339,-2.531928469023150718
0.508000000000000340,-2.512725415103047144
0.509000000000000341,-2.494026837468125368
0.510000000000000342,-2.475820279438905480
0.511000000000000343,-2.458093461670423530
0.512000000000000344,-2.440834282525852217
0.513000000000000345,-2.424030818336902371
0.514000000000000346,-2.407671323555161003
0.515000000000000346,-2.391744230798277471
0.516000000000000347,-2.376238150795008330
0.517000000000000348,-2.361141872232994210
0.518000000000000349,-2.346444361512902255
0.519000000000000350,-2.332134762412706230
0.520000000000000351,-2.318202395665689419
0.521000000000000352,-2.304636758455605339
0.522000000000000353,-2.291427523832505919
0.523000000000000353,-2.278564540052459009
0.524000000000000354,-2.266037829844560925
0.525000000000000355,-2.253837589608284731
0.526000000000000356,-2.241954188544312387
0.527000000000000357,-2.230378167721938532
0.528000000000000358,-2.219100239085811221
0.529000000000000359,-2.208111284405094743
0.530000000000000360,-2.197402354167643068
0.531000000000000361,-2.186964666422043901
0.532000000000000361,-2.176789605570070840
0.533000000000000362,-2.166868721112205520
0.534000000000000363,-2.157193726348633156
0.535000000000000364,-2.147756497038213475
0.536000000000000365,-2.138549070017755405
0.537000000000000366,-2.129563641783883021
0.538000000000000367,-2.120792567039709642
0.539000000000000368,-2.112228357208545404
0.540000000000000369,-2.103863678916610080
0.541000000000000369,-2.095691352446917399
0.542000000000000370,-2.087704350166210254
0.543000000000000371,-2.079895794926878150
0.544000000000000372,-2.072258958445741595
0.545000000000000373,-2.064787259661460705
0.546000000000000374,-2.057474263072278209
0.547000000000000375,-2.050313677055846107
0.548000000000000376,-2.043299352172718741
0.549000000000000377,-2.036425279455077231
0.550000000000000377,-2.029685588682180075
0.551000000000000378,-2.023074546644109351
0.552000000000000379,-2.016586555395066149
0.553000000000000380,-2.010216150497755816
0.554000000000000381,-2.003957999260026046
0.555000000000000382,-1.997806898965152511
0.556000000000000383,-1.991757775096903105
0.557000000000000384,-1.985805679560632697
0.558000000000000385,-1.979945788901482207
0.559000000000000385,-1.974173402520856602
0.560000000000000386,-1.968483940892115980
0.561000000000000387,-1.962872943776624357
0.562000000000000388,-1.957336068441014376
0.563000000000000389,-1.951869087876685116
0.564000000000000390,-1.946467889022359454
0.565000000000000391,-1.941128470990611365
0.566000000000000392,-1.935846943299154743
0.567000000000000393,-1.930619524107696439
0.568000000000000393,-1.925442538461092257
0.569000000000000394,-1.920312416539542211
0.570000000000000395,-1.915225691916502715
0.571000000000000396,-1.910178999824955426
0.572000000000000397,-1.905169075432729286
0.573000000000000398,-1.900192752127347617
0.574000000000000399,-1.895246959811113241
0.575000000000000400,-1.890328723206832651
0.576000000000000401,-1.885435160174798952
0.577000000000000401,-1.880563480041473001
0.578000000000000402,-1.875710981940318378
0.579000000000000403,-1.870875053165220070
0.580000000000000404,-1.866053167536948720
0.581000000000000405,-1.861242883782991075
0.582000000000000406,-1.856441843931162072
0.583000000000000407,-1.851647771717309210
0.584000000000000408,-1.846858471007453817
0.585000000000000409,-1.842071824234643440
0.586000000000000409,-1.837285790850849310
0.587000000000000410,-1.832498405794092067
0.588000000000000411,-1.827707777971107062
0.589000000000000412,-1.822912088755758164
0.590000000000000413,-1.818109590503366180
0.591000000000000414,-1.813298605081192338
0.592000000000000415,-1.808477522415251615
0.593000000000000416,-1.803644799053553571
0.594000000000000417,-1.798798956745984556
0.595000000000000417,-1.793938581040938285
0.596000000000000418,-1.789062319898763631
0.597000000000000419,-1.784168882322205052
0.598000000000000420,-1.779257037003870279
0.599000000000000421,-1.774325610990806101
0.600000000000000422,-1.769373488366265734
0.601000000000000423,-1.764399608948699072
0.602000000000000424,-1.759402967008006913
0.603000000000000425,-1.754382609999105114
0.604000000000000425,-1.749337637312788685
0.605000000000000426,-1.744267199043898486
0.606000000000000427,-1.739170494776880016
0.607000000000000428,-1.734046772388521784
0.608000000000000429,-1.728895326868140403
0.609000000000000430,-1.723715499154850450
