# AuFCC110UCD_PYRROLE-AC
# h[nm],U(h)[kJ/mol]
0.200000000000000011,90.160888158215243493
0.201000000000000012,85.356762955650609115
0.202000000000000013,82.534887514228969962
0.203000000000000014,80.646762857881739706
0.204000000000000015,79.092127762742350683
0.205000000000000016,77.558249857860602106
0.206000000000000016,75.909490710390087997
0.207000000000000017,74.112991083166519957
0.208000000000000018,72.189995972758168818
0.209000000000000019,70.185116945570996450
0.210000000000000020,68.147919777437977018
0.211000000000000021,66.122789931310023803
0.212000000000000022,64.144191982029241217
0.213000000000000023,62.235298255040696347
0.214000000000000024,60.408591038695547581
0.215000000000000024,58.667498847790554350
0.216000000000000025,57.008454047950614552
0.217000000000000026,55.422990003778842549
0.218000000000000027,53.899656073854750105
0.219000000000000028,52.425637346686450257
0.220000000000000029,50.988037348941745108
0.221000000000000030,49.574826780575072860
0.222000000000000031,48.175487588201129086
0.223000000000000032,46.781395220417664405
0.224000000000000032,45.385986968289003585
0.225000000000000033,43.984763937330598083
0.226000000000000034,42.575170588506537683
0.227000000000000035,41.156390428576244744
0.228000000000000036,39.729090343073927727
0.229000000000000037,38.295139914399200620
0.230000000000000038,36.857326266516636792
0.231000000000000039,35.419079762128191646
0.232000000000000040,33.984221360554705882
0.233000000000000040,32.556738655214921607
0.234000000000000041,31.140594525795769698
0.235000000000000042,29.739569907253503800
0.236000000000000043,28.357140323742129340
0.237000000000000044,26.996384481446444426
0.238000000000000045,25.659922280790159022
0.239000000000000046,24.349879020268438978
0.240000000000000047,23.067872252374762354
0.241000000000000048,21.815017655712562572
0.242000000000000048,20.591950353572975985
0.243000000000000049,19.398858293301678657
0.244000000000000050,18.235524565590228718
0.245000000000000051,17.101375858259014962
0.246000000000000052,15.995534581202367264
0.247000000000000053,14.916872549324034836
0.248000000000000054,13.864064454485841793
0.249000000000000055,12.835639685525020326
0.250000000000000056,11.830031360228355553
0.251000000000000056,10.845621710304373053
0.252000000000000057,9.880783207412529023
0.253000000000000058,8.933915034320824233
0.254000000000000059,8.003474690586907414
0.255000000000000060,7.088004677995337843
0.256000000000000061,6.186154339145308434
0.257000000000000062,5.296697025286756677
0.258000000000000063,4.418542849198125566
0.259000000000000064,3.550747338139335962
0.260000000000000064,2.692516343252867816
0.261000000000000065,1.843207587707811568
0.262000000000000066,1.002329248737327649
0.263000000000000067,0.169535970707096528
0.264000000000000068,-0.655377300526439721
0.265000000000000069,-1.472483285641938533
0.266000000000000070,-2.281731785311112759
0.267000000000000071,-3.082960205543222365
0.268000000000000071,-3.875904887579765479
0.269000000000000072,-4.660212962973449891
0.270000000000000073,-5.435454483333625575
0.271000000000000074,-6.201134603217004049
0.272000000000000075,-6.956705623195844623
0.273000000000000076,-7.701578727770678867
0.274000000000000077,-8.435135279150070886
0.275000000000000078,-9.156737552720731088
0.276000000000000079,-9.865738823087937703
0.277000000000000079,-10.561492730756954828
0.278000000000000080,-11.243361878780817165
0.279000000000000081,-11.910725626007302225
0.280000000000000082,-12.562987058931922135
0.281000000000000083,-13.199579137661611838
0.282000000000000084,-13.819970023187224228
0.283000000000000085,-14.423667603147555027
0.284000000000000086,-15.010223241651377890
0.285000000000000087,-15.579234785618458758
0.286000000000000087,-16.130348865631038535
0.287000000000000088,-16.663262533573032442
0.288000000000000089,-17.177724282498207486
0.289000000000000090,-17.673534496331445354
0.290000000000000091,-18.150545378282107123
0.291000000000000092,-18.608660407349510990
0.292000000000000093,-19.047833372128110341
0.293000000000000094,-19.468067030374356818
0.294000000000000095,-19.869411441568136212
0.295000000000000095,-20.251962018073037086
0.296000000000000096,-20.615857338546113908
0.297000000000000097,-20.961276765040356196
0.298000000000000098,-21.288437902841572225
0.299000000000000099,-21.597593939542441888
0.300000000000000100,-21.889030897227506500
0.301000000000000101,-22.163064828968014552
0.302000000000000102,-22.420038988139531000
0.303000000000000103,-22.660320996412814054
0.304000000000000103,-22.884300033652728246
0.305000000000000104,-23.092384070416663633
0.306000000000000105,-23.284997161289631151
0.307000000000000106,-23.462576814942174508
0.308000000000000107,-23.625571454562710016
0.309000000000000108,-23.774437980204432108
0.310000000000000109,-23.909639442605982396
0.311000000000000110,-24.031642836196521529
0.312000000000000111,-24.140917017284401425
0.313000000000000111,-24.237930751850399247
0.314000000000000112,-24.323150895923486559
0.315000000000000113,-24.397040710205121883
0.316000000000000114,-24.460058309423196476
0.317000000000000115,-24.512655245835997420
0.318000000000000116,-24.555275225363004665
0.319000000000000117,-24.588352953989229377
0.320000000000000118,-24.612313111365700991
0.321000000000000119,-24.627569447905379718
0.322000000000000119,-24.634524001144619376
0.323000000000000120,-24.633566426698024543
0.324000000000000121,-24.625073438774890633
0.325000000000000122,-24.609408354939446895
0.326000000000000123,-24.586920739580261142
0.327000000000000124,-24.557946140400066071
0.328000000000000125,-24.522805912140011486
0.329000000000000126,-24.481807121705948305
0.330000000000000127,-24.435242528863732048
0.331000000000000127,-24.383390636711453681
0.332000000000000128,-24.326515806212153592
0.333000000000000129,-24.264868429178385156
0.334000000000000130,-24.198685154234837569
0.335000000000000131,-24.128189160443206163
0.336000000000000132,-24.053590473450825016
0.337000000000000133,-23.975086319218430475
0.338000000000000134,-23.892861510589149532
0.339000000000000135,-23.807088862177714361
0.340000000000000135,-23.717929629283535320
0.341000000000000136,-23.625533966761096849
0.342000000000000137,-23.530041404014383488
0.343000000000000138,-23.431581332516042693
0.344000000000000139,-23.330273502486271298
0.345000000000000140,-23.226228525598472174
0.346000000000000141,-23.119548380807266597
0.347000000000000142,-23.010326920619384339
0.348000000000000143,-22.898650375347038732
0.349000000000000143,-22.784597853096453690
0.350000000000000144,-22.668241833450540668
0.351000000000000145,-22.549648653003675491
0.352000000000000146,-22.428878981097327028
0.353000000000000147,-22.305988284288254420
0.354000000000000148,-22.181027278255143642
0.355000000000000149,-22.054042366015174537
0.356000000000000150,-21.925076061478904421
0.357000000000000151,-21.794167397519732532
0.358000000000000151,-21.661352317873532769
0.359000000000000152,-21.526664052314316677
0.360000000000000153,-21.390133474673881153
0.361000000000000154,-21.251789443386655876
0.362000000000000155,-21.111659124346076055
0.363000000000000156,-20.969768295956004778
0.364000000000000157,-20.826141636349881026
0.365000000000000158,-20.680802992832347798
0.366000000000000159,-20.533775633672206595
0.367000000000000159,-20.385082482443472429
0.368000000000000160,-20.234746335172097531
0.369000000000000161,-20.082790060600551385
0.370000000000000162,-19.929236783930697641
0.371000000000000163,-19.774110054448986062
0.372000000000000164,-19.617433997474385876
0.373000000000000165,-19.459233451102843304
0.374000000000000166,-19.299534088248755381
0.375000000000000167,-19.138362524507734008
0.376000000000000167,-18.975746412383372785
0.377000000000000168,-18.811714522435842412
0.378000000000000169,-18.646296811921633463
0.379000000000000170,-18.479524481501861999
0.380000000000000171,-18.311430020601097368
0.381000000000000172,-18.142047242001385854
0.382000000000000173,-17.971411306255145490
0.383000000000000174,-17.799558736498248379
0.384000000000000175,-17.626527424239132102
0.385000000000000175,-17.452356626693365627
0.386000000000000176,-17.277086956224128045
0.387000000000000177,-17.100760362438890638
0.388000000000000178,-16.923420107481362606
0.389000000000000179,-16.745110735044473671
0.390000000000000180,-16.565878033616851184
0.391000000000000181,-16.385768994460207182
0.392000000000000182,-16.204831764799802585
0.393000000000000183,-16.023115596693916274
0.394000000000000183,-15.840670792031636083
0.395000000000000184,-15.657548644091468404
0.396000000000000185,-15.473801376075527969
0.397000000000000186,-15.289482077017037653
0.398000000000000187,-15.104644635440862999
0.399000000000000188,-14.919343671139074559
0.400000000000000189,-14.733634465406334257
0.401000000000000190,-14.547572890061498896
0.402000000000000191,-14.361215335565438167
0.403000000000000191,-14.174618638526842673
0.404000000000000192,-13.987840008871591735
0.405000000000000193,-13.800936956934094724
0.406000000000000194,-13.613967220712988038
0.407000000000000195,-13.426988693517509788
0.408000000000000196,-13.240059352215146404
0.409000000000000197,-13.053237186276188453
0.410000000000000198,-12.866580127796192201
0.411000000000000199,-12.680145982662693882
0.412000000000000199,-12.493992363019154723
0.413000000000000200,-12.308176621165637599
0.414000000000000201,-12.122755785022921060
0.415000000000000202,-11.937786495274242071
0.416000000000000203,-11.753324944287616205
0.417000000000000204,-11.569426816909507139
0.418000000000000205,-11.386147233210600405
0.419000000000000206,-11.203540693253760452
0.420000000000000207,-11.021661023944124835
0.421000000000000207,-10.840561328012764619
0.422000000000000208,-10.660293935175452873
0.423000000000000209,-10.480910355500627773
0.424000000000000210,-10.302461235012110308
0.425000000000000211,-10.124996313544823323
0.426000000000000212,-9.948564384864933885
0.427000000000000213,-9.773213259058865177
0.428000000000000214,-9.598989727189911392
0.429000000000000214,-9.425939528214961172
0.430000000000000215,-9.254107318148729888
0.431000000000000216,-9.083536641458103134
0.432000000000000217,-8.914269904663909116
0.433000000000000218,-8.746348352124055481
0.434000000000000219,-8.579812043967285362
0.435000000000000220,-8.414699836143793021
0.436000000000000221,-8.251049362555241018
0.437000000000000222,-8.088897019224013718
0.438000000000000222,-7.928277950458858747
0.439000000000000223,-7.769226036971512706
0.440000000000000224,-7.611773885896957026
0.441000000000000225,-7.455952822667827107
0.442000000000000226,-7.301792884692327235
0.443000000000000227,-7.149322816782893497
0.444000000000000228,-6.998570068282345069
0.445000000000000229,-6.849560791832786322
0.446000000000000230,-6.702319843731906701
0.447000000000000230,-6.556870785820768432
0.448000000000000231,-6.413235888846547716
0.449000000000000232,-6.271436137243481923
0.450000000000000233,-6.131491235275223772
0.451000000000000234,-5.993419614481615199
0.452000000000000235,-5.857238442373209786
0.453000000000000236,-5.722963632316890425
0.454000000000000237,-5.590609854556636726
0.455000000000000238,-5.460190548313490488
0.456000000000000238,-5.331717934909865342
0.457000000000000239,-5.205203031863409713
0.458000000000000240,-5.080655667897037375
0.459000000000000241,-4.958084498811731855
0.460000000000000242,-4.837497024170504645
0.461000000000000243,-4.718899604741936926
0.462000000000000244,-4.602297480653524175
0.463000000000000245,-4.487694790205292605
0.464000000000000246,-4.375094589295969172
0.465000000000000246,-4.264498871414619252
0.466000000000000247,-4.155908588151915772
0.467000000000000248,-4.049323670186457669
0.468000000000000249,-3.944743048702806565
0.469000000000000250,-3.842164677198876888
0.470000000000000251,-3.741585553641864070
0.471000000000000252,-3.643001742932823195
0.472000000000000253,-3.546408399641629128
0.473000000000000254,-3.451799790974941828
0.474000000000000254,-3.359169319941303744
0.475000000000000255,-3.268509548678694365
0.476000000000000256,-3.179812221911048287
0.477000000000000257,-3.093068290501688633
0.478000000000000258,-3.008267935072569621
0.479000000000000259,-2.925400589659802542
0.480000000000000260,-2.844454965376898681
0.481000000000000261,-2.765419074058427018
0.482000000000000262,-2.688280251858151892
0.483000000000000262,-2.613025182776623545
0.484000000000000263,-2.539639922094540925
0.485000000000000264,-2.468109919689268406
0.486000000000000265,-2.398420043213083996
0.487000000000000266,-2.330554601112685198
0.488000000000000267,-2.264497365470687917
0.489000000000000268,-2.200231594650942757
0.490000000000000269,-2.137740055730254163
0.491000000000000270,-2.077005046700514335
0.492000000000000270,-2.018008418425785155
0.493000000000000271,-1.960731596340234306
0.494000000000000272,-1.905155601873431248
0.495000000000000273,-1.851261073590598105
0.496000000000000274,-1.799028288036303325
0.497000000000000275,-1.748437180270730806
0.498000000000000276,-1.699467364088799837
0.499000000000000277,-1.652098151912911650
0.500000000000000222,-1.606308574351057228
0.501000000000000334,-1.562077399412718171
0.502000000000000224,-1.519383151375762298
0.503000000000000336,-1.478204129298017921
0.504000000000000226,-1.438518425168340276
0.505000000000000338,-1.400303941691995346
0.506000000000000227,-1.363538409706574583
0.507000000000000339,-1.328199405224410601
0.508000000000000229,-1.294264366098835328
0.509000000000000341,-1.261710608311555681
0.510000000000000231,-1.230515341879460767
0.511000000000000343,-1.200655686379129339
0.512000000000000233,-1.172108686088374485
0.513000000000000345,-1.144851324744134535
0.514000000000000234,-1.118860539916890939
0.515000000000000346,-1.094113237001712147
0.516000000000000236,-1.070586302826994629
0.517000000000000348,-1.048256618881881597
0.518000000000000238,-1.027101074163947469
0.519000000000000350,-1.007096577649023939
0.520000000000000240,-0.988220070385357863
0.521000000000000352,-0.970448537214598561
0.522000000000000242,-0.953759018122389834
0.523000000000000353,-0.938128619221679672
0.524000000000000243,-0.923534523372007476
0.525000000000000355,-0.909954000438341959
0.526000000000000245,-0.897364417193314168
0.527000000000000357,-0.885743246866724343
0.528000000000000247,-0.875068078346645017
0.529000000000000359,-0.865316625036341103
0.530000000000000249,-0.856466733371694766
0.531000000000000361,-0.848496391003691341
0.532000000000000250,-0.841383734650916870
0.533000000000000362,-0.835107057626934823
0.534000000000000252,-0.829644817047643146
0.535000000000000364,-0.824975640723898507
0.536000000000000254,-0.821078333744523325
0.537000000000000366,-0.817931884755196625
0.538000000000000256,-0.815515471938644154
0.539000000000000368,-0.813808468701582965
0.540000000000000258,-0.812790449074083932
0.541000000000000369,-0.812441192826894643
0.542000000000000259,-0.812740690312403258
0.543000000000000371,-0.813669147034944862
0.544000000000000261,-0.815206987956169749
0.545000000000000373,-0.817334861541170410
0.546000000000000263,-0.820033643551135838
0.547000000000000375,-0.823284440588288979
0.548000000000000265,-0.827068593398817553
0.549000000000000377,-0.831367679939578941
0.550000000000000266,-0.836163518214211976
0.551000000000000378,-0.841438168884498516
0.552000000000000268,-0.847173937662492604
0.553000000000000380,-0.853353377489184828
0.554000000000000270,-0.859959290505244001
0.555000000000000382,-0.866974729819454781
0.556000000000000272,-0.874383001080350830
0.557000000000000384,-0.882167663856530559
0.558000000000000274,-0.890312532831149861
0.559000000000000385,-0.898801678815871030
0.560000000000000275,-0.907619429589706983
0.561000000000000387,-0.916750370567980255
0.562000000000000277,-0.926179345306541002
0.563000000000000389,-0.935891455846550202
0.564000000000000279,-0.945872062904737576
0.565000000000000391,-0.956106785914285995
0.566000000000000281,-0.966581502921136759
0.567000000000000393,-0.977282350340749728
0.568000000000000282,-0.988195722579994551
0.569000000000000394,-0.999308271528957404
0.570000000000000284,-1.010606905927229127
0.571000000000000396,-1.022078790609410870
0.572000000000000286,-1.033711345634135803
0.573000000000000398,-1.045492245301152145
0.574000000000000288,-1.057409417060720669
0.575000000000000400,-1.069451040319706392
0.576000000000000290,-1.081605545148326630
0.577000000000000401,-1.093861610891897929
0.578000000000000291,-1.106208164691407259
0.579000000000000403,-1.118634379916906951
0.580000000000000293,-1.131129674517586947
0.581000000000000405,-1.143683709292327988
0.582000000000000295,-1.156286386084298234
0.583000000000000407,-1.168927845903382501
0.584000000000000297,-1.181598466979769224
0.585000000000000409,-1.194288862752363567
0.586000000000000298,-1.206989879795137277
0.587000000000000410,-1.219692595684970682
0.588000000000000300,-1.232388316813943563
0.589000000000000412,-1.245068576149409356
0.590000000000000302,-1.257725130944730374
0.591000000000000414,-1.270349960403825085
0.592000000000000304,-1.282935263302226625
0.593000000000000416,-1.295473455567644150
0.594000000000000306,-1.307957167822677347
0.595000000000000417,-1.320379242892403715
0.596000000000000307,-1.332732733279349269
0.597000000000000419,-1.345010898608510086
0.598000000000000309,-1.357207203044787480
0.599000000000000421,-1.369315312685167596
0.600000000000000311,-1.381329092928102353
0.601000000000000423,-1.393242605822246238
0.602000000000000313,-1.405050107396689674
0.603000000000000425,-1.416746044974915408
0.604000000000000314,-1.428325054474411937
0.605000000000000426,-1.439781957694003633
0.606000000000000316,-1.451111759590759442
0.607000000000000428,-1.462309645548353298
0.608000000000000318,-1.473370978638697260
0.609000000000000430,-1.484291296878556654
0.610000000000000320,-1.495066310482778382
0.611000000000000432,-1.505691899115867205
0.612000000000000322,-1.516164109143312233
0.613000000000000433,-1.526479150884309188
0.614000000000000323,-1.536633395867240903
0.615000000000000435,-1.546623374089359571
0.616000000000000325,-1.556445771281934398
0.617000000000000437,-1.566097426182299746
0.618000000000000327,-1.575575327813872661
0.619000000000000439,-1.584876612775464766
0.620000000000000329,-1.593998562540972275
0.621000000000000441,-1.602938600770536182
0.622000000000000330,-1.611694290634256177
0.623000000000000442,-1.620263332149448177
0.624000000000000332,-1.628643559532352514
0.625000000000000444,-1.636832938565351059
0.626000000000000334,-1.644829563980383380
0.627000000000000446,-1.652631656859572029
0.628000000000000336,-1.660237562053729521
0.629000000000000448,-1.667645745619572129
0.630000000000000338,-1.674854792276315951
0.631000000000000449,-1.681863402882395331
0.632000000000000339,-1.688670391932878712
0.633000000000000451,-1.695274685078248522
0.634000000000000341,-1.701675316665078652
0.635000000000000453,-1.707871427299246347
0.636000000000000343,-1.713862261432004930
0.637000000000000455,-1.719647164969659414
0.638000000000000345,-1.725225582907023325
0.639000000000000457,-1.730597056985299087
0.640000000000000346,-1.735761223374624906
0.641000000000000458,-1.740717810381764652
0.642000000000000348,-1.745466636183158782
0.643000000000000460,-1.750007606583785291
0.644000000000000350,-1.754340712801988333
0.645000000000000462,-1.758466029280638665
0.646000000000000352,-1.762383711524770913
0.647000000000000464,-1.766093993966014297
0.648000000000000353,-1.769597187853908071
0.649000000000000465,-1.772893679174355253
0.650000000000000355,-1.775983926595309015
0.651000000000000467,-1.778868459439838290
0.652000000000000357,-1.781547875686719351
0.653000000000000469,-1.784022839998559817
0.654000000000000359,-1.786294081777641152
0.655000000000000471,-1.788362393249419924
0.656000000000000361,-1.790228627573818176
0.657000000000000473,-1.791893696984277140
0.658000000000000362,-1.793358570954592057
0.659000000000000474,-1.794624274393526564
