# AuFCC110UCD_BGALNA-JS
# h[nm],U(h)[kJ/mol]
0.200000000000000011,151.790644069163363383
0.201000000000000012,149.143116383940622427
0.202000000000000013,146.111649349120568786
0.203000000000000014,143.005980338019554665
0.204000000000000015,139.975258674952783622
0.205000000000000016,137.073562852145499846
0.206000000000000016,134.302896280774746174
0.207000000000000017,131.640477487898294839
0.208000000000000018,129.055267179581761638
0.209000000000000019,126.517279696255698695
0.210000000000000020,124.002194463646745248
0.211000000000000021,121.493025241675780990
0.212000000000000022,118.980053214409821294
0.213000000000000023,116.459832245838782683
0.214000000000000024,113.933791369870021981
0.215000000000000024,111.406760782464658632
0.216000000000000025,108.885610611554923821
0.217000000000000026,106.378099548057804213
0.218000000000000027,103.891970328751497732
0.219000000000000028,101.434291647945997283
0.220000000000000029,99.011024404291092083
0.221000000000000030,96.626779201798214558
0.222000000000000031,94.284728067975748900
0.223000000000000032,91.986633824911024249
0.224000000000000032,89.732963627258570227
0.225000000000000033,87.523057612263784222
0.226000000000000034,85.355328555040870242
0.227000000000000035,83.227473350483435865
0.228000000000000036,81.136681726621048938
0.229000000000000037,79.079831655800973067
0.230000000000000038,77.053664392876640932
0.231000000000000039,75.054934922636846295
0.232000000000000040,73.080535872259218877
0.233000000000000040,71.127594692702388102
0.234000000000000041,69.193545201534547573
0.235000000000000042,67.276175478295925814
0.236000000000000043,65.373654680102887937
0.237000000000000044,63.484541663064042893
0.238000000000000045,61.607778410882737319
0.239000000000000046,59.742671235175407674
0.240000000000000047,57.888862564500946917
0.241000000000000048,56.046295915761689344
0.242000000000000048,54.215176370818802809
0.243000000000000049,52.395928585353964024
0.244000000000000050,50.589154053614564077
0.245000000000000051,48.795589054729177292
0.246000000000000052,47.016064423215823354
0.247000000000000053,45.251468024527476075
0.248000000000000054,43.502710580019588349
0.249000000000000055,41.770695276687014541
0.250000000000000056,40.056291416050910925
0.251000000000000056,38.360312203217503679
0.252000000000000057,36.683496650128361694
0.253000000000000058,35.026495464571013372
0.254000000000000059,33.389860716464511370
0.255000000000000060,31.774039012938523285
0.256000000000000061,30.179367871371916010
0.257000000000000062,28.606074952463380612
0.258000000000000063,27.054279801274368822
0.259000000000000064,25.523997740857414129
0.260000000000000064,24.015145568569415957
0.261000000000000065,22.527548717671301404
0.262000000000000066,21.060949564715947702
0.263000000000000067,19.615016585120734760
0.264000000000000068,18.189354083976674303
0.265000000000000069,16.783512255516512823
0.266000000000000070,15.396997351875645776
0.267000000000000071,14.029281769095813814
0.268000000000000071,12.679813885162749543
0.269000000000000072,11.348027510763394332
0.270000000000000073,10.033350838041748432
0.271000000000000074,8.735214795663358345
0.272000000000000075,7.453060739782024768
0.273000000000000076,6.186347429930198594
0.274000000000000077,4.934557256368369060
0.275000000000000078,3.697201701021931797
0.276000000000000079,2.473826027838967434
0.277000000000000079,1.264013210273720711
0.278000000000000080,0.067387113732586809
0.279000000000000081,-1.116385040699579001
0.280000000000000082,-2.287590897980020799
0.281000000000000083,-3.446471837462864674
0.282000000000000084,-4.593222444818499284
0.283000000000000085,-5.727990541353171317
0.284000000000000086,-6.850877722508552203
0.285000000000000087,-7.961940356176489431
0.286000000000000087,-9.061190991125162242
0.287000000000000088,-10.148600126182053316
0.288000000000000089,-11.224098291756297030
0.289000000000000090,-12.287578396714707196
0.290000000000000091,-13.338898295458093912
0.291000000000000092,-14.377883532206070072
0.292000000000000093,-15.404330221907390097
0.293000000000000094,-16.418008029790961189
0.294000000000000095,-17.418663214297616548
0.295000000000000095,-18.406021700938488550
0.296000000000000096,-19.379792157460837387
0.297000000000000097,-20.339669043536339643
0.298000000000000098,-21.285335610980400389
0.299000000000000099,-22.216466833242108692
0.300000000000000100,-23.132732245545206240
0.301000000000000101,-24.033798679598866954
0.302000000000000102,-24.919332879209886045
0.303000000000000103,-25.789003985416162124
0.304000000000000103,-26.642485881902693734
0.305000000000000104,-27.479459393464633621
0.306000000000000105,-28.299614332133955941
0.307000000000000106,-29.102651387291643914
0.308000000000000107,-29.888283857645735253
0.309000000000000108,-30.656239224367851648
0.310000000000000109,-31.406260565954813302
0.311000000000000110,-32.138107816514633441
0.312000000000000111,-32.851558870184895511
0.313000000000000111,-33.546410535267739306
0.314000000000000112,-34.222479342429593885
0.315000000000000113,-34.879602211962961178
0.316000000000000114,-35.517636985653666670
0.317000000000000115,-36.136462829245324713
0.318000000000000116,-36.735980511851963115
0.319000000000000117,-37.316112568944831196
0.320000000000000118,-37.876803355740015888
0.321000000000000119,-38.418018997944699322
0.322000000000000119,-38.939747246888025245
0.323000000000000120,-39.441997246074947725
0.324000000000000121,-39.924799216165297366
0.325000000000000122,-40.388204065297252043
0.326000000000000123,-40.832282931554530592
0.327000000000000124,-41.257126664222326440
0.328000000000000125,-41.662845250294168409
0.329000000000000126,-42.049567192483124245
0.330000000000000127,-42.417438844764205896
0.331000000000000127,-42.766623711228120897
0.332000000000000128,-43.097301713770448828
0.333000000000000129,-43.409668433870649551
0.334000000000000130,-43.703934333441452509
0.335000000000000131,-43.980323959448995197
0.336000000000000132,-44.239075136721780268
0.337000000000000133,-44.480438153085330555
0.338000000000000134,-44.704674940679161921
0.339000000000000135,-44.912058257034402686
0.340000000000000135,-45.102870869220424765
0.341000000000000136,-45.277404744100707035
0.342000000000000137,-45.435960247480423391
0.343000000000000138,-45.578845354675777912
0.344000000000000139,-45.706374874793894492
0.345000000000000140,-45.818869690777603410
0.346000000000000141,-45.916656017046484806
0.347000000000000142,-46.000064676351328785
0.348000000000000143,-46.069430397256759591
0.349000000000000143,-46.125091133472921001
0.350000000000000144,-46.167387406075647505
0.351000000000000145,-46.196661669481926538
0.352000000000000146,-46.213257701886881534
0.353000000000000147,-46.217520020716875706
0.354000000000000148,-46.209793323512755592
0.355000000000000149,-46.190421954526087234
0.356000000000000150,-46.159749397190395825
0.357000000000000151,-46.118117792516883924
0.358000000000000151,-46.065867483362026746
0.359000000000000152,-46.003336584419812993
0.360000000000000153,-45.930860577706610570
0.361000000000000154,-45.848771933228036346
0.362000000000000155,-45.757399754448485396
0.363000000000000156,-45.657069448120765287
0.364000000000000157,-45.548102417977780476
0.365000000000000158,-45.430815781740093939
0.366000000000000159,-45.305522110849082651
0.367000000000000159,-45.172529192299691658
0.368000000000000160,-45.032139811915065764
0.369000000000000161,-44.884651558378827474
0.370000000000000162,-44.730356647319446495
0.371000000000000163,-44.569541764724661448
0.372000000000000164,-44.402487928950158391
0.373000000000000165,-44.229470370578511051
0.374000000000000166,-44.050758429378653602
0.375000000000000167,-43.866615467613385704
0.376000000000000167,-43.677298798944278246
0.377000000000000168,-43.483059632185522503
0.378000000000000169,-43.284143029164901861
0.379000000000000170,-43.080787875958165500
0.380000000000000171,-42.873226866772448318
0.381000000000000172,-42.661686499767341729
0.382000000000000173,-42.446387084114249433
0.383000000000000174,-42.227542757611104207
0.384000000000000175,-42.005361514183853444
0.385000000000000175,-41.780045240624374969
0.386000000000000176,-41.551789761932070633
0.387000000000000177,-41.320784894644447149
0.388000000000000178,-41.087214507562613619
0.389000000000000179,-40.851256589295758204
0.390000000000000180,-40.613083322070252734
0.391000000000000181,-40.372861161268296826
0.392000000000000182,-40.130750920182471475
0.393000000000000183,-39.886907859492346518
0.394000000000000183,-39.641481780990737604
0.395000000000000184,-39.394617125107153299
0.396000000000000185,-39.146453071796528889
0.397000000000000186,-38.897123644381814245
0.398000000000000187,-38.646757815958508786
0.399000000000000188,-38.395479617989089149
0.400000000000000189,-38.143408250734687215
0.401000000000000190,-37.890658195189828916
0.402000000000000191,-37.637339326205150769
0.403000000000000191,-37.383557026500433551
0.404000000000000192,-37.129412301288255094
0.405000000000000193,-36.875001893245546114
0.406000000000000194,-36.620418397586590231
0.407000000000000195,-36.365750377007877603
0.408000000000000196,-36.111082476289560361
0.409000000000000197,-35.856495536354245246
0.410000000000000198,-35.602066707598012840
0.411000000000000199,-35.347869562322003389
0.412000000000000199,-35.093974206106878455
0.413000000000000200,-34.840447387985008731
0.414000000000000201,-34.587352609277601800
0.415000000000000202,-34.334750230975309648
0.416000000000000203,-34.082697579552942102
0.417000000000000204,-33.831249051118653881
0.418000000000000205,-33.580456213808773214
0.419000000000000206,-33.330367908349053607
0.420000000000000207,-33.081030346711841617
0.421000000000000207,-32.832487208808352364
0.422000000000000208,-32.584779737162222091
0.423000000000000209,-32.337946829519395919
0.424000000000000210,-32.092025129356429147
0.425000000000000211,-31.847049114255618463
0.426000000000000212,-31.603051182122992913
0.427000000000000213,-31.360061735230267743
0.428000000000000214,-31.118109262068383458
0.429000000000000214,-30.877220417004917152
0.430000000000000215,-30.637420097743195413
0.431000000000000216,-30.398731520585506871
0.432000000000000217,-30.161176293506635204
0.433000000000000218,-29.924774487048637184
0.434000000000000219,-29.689544703050877672
0.435000000000000220,-29.455504141233312509
0.436000000000000221,-29.222668663653525556
0.437000000000000222,-28.991052857061294645
0.438000000000000222,-28.760670093177044038
0.439000000000000223,-28.531532586922651262
0.440000000000000224,-28.303651452635570251
0.441000000000000225,-28.077036758298628882
0.442000000000000226,-27.851697577820448970
0.443000000000000227,-27.627642041401667683
0.444000000000000228,-27.404877384024967313
0.445000000000000229,-27.183409992106817299
0.446000000000000230,-26.963245448350356526
0.447000000000000230,-26.744388574840030515
0.448000000000000231,-26.526843474418591029
0.449000000000000232,-26.310613570387932469
0.450000000000000233,-26.095701644576088540
0.451000000000000234,-25.882109873812119361
0.452000000000000235,-25.669839864851905276
0.453000000000000236,-25.458892687796861765
0.454000000000000237,-25.249268908048644988
0.455000000000000238,-25.040968616841905003
0.456000000000000238,-24.833991460397800921
0.457000000000000239,-24.628336667739922916
0.458000000000000240,-24.424003077214980095
0.459000000000000241,-24.220989161758808450
0.460000000000000242,-24.019293052949649336
0.461000000000000243,-23.818912563888211764
0.462000000000000244,-23.619845210945420888
0.463000000000000245,-23.422088234416047925
0.464000000000000246,-23.225638618118168210
0.465000000000000246,-23.030493107975718914
0.466000000000000247,-22.836648229621815176
0.467000000000000248,-22.644100305059502887
0.468000000000000249,-22.452845468415979724
0.469000000000000250,-22.262879680825310658
0.470000000000000251,-22.074198744474223588
0.471000000000000252,-21.886798315844394835
0.472000000000000253,-21.700673918184460121
0.473000000000000254,-21.515820953243220970
0.474000000000000254,-21.332234712295814916
0.475000000000000255,-21.149910386492745573
0.476000000000000256,-20.968843076561721972
0.477000000000000257,-20.789027801890810565
0.478000000000000258,-20.610459509020859770
0.479000000000000259,-20.433133079574382407
0.480000000000000260,-20.257043337647083092
0.481000000000000261,-20.082185056687439584
0.482000000000000262,-19.908552965889199982
0.483000000000000262,-19.736141756120506585
0.484000000000000263,-19.564946085412664445
0.485000000000000264,-19.394960584031132100
0.486000000000000265,-19.226179859149972629
0.487000000000000266,-19.058598499150701144
0.488000000000000267,-18.892211077565537636
0.489000000000000268,-18.727012156684452293
0.490000000000000269,-18.562996290844388625
0.491000000000000270,-18.400158029418939520
0.492000000000000270,-18.238491919525142038
0.493000000000000271,-18.077992508464554078
0.494000000000000272,-17.918654345914028170
0.495000000000000273,-17.760471985881505219
0.496000000000000274,-17.603439988441742514
0.497000000000000275,-17.447552921265515380
0.498000000000000276,-17.292805360956073457
0.499000000000000277,-17.139191894205609401
0.500000000000000222,-16.986707118783705539
0.501000000000000334,-16.835345644369983376
0.502000000000000224,-16.685102093241777510
0.503000000000000336,-16.535971100827502767
0.504000000000000226,-16.387947316136266096
0.505000000000000338,-16.241025402072740036
0.506000000000000227,-16.095200035647405201
0.507000000000000339,-15.950465908089929812
0.508000000000000229,-15.806817724874971276
0.509000000000000341,-15.664250205667366700
0.510000000000000231,-15.522758084195249495
0.511000000000000343,-15.382336108056978929
0.512000000000000233,-15.242979038469812281
0.513000000000000345,-15.104681649965527868
0.514000000000000234,-14.967438730040129258
0.515000000000000346,-14.831245078761991607
0.516000000000000236,-14.696095508345146996
0.517000000000000348,-14.561984842691435560
0.518000000000000238,-14.428907916907309783
0.519000000000000350,-14.296859576798695457
0.520000000000000240,-14.165834678348977249
0.521000000000000352,-14.035828087183242374
0.522000000000000242,-13.906834678022883978
0.523000000000000353,-13.778849334133450810
0.524000000000000243,-13.651866946769422029
0.525000000000000355,-13.525882414618200400
0.526000000000000245,-13.400890643246706091
0.527000000000000357,-13.276886544552164438
0.528000000000000247,-13.153865036220356188
0.529000000000000359,-13.031821041192547028
0.530000000000000249,-12.910749487143695191
0.531000000000000361,-12.790645305973111334
0.532000000000000250,-12.671503433309776909
0.533000000000000362,-12.553318808033065324
0.534000000000000252,-12.436086371810823437
0.535000000000000364,-12.319801068655390708
0.536000000000000254,-12.204457844499184915
0.537000000000000366,-12.090051646789930828
0.538000000000000256,-11.976577424107414771
0.539000000000000368,-11.864030125801175330
0.540000000000000258,-11.752404701651007812
0.541000000000000369,-11.641696101549470654
0.542000000000000259,-11.531899275207978306
0.543000000000000371,-11.423009171885757596
0.544000000000000261,-11.315020740142610833
0.545000000000000373,-11.207928927615146364
0.546000000000000263,-11.101728680817018358
0.547000000000000375,-10.996414944962394244
0.548000000000000265,-10.891982663813752907
0.549000000000000377,-10.788426779552576562
0.550000000000000266,-10.685742232673941743
0.551000000000000378,-10.583923961903883182
0.552000000000000268,-10.482966904139917830
0.553000000000000380,-10.382865994413890576
0.554000000000000270,-10.283616165877354831
0.555000000000000382,-10.185212349808413279
0.556000000000000272,-10.087649475640420249
0.557000000000000384,-9.990922471011177919
0.558000000000000274,-9.895026261833162806
0.559000000000000385,-9.799955772383230013
0.560000000000000275,-9.705705925412301482
0.561000000000000387,-9.612271642273640282
0.562000000000000277,-9.519647843069742876
0.563000000000000389,-9.427829446816916814
0.564000000000000279,-9.336811371627296907
0.565000000000000391,-9.246588534907331791
0.566000000000000281,-9.157155853572481519
0.567000000000000393,-9.068508244277214914
0.568000000000000282,-8.980640623660130828
0.569000000000000394,-8.893547908602908336
0.570000000000000284,-8.807225016503299031
0.571000000000000396,-8.721666865560727899
0.572000000000000286,-8.636868375074637783
0.573000000000000398,-8.552824465754207850
0.574000000000000288,-8.469530060039549113
0.575000000000000400,-8.386980082433224126
0.576000000000000290,-8.305169459841806656
0.577000000000000401,-8.224093121926637551
0.578000000000000291,-8.143746001463506801
0.579000000000000403,-8.064123034710204863
0.580000000000000293,-7.985219161781968111
0.581000000000000405,-7.907029327033511024
0.582000000000000295,-7.829548479447907994
0.583000000000000407,-7.752771573030966756
0.584000000000000297,-7.676693567211184011
0.585000000000000409,-7.601309427244315131
0.586000000000000298,-7.526614124622399871
0.587000000000000410,-7.452602637486284820
0.588000000000000300,-7.379269951041718123
0.589000000000000412,-7.306611057977848489
0.590000000000000302,-7.234620958888308806
0.591000000000000414,-7.163294662693955317
0.592000000000000304,-7.092627187067061634
0.593000000000000416,-7.022613558856301452
0.594000000000000306,-6.953248814512436482
0.595000000000000417,-6.884528000513857826
0.596000000000000307,-6.816446173791987917
0.597000000000000419,-6.748998402155822696
0.598000000000000309,-6.682179764715534986
0.599000000000000421,-6.615985352304415201
0.600000000000000311,-6.550410267899247962
0.601000000000000423,-6.485449627038266662
0.602000000000000313,-6.421098558236927545
0.603000000000000425,-6.357352203400518320
0.604000000000000314,-6.294205718234113789
0.605000000000000426,-6.231654272648687432
0.606000000000000316,-6.169693051163936737
0.607000000000000428,-6.108317253306863037
0.608000000000000318,-6.047522094006446025
0.609000000000000430,-5.987302803983586941
0.610000000000000320,-5.927654630136690805
0.611000000000000432,-5.868572835922066133
0.612000000000000322,-5.810052701729476965
0.613000000000000433,-5.752089525252214841
0.614000000000000323,-5.694678621851802625
0.615000000000000435,-5.637815324916964244
0.616000000000000325,-5.581494986216827492
0.617000000000000437,-5.525712976248060571
0.618000000000000327,-5.470464684575993886
0.619000000000000439,-5.415745520169303440
0.620000000000000329,-5.361550911728469870
0.621000000000000441,-5.307876308007594801
0.622000000000000330,-5.254717178129672206
0.623000000000000442,-5.202069011895039452
0.624000000000000332,-5.149927320083119930
0.625000000000000444,-5.098287634747157071
0.626000000000000334,-5.047145509502056981
0.627000000000000446,-4.996496519805092795
0.628000000000000336,-4.946336263229594188
0.629000000000000448,-4.896660359731366263
0.630000000000000338,-4.847464451908052752
0.631000000000000449,-4.798744205251077588
0.632000000000000339,-4.750495308390457971
0.633000000000000451,-4.702713473332209126
0.634000000000000341,-4.655394435688519295
0.635000000000000453,-4.608533954900509322
0.636000000000000343,-4.562127814453711849
0.637000000000000455,-4.516171822086162635
0.638000000000000345,-4.470661809989238122
0.639000000000000457,-4.425593635001009218
0.640000000000000346,-4.380963178792510959
0.641000000000000458,-4.336766348046472430
0.642000000000000348,-4.292999074629022083
0.643000000000000460,-4.249657315753919029
0.644000000000000350,-4.206737054139818355
0.645000000000000462,-4.164234298160161885
0.646000000000000352,-4.122145081986134052
0.647000000000000464,-4.080465465722315166
0.648000000000000353,-4.039191535535610278
0.649000000000000465,-3.998319403776865677
0.650000000000000355,-3.957845209095874672
0.651000000000000467,-3.917765116549277504
0.652000000000000357,-3.878075317701861646
0.653000000000000469,-3.838772030720961403
0.654000000000000359,-3.799851500464362708
0.655000000000000471,-3.761309998561437773
0.656000000000000361,-3.723143823487947035
