# AuFCC110UCD_BSAI18
# h[nm],U(h)[kJ/mol]
0.149999999999999994,123.554584115916327391
0.150999999999999995,118.747148099322359371
0.151999999999999996,115.406150921114360131
0.152999999999999997,112.490514715355061526
0.153999999999999998,109.577260460936486197
0.154999999999999999,106.553406071329987981
0.156000000000000000,103.441337596321133674
0.157000000000000001,100.305901566232961386
0.158000000000000002,97.209860896741361103
0.159000000000000002,94.196641948973606873
0.160000000000000003,91.287401299139901312
0.161000000000000004,88.484700068624817959
0.162000000000000005,85.778422259366394087
0.163000000000000006,83.151652687137612929
0.164000000000000007,80.585478083143087247
0.165000000000000008,78.062388544969209647
0.166000000000000009,75.568334557656072548
0.167000000000000010,73.093668655385670263
0.168000000000000010,70.633255847495163948
0.169000000000000011,68.186027522861166972
0.170000000000000012,65.754213281082087406
0.171000000000000013,63.342433997070727969
0.172000000000000014,60.956788595118553076
0.173000000000000015,58.604022141927416101
0.174000000000000016,56.290826249991049224
0.175000000000000017,54.023294746650130094
0.176000000000000018,51.806537400898591272
0.177000000000000018,49.644441023035277283
0.178000000000000019,47.539559136081933843
0.179000000000000020,45.493107388649619338
0.180000000000000021,43.505040810719386002
0.181000000000000022,41.574189966939890439
0.182000000000000023,39.698435287326653054
0.183000000000000024,37.874901779416497050
0.184000000000000025,36.100159528372714135
0.185000000000000026,34.370418578091481265
0.186000000000000026,32.681709763737060825
0.187000000000000027,31.030045718788944242
0.188000000000000028,29.411558549925352679
0.189000000000000029,27.822612544634267806
0.190000000000000030,26.259891761337541993
0.191000000000000031,24.720463480081711793
0.192000000000000032,23.201819303859725352
0.193000000000000033,21.701896241423991540
0.194000000000000034,20.219080417786642556
0.195000000000000034,18.752196192255670582
0.196000000000000035,17.300483455984085879
0.197000000000000036,15.863565767214108604
0.198000000000000037,14.441411793348606807
0.199000000000000038,13.034292290408368231
0.200000000000000039,11.642734583371431967
0.201000000000000040,10.267476232069641995
0.202000000000000041,8.909419289652786844
0.203000000000000042,7.569586293723832959
0.204000000000000042,6.249078880897661392
0.205000000000000043,4.949039688225094658
0.206000000000000044,3.670618002250464862
0.207000000000000045,2.414939439558578815
0.208000000000000046,1.183079791488747645
0.209000000000000047,-0.023956960618902734
0.210000000000000048,-1.205256556201011353
0.211000000000000049,-2.360008470230445798
0.212000000000000050,-3.487516271917061150
0.213000000000000050,-4.587204612125772130
0.214000000000000051,-5.658623154166635416
0.215000000000000052,-6.701447779721337206
0.216000000000000053,-7.715479408079042756
0.217000000000000054,-8.700640764475824795
0.218000000000000055,-9.656971423911832275
0.219000000000000056,-10.584621441918839579
0.220000000000000057,-11.483843864755518993
0.221000000000000058,-12.354986389603865859
0.222000000000000058,-13.198482421569925904
0.223000000000000059,-14.014841749503114343
0.224000000000000060,-14.804641037567748185
0.225000000000000061,-15.568514304702375739
0.226000000000000062,-16.307143540048087971
0.227000000000000063,-17.021249579471245283
0.228000000000000064,-17.711583346708383857
0.229000000000000065,-18.378917542608302682
0.230000000000000066,-19.024038847548162323
0.231000000000000066,-19.647740685423961793
0.232000000000000067,-20.250816582668722532
0.233000000000000068,-20.834054142516304609
0.234000000000000069,-21.398229643150529000
0.235000000000000070,-21.944103258385450061
0.236000000000000071,-22.472414891021912808
0.237000000000000072,-22.983880601919512543
0.238000000000000073,-23.479189611998634746
0.239000000000000073,-23.959001849735063416
0.240000000000000074,-24.423946013118165155
0.241000000000000075,-24.874618112396639447
0.242000000000000076,-25.311580458129533611
0.243000000000000077,-25.735361057989099010
0.244000000000000078,-26.146453385328449315
0.245000000000000079,-26.545316482639009337
0.246000000000000080,-26.932375363595564721
0.247000000000000081,-27.308021678343969540
0.248000000000000081,-27.672614607954404420
0.249000000000000082,-28.026481955479852104
0.250000000000000111,-28.369921402768444096
0.251000000000000112,-28.703201904025394953
0.252000000000000113,-29.026565189067063955
0.253000000000000114,-29.340227351208426398
0.254000000000000115,-29.644380496753534260
0.255000000000000115,-29.939194435077023826
0.256000000000000116,-30.224818390278318958
0.257000000000000117,-30.501382717332990779
0.258000000000000118,-30.769000607544882087
0.259000000000000119,-31.027769769903812858
0.260000000000000120,-31.277774076668485748
0.261000000000000121,-31.519085163113135906
0.262000000000000122,-31.751763972896714705
0.263000000000000123,-31.975862241930315122
0.264000000000000123,-32.191423914932173034
0.265000000000000124,-32.398486490068137300
0.266000000000000125,-32.597082288182569698
0.267000000000000126,-32.787239644129435590
0.268000000000000127,-32.968984018623416432
0.269000000000000128,-33.142339029844038123
0.270000000000000129,-33.307327404751809752
0.271000000000000130,-33.463971850715822143
0.272000000000000131,-33.612295848611758231
0.273000000000000131,-33.752324369035115126
0.274000000000000132,-33.884084513688534912
0.275000000000000133,-34.007606084353298570
0.276000000000000134,-34.122922082144462763
0.277000000000000135,-34.230069139984195203
0.278000000000000136,-34.329087891413905709
0.279000000000000137,-34.420023279004190897
0.280000000000000138,-34.502924805720660117
0.281000000000000139,-34.577846732665335594
0.282000000000000139,-34.644848226641762778
0.283000000000000140,-34.703993460992066389
0.284000000000000141,-34.755351673128188850
0.285000000000000142,-34.798997182131543582
0.286000000000000143,-34.835009369728204831
0.287000000000000144,-34.863472627863231423
0.288000000000000145,-34.884476276000704331
0.289000000000000146,-34.898114451166932781
0.290000000000000147,-34.904485973637520146
0.291000000000000147,-34.903694191042930584
0.292000000000000148,-34.895846803538077552
0.293000000000000149,-34.881055672546096957
0.294000000000000150,-34.859436615450775321
0.295000000000000151,-34.831109188474115967
0.296000000000000152,-34.796196459837524628
0.297000000000000153,-34.754824775168707163
0.298000000000000154,-34.707123516981098987
0.299000000000000155,-34.653224859920229051
0.300000000000000155,-34.593263523342116628
0.301000000000000156,-34.527376522662976299
0.302000000000000157,-34.455702920797897093
0.303000000000000158,-34.378383580889234850
0.304000000000000159,-34.295560921412501898
0.305000000000000160,-34.207378674640345650
0.306000000000000161,-34.113981649342370872
0.307000000000000162,-34.015515498501635250
0.308000000000000163,-33.912126492735772842
0.309000000000000163,-33.803961300024262471
0.310000000000000164,-33.691166772261460949
0.311000000000000165,-33.573889739077813488
0.312000000000000166,-33.452276809300755644
0.313000000000000167,-33.326474180359348054
0.314000000000000168,-33.196627455874939017
0.315000000000000169,-33.062881471622603158
0.316000000000000170,-32.925380129995758693
0.317000000000000171,-32.784266243056819690
0.318000000000000171,-32.639681384212984483
0.319000000000000172,-32.491765748515611278
0.320000000000000173,-32.340658021544520295
0.321000000000000174,-32.186495256805834231
0.322000000000000175,-32.029412761541664167
0.323000000000000176,-31.869543990823832047
0.324000000000000177,-31.707020449779939497
0.325000000000000178,-31.541971603779085598
0.326000000000000179,-31.374524796387277092
0.327000000000000179,-31.204805174885855479
0.328000000000000180,-31.032935623133575120
0.329000000000000181,-30.859036701542187586
0.330000000000000182,-30.683226593924921133
0.331000000000000183,-30.505621060971510161
0.332000000000000184,-30.326333400096348925
0.333000000000000185,-30.145474411403409221
0.334000000000000186,-29.963152369508105011
0.335000000000000187,-29.779473000955299256
0.336000000000000187,-29.594539466972531017
0.337000000000000188,-29.408452351298002725
0.338000000000000189,-29.221309652825407710
0.339000000000000190,-29.033206782809678259
0.340000000000000191,-28.844236566381574960
0.341000000000000192,-28.654489248123418577
0.342000000000000193,-28.464052501462312250
0.343000000000000194,-28.273011441643397745
0.344000000000000195,-28.081448642050510500
0.345000000000000195,-27.889444153648462077
0.346000000000000196,-27.697075527327122302
0.347000000000000197,-27.504417838934237750
0.348000000000000198,-27.311543716791305769
0.349000000000000199,-27.118523371492948115
0.350000000000000200,-26.925424627798584254
0.351000000000000201,-26.732312958431368344
0.352000000000000202,-26.539251519607653051
0.353000000000000203,-26.346301188126791004
0.354000000000000203,-26.153520599858957496
0.355000000000000204,-25.960966189475577437
0.356000000000000205,-25.768692231274457072
0.357000000000000206,-25.576750880958698531
0.358000000000000207,-25.385192218235225425
0.359000000000000208,-25.194064290106275905
0.360000000000000209,-25.003413154733276968
0.361000000000000210,-24.813282925759654773
0.362000000000000210,-24.623715816985043858
0.363000000000000211,-24.434752187290296632
0.364000000000000212,-24.246430585718051987
0.365000000000000213,-24.058787796620094923
0.366000000000000214,-23.871858884788153432
0.367000000000000215,-23.685677240490328188
0.368000000000000216,-23.500274624340910634
0.369000000000000217,-23.315681211936048811
0.370000000000000218,-23.131925638193145289
0.371000000000000218,-22.949035041336198759
0.372000000000000219,-22.767035106474025952
0.373000000000000220,-22.585950108722776974
0.374000000000000221,-22.405802955828018952
0.375000000000000222,-22.226615230245837296
0.376000000000000223,-22.048407230646166255
0.377000000000000224,-21.871198012805059818
0.378000000000000225,-21.695005429856248469
0.379000000000000226,-21.519846171875187224
0.380000000000000226,-21.345735804772431266
0.381000000000000227,-21.172688808475449207
0.382000000000000228,-21.000718614381376881
0.383000000000000229,-20.829837642065335501
0.384000000000000230,-20.660057335231407194
0.385000000000000231,-20.491388196896203056
0.386000000000000232,-20.323839823796308934
0.387000000000000233,-20.157420940013523136
0.388000000000000234,-19.992139429813448714
0.389000000000000234,-19.828002369694864626
0.390000000000000235,-19.665016059648763758
0.391000000000000236,-19.503186053627789676
0.392000000000000237,-19.342517189227848462
0.393000000000000238,-19.183013616585405714
0.394000000000000239,-19.024678826494714201
0.395000000000000240,-18.867515677750837710
0.396000000000000241,-18.711526423724961887
0.397000000000000242,-18.556712738179591327
0.398000000000000242,-18.403075740332194954
0.399000000000000243,-18.250616019176383986
0.400000000000000244,-18.099333657070527437
0.401000000000000245,-17.949228252604598310
0.402000000000000246,-17.800298942756086262
0.403000000000000247,-17.652544424346750418
0.404000000000000248,-17.505962974812259603
0.405000000000000249,-17.360552472297207771
0.406000000000000250,-17.216310415088237562
0.407000000000000250,-17.073233940398420572
0.408000000000000251,-16.931319842516085572
0.409000000000000252,-16.790564590331833017
0.410000000000000253,-16.650964344257143779
0.411000000000000254,-16.512514972548594017
0.412000000000000255,-16.375212067051364784
0.413000000000000256,-16.239050958376132883
0.414000000000000257,-16.104026730523134603
0.415000000000000258,-15.970134234967414244
0.416000000000000258,-15.837368104219134324
0.417000000000000259,-15.705722764872756869
0.418000000000000260,-15.575192450158919399
0.419000000000000261,-15.445771212012482820
0.420000000000000262,-15.317452932670542864
0.421000000000000263,-15.190231335813555447
0.422000000000000264,-15.064099997262985653
0.423000000000000265,-14.939052355248326975
0.424000000000000266,-14.815081720256753073
0.425000000000000266,-14.692181284477726422
0.426000000000000267,-14.570344130855266584
0.427000000000000268,-14.449563241760134957
0.428000000000000269,-14.329831507294022330
0.429000000000000270,-14.211141733237557361
0.430000000000000271,-14.093486648653746229
0.431000000000000272,-13.976858913158352493
0.432000000000000273,-13.861251123868152391
0.433000000000000274,-13.746655822038235328
0.434000000000000274,-13.633065499398753673
0.435000000000000275,-13.520472604201746236
0.436000000000000276,-13.408869546988142929
0.437000000000000277,-13.298248706084766724
0.438000000000000278,-13.188602432841184608
0.439000000000000279,-13.079923056615765375
0.440000000000000280,-12.972202889520062286
0.441000000000000281,-12.865434230930517856
0.442000000000000282,-12.759609371776287290
0.443000000000000282,-12.654720598611367777
0.444000000000000283,-12.550760197479576163
0.445000000000000284,-12.447720457580100373
0.446000000000000285,-12.345593674741403234
0.447000000000000286,-12.244372154711234302
0.448000000000000287,-12.144048216269615281
0.449000000000000288,-12.044614194172330812
0.450000000000000289,-11.946062441931353248
0.451000000000000290,-11.848385334439100802
0.452000000000000290,-11.751575270442872423
0.453000000000000291,-11.655624674875600277
0.454000000000000292,-11.560526001049026945
0.455000000000000293,-11.466271732715007658
0.456000000000000294,-11.372854386000684102
0.457000000000000295,-11.280266511222777126
0.458000000000000296,-11.188500694586396733
0.459000000000000297,-11.097549559773305816
0.460000000000000298,-11.007405769424547515
0.461000000000000298,-10.918062026522163066
0.462000000000000299,-10.829511075674517429
0.463000000000000300,-10.741745704309506593
0.464000000000000301,-10.654758743780039509
0.465000000000000302,-10.568543070385683080
0.466000000000000303,-10.483091606314445698
0.467000000000000304,-10.398397320508397712
0.468000000000000305,-10.314453229456843175
0.469000000000000306,-10.231252397920354014
0.470000000000000306,-10.148787939589222873
0.471000000000000307,-10.067053017679228333
0.472000000000000308,-9.986040845468176386
0.473000000000000309,-9.905744686775818764
0.474000000000000310,-9.826157856390235423
0.475000000000000311,-9.747273720443200062
0.476000000000000312,-9.669085696737454327
0.477000000000000313,-9.591587255027935299
0.478000000000000314,-9.514771917259794876
0.479000000000000314,-9.438633257765284057
0.480000000000000315,-9.363164903421701268
0.481000000000000316,-9.288360533772637595
0.482000000000000317,-9.214213881114407201
0.483000000000000318,-9.140718730549673765
0.484000000000000319,-9.067868920010059952
0.485000000000000320,-8.995658340249626406
0.486000000000000321,-8.924080934810735499
0.487000000000000322,-8.853130699964040673
0.488000000000000322,-8.782801684624070404
0.489000000000000323,-8.713087990241957570
0.490000000000000324,-8.643983770676614498
0.491000000000000325,-8.575483232045792548
0.492000000000000326,-8.507580632558164879
0.493000000000000327,-8.440270282327848150
0.494000000000000328,-8.373546543172299295
0.495000000000000329,-8.307403828394877010
0.496000000000000330,-8.241836602552993440
0.497000000000000330,-8.176839381212918312
0.498000000000000331,-8.112406730692134360
0.499000000000000332,-8.048533267790229928
0.500000000000000333,-7.985213659509111217
0.501000000000000334,-7.922442622763346876
0.502000000000000335,-7.860214924081463828
0.503000000000000336,-7.798525379298936855
0.504000000000000337,-7.737368853243493660
0.505000000000000338,-7.676740259413454837
0.506000000000000338,-7.616634559649739344
0.507000000000000339,-7.557046763802074629
0.508000000000000340,-7.497971929389997570
0.509000000000000341,-7.439405161259247556
0.510000000000000342,-7.381341611233901645
0.511000000000000343,-7.323776477764850412
0.512000000000000344,-7.266705005575015086
0.513000000000000345,-7.210122485301704742
0.514000000000000346,-7.154024253136576306
0.515000000000000346,-7.098405690463499340
0.516000000000000347,-7.043262223494680896
0.517000000000000348,-6.988589322905508716
0.518000000000000349,-6.934382503468166092
0.519000000000000350,-6.880637323684614337
0.520000000000000351,-6.827349385418965078
0.521000000000000352,-6.774514333529670473
0.522000000000000353,-6.722127855501665472
0.523000000000000353,-6.670185681078687701
0.524000000000000354,-6.618683581896144474
0.525000000000000355,-6.567617371114441660
0.526000000000000356,-6.516982903053228249
0.527000000000000357,-6.466776072826581512
0.528000000000000358,-6.416992815979287279
0.529000000000000359,-6.367629108124448933
0.530000000000000360,-6.318680964582464199
0.531000000000000361,-6.270144440021571342
0.532000000000000361,-6.222015628100019846
0.533000000000000362,-6.174290661110029887
0.534000000000000363,-6.126965709623585887
0.535000000000000364,-6.080036982140183177
0.536000000000000365,-6.033500724736613918
0.537000000000000366,-5.987353220718857116
0.538000000000000367,-5.941590790276103817
0.539000000000000368,-5.896209790137101336
0.540000000000000369,-5.851206613228676190
0.541000000000000369,-5.806577688336695964
0.542000000000000370,-5.762319479769369757
0.543000000000000371,-5.718428487022954698
0.544000000000000372,-5.674901244449965354
0.545000000000000373,-5.631734320929854043
0.546000000000000374,-5.588924319542183383
0.547000000000000375,-5.546467877242345246
0.548000000000000376,-5.504361664539874965
0.549000000000000377,-5.462602385179300413
0.550000000000000377,-5.421186775823540138
0.551000000000000378,-5.380111605739969605
0.552000000000000379,-5.339373676489023168
0.553000000000000380,-5.298969821615431286
0.554000000000000381,-5.258896906342017452
0.555000000000000382,-5.219151827266173882
0.556000000000000383,-5.179731512058831200
0.557000000000000384,-5.140632919166118420
0.558000000000000385,-5.101853037513524924
0.559000000000000385,-5.063388886212726092
0.560000000000000386,-5.025237514270888717
0.561000000000000387,-4.987396000302600108
0.562000000000000388,-4.949861452244309845
0.563000000000000389,-4.912631007071312617
0.564000000000000390,-4.875701830517233937
0.565000000000000391,-4.839071116796033856
0.566000000000000392,-4.802736088326486019
0.567000000000000393,-4.766693995459126754
0.568000000000000393,-4.730942116205651971
0.569000000000000394,-4.695477755970736133
0.570000000000000395,-4.660298247286299933
0.571000000000000396,-4.625400949548104101
0.572000000000000397,-4.590783248754802592
0.573000000000000398,-4.556442557249265946
0.574000000000000399,-4.522376313462311614
0.575000000000000400,-4.488581981658684938
0.576000000000000401,-4.455057051685361813
0.577000000000000401,-4.421799038722150854
0.578000000000000402,-4.388805483034481369
0.579000000000000403,-4.356073949728464179
0.580000000000000404,-4.323602028508166661
0.581000000000000405,-4.291387333435051410
0.582000000000000406,-4.259427502689594469
0.583000000000000407,-4.227720198335043200
0.584000000000000408,-4.196263106083308436
0.585000000000000409,-4.165053935062951851
0.586000000000000409,-4.134090417589264099
0.587000000000000410,-4.103370308936396427
0.588000000000000411,-4.072891387111547523
0.589000000000000412,-4.042651452631174536
0.590000000000000413,-4.012648328299190936
0.591000000000000414,-3.982879858987151245
0.592000000000000415,-3.953343911416434597
0.593000000000000416,-3.924038373942319247
0.594000000000000417,-3.894961156340003949
0.595000000000000417,-3.866110189592586011
0.596000000000000418,-3.837483425680814353
0.597000000000000419,-3.809078837374850757
0.598000000000000420,-3.780894418027769266
0.599000000000000421,-3.752928181370955407
0.600000000000000422,-3.725178161311291092
0.601000000000000423,-3.697642411730168277
0.602000000000000424,-3.670319006284249674
0.603000000000000425,-3.643206038208023578
0.604000000000000425,-3.616301620118100857
0.605000000000000426,-3.589603883819228347
0.606000000000000427,-3.563110980112075943
0.607000000000000428,-3.536821078602613078
