# AuFCC110UCD_ILE-AC
# h[nm],U(h)[kJ/mol]
0.149999999999999994,177.444099967649492555
0.150999999999999995,172.391348144670445208
0.151999999999999996,168.709565238132825016
0.152999999999999997,165.335104518766172532
0.153999999999999998,161.875198512753456725
0.154999999999999999,158.257679074983911960
0.156000000000000000,154.538817669952294409
0.157000000000000001,150.805523800787824484
0.158000000000000002,147.131688777240810850
0.159000000000000002,143.563890115553306259
0.160000000000000003,140.121633585238811293
0.161000000000000004,136.803627595814077722
0.162000000000000005,133.595500886108027316
0.163000000000000006,130.476730153395095613
0.164000000000000007,127.425903113151889556
0.165000000000000008,124.424178454991718468
0.166000000000000009,121.457162054186667888
0.167000000000000010,118.515556289069422746
0.168000000000000010,115.594955896680446017
0.169000000000000011,112.695120575967322907
0.170000000000000012,109.818987667720051604
0.171000000000000013,106.971617931538204971
0.172000000000000014,104.159204021587385114
0.173000000000000015,101.388219089148805097
0.174000000000000016,98.664742946113250355
0.175000000000000017,95.993974532386801002
0.176000000000000018,93.379920337399369146
0.177000000000000018,90.825236979778097179
0.178000000000000019,88.331200470185862628
0.179000000000000020,85.897773120283233084
0.180000000000000021,83.523740254785963089
0.181000000000000022,81.206891765145968520
0.182000000000000023,78.944227310396172470
0.183000000000000024,76.732168048310938957
0.184000000000000025,74.566761778064801547
0.185000000000000026,72.443872048046003442
0.186000000000000026,70.359344991789114943
0.187000000000000027,68.309150341881547774
0.188000000000000028,66.289495231005375331
0.189000000000000029,64.296911051005039894
0.190000000000000030,62.328314855926478799
0.191000000000000031,60.381047624693167108
0.192000000000000032,58.452892207945978953
0.193000000000000033,56.542074034236954105
0.194000000000000034,54.647247701053331070
0.195000000000000034,52.767472477281160081
0.196000000000000035,50.902179539633820582
0.197000000000000036,49.051133492813278281
0.198000000000000037,47.214390411279190118
0.199000000000000038,45.392254312629823687
0.200000000000000039,43.585233646290234333
0.201000000000000040,41.793999069190938656
0.202000000000000041,40.019343491138975821
0.203000000000000042,38.262145112112818879
0.204000000000000042,36.523333944650104854
0.205000000000000043,34.803862117766136919
0.206000000000000044,33.104678093874099432
0.207000000000000045,31.426704795371581014
0.208000000000000046,29.770821530587930681
0.209000000000000047,28.137849526912173559
0.210000000000000048,26.528540819181927191
0.211000000000000049,24.943570200811443272
0.212000000000000050,23.383529920734300589
0.213000000000000050,21.848926798276117722
0.214000000000000051,20.340181427988319740
0.215000000000000052,18.857629154970101837
0.216000000000000053,17.401522516235875315
0.217000000000000054,15.972034863476400446
0.218000000000000055,14.569264905594963011
0.219000000000000056,13.193241934407208049
0.220000000000000057,11.843931522815548618
0.221000000000000058,10.521241510779484329
0.222000000000000058,9.225028119815769756
0.223000000000000059,7.955102061093593413
0.224000000000000060,6.711234525054249112
0.225000000000000061,5.493162961637072073
0.226000000000000062,4.300596579474360581
0.227000000000000063,3.133221509748394418
0.228000000000000064,1.990705595772477299
0.229000000000000065,0.872702782794466003
0.230000000000000066,-0.221142905891880404
0.231000000000000066,-1.291193810613652682
0.232000000000000067,-2.337815490648443184
0.233000000000000068,-3.361373982401968163
0.234000000000000069,-4.362233444275476657
0.235000000000000070,-5.340754167938769115
0.236000000000000071,-6.297290932672797048
0.237000000000000072,-7.232191677337546309
0.238000000000000073,-8.145796463220770889
0.239000000000000073,-9.038436700413843283
0.240000000000000074,-9.910434610333860306
0.241000000000000075,-10.762102897456141903
0.242000000000000076,-11.593744604153471300
0.243000000000000077,-12.405653123673268112
0.244000000000000078,-13.198112347646290488
0.245000000000000079,-13.971396926050882570
0.246000000000000080,-14.725772619195121038
0.247000000000000081,-15.461496722985327068
0.248000000000000081,-16.178818550475892124
0.249000000000000082,-16.877979954415025077
0.250000000000000111,-17.559215877185273769
0.251000000000000112,-18.222754916163591332
0.252000000000000113,-18.868819894080790078
0.253000000000000114,-19.497628425424274212
0.254000000000000115,-20.109393471303327772
0.255000000000000115,-20.704323876465146270
0.256000000000000116,-21.282624883318952413
0.257000000000000117,-21.844498618888554375
0.258000000000000118,-22.390144551572110032
0.259000000000000119,-22.919759915446849874
0.260000000000000120,-23.433540100617008761
0.261000000000000121,-23.931679008769400241
0.262000000000000122,-24.414369373681545028
0.263000000000000123,-24.881803046922453149
0.264000000000000123,-25.334171249407766879
0.265000000000000124,-25.771664789819311636
0.266000000000000125,-26.194474251185262403
0.267000000000000126,-26.602790147143412725
0.268000000000000127,-26.996803049585206935
0.269000000000000128,-27.376703689505035300
0.270000000000000129,-27.742683032965754109
0.271000000000000130,-28.094932334141844876
0.272000000000000131,-28.433643167419369036
0.273000000000000131,-28.759007440523838284
0.274000000000000132,-29.071217390615231579
0.275000000000000133,-29.370465565239339156
0.276000000000000134,-29.656944789958153308
0.277000000000000135,-29.930848124402864130
0.278000000000000136,-30.192368808405205982
0.279000000000000137,-30.441700199766707158
0.280000000000000138,-30.679035705124128697
0.281000000000000139,-30.904568705266285633
0.282000000000000139,-31.118492476150926507
0.283000000000000140,-31.321000106765676918
0.284000000000000141,-31.512284414872198113
0.285000000000000142,-31.692537861570961866
0.286000000000000143,-31.861952465525043010
0.287000000000000144,-32.020719717585819808
0.288000000000000145,-32.169030496473524749
0.289000000000000146,-32.307074986078070822
0.290000000000000147,-32.435042594866075660
0.291000000000000147,-32.553121877802844608
0.292000000000000148,-32.661500461128724737
0.293000000000000149,-32.760364970263303519
0.294000000000000150,-32.849900961051787363
0.295000000000000151,-32.930292854513290024
0.296000000000000152,-33.001723875201442127
0.297000000000000153,-33.064375993243643848
0.298000000000000154,-33.118429870085563493
0.299000000000000155,-33.164064807932909673
0.300000000000000155,-33.201458702851439853
0.301000000000000156,-33.230788001460254577
0.302000000000000157,-33.252227661130262959
0.303000000000000158,-33.265951113580797482
0.304000000000000159,-33.272130231751859242
0.305000000000000160,-33.270935299815747044
0.306000000000000161,-33.262534986183162289
0.307000000000000162,-33.247096319350262661
0.308000000000000163,-33.224784666428604396
0.309000000000000163,-33.195763714196473870
0.310000000000000164,-33.160195452509157121
0.311000000000000165,-33.118240159905489861
0.312000000000000166,-33.070056391250417960
0.313000000000000167,-33.015800967255842124
0.314000000000000168,-32.955628965726063484
0.315000000000000169,-32.889693714379433231
0.316000000000000170,-32.818146785103145646
0.317000000000000171,-32.741137989504679240
0.318000000000000171,-32.658815375629714595
0.319000000000000172,-32.571325225724393704
0.320000000000000173,-32.478812054926031294
0.321000000000000174,-32.381418610775007494
0.322000000000000175,-32.279285873447520316
0.323000000000000176,-32.172553056616962408
0.324000000000000177,-32.061357608859182733
0.325000000000000178,-31.945835215524063244
0.326000000000000179,-31.826119801003933674
0.327000000000000179,-31.702343531335724691
0.328000000000000180,-31.574636817080765638
0.329000000000000181,-31.443128316433604397
0.330000000000000182,-31.307944938515817057
0.331000000000000183,-31.169211846818875244
0.332000000000000184,-31.027052462763993645
0.333000000000000185,-30.881588469353243198
0.334000000000000186,-30.732939814890990249
0.335000000000000187,-30.581224716759088267
0.336000000000000187,-30.426559665233970264
0.337000000000000188,-30.269059427337094093
0.338000000000000189,-30.108837050714679862
0.339000000000000190,-29.946003867545112342
0.340000000000000191,-29.780669498475553780
0.341000000000000192,-29.612941856592435386
0.342000000000000193,-29.442927151431852906
0.343000000000000194,-29.270729893039078462
0.344000000000000195,-29.096452896086780981
0.345000000000000195,-28.920197284064546039
0.346000000000000196,-28.742062493552090530
0.347000000000000197,-28.562146278590557102
0.348000000000000198,-28.380544715166660552
0.349000000000000199,-28.197352205824905980
0.350000000000000200,-28.012661484423752256
0.351000000000000201,-27.826563621051594311
0.352000000000000202,-27.639148027118551454
0.353000000000000203,-27.450502460639874869
0.354000000000000203,-27.260713031726687916
0.355000000000000204,-27.069864208298991315
0.356000000000000205,-26.878038822035968280
0.357000000000000206,-26.685318074577661918
0.358000000000000207,-26.491781543991248071
0.359000000000000208,-26.297507191514988278
0.360000000000000209,-26.102571368591505063
0.361000000000000210,-25.907048824201559967
0.362000000000000210,-25.711012712508477307
0.363000000000000211,-25.514534600822180721
0.364000000000000212,-25.317684477891432948
0.365000000000000213,-25.120530762531153357
0.366000000000000214,-24.923140312591190337
0.367000000000000215,-24.725578434271632489
0.368000000000000216,-24.527908891788975154
0.369000000000000217,-24.330193917396080394
0.370000000000000218,-24.132494221758385322
0.371000000000000218,-23.934869004687147509
0.372000000000000219,-23.737375966230214175
0.373000000000000220,-23.540071318119508703
0.374000000000000221,-23.343009795573486542
0.375000000000000222,-23.146244669451952802
0.376000000000000223,-22.949827758760040552
0.377000000000000224,-22.753809443496848530
0.378000000000000225,-22.558238677843846176
0.379000000000000226,-22.363163003687098751
0.380000000000000226,-22.168628564467077524
0.381000000000000227,-21.974680119348430907
0.382000000000000228,-21.781361057702284256
0.383000000000000229,-21.588713413892481441
0.384000000000000230,-21.396777882356545319
0.385000000000000231,-21.205593832972368773
0.386000000000000232,-21.015199326700123805
0.387000000000000233,-20.825631131489323877
0.388000000000000234,-20.636924738439944349
0.389000000000000234,-20.449114378206790121
0.390000000000000235,-20.262233037635166255
0.391000000000000236,-20.076312476616529068
0.392000000000000237,-19.891383245151686765
0.393000000000000238,-19.707474700609736828
0.394000000000000239,-19.524615025169943294
0.395000000000000240,-19.342831243434300603
0.396000000000000241,-19.162149240198136368
0.397000000000000242,-18.982593778365703940
0.398000000000000242,-18.804188516998568304
0.399000000000000243,-18.626956029483462629
0.400000000000000244,-18.450917821807173880
0.401000000000000245,-18.276094350925628618
0.402000000000000246,-18.102505043214620173
0.403000000000000247,-17.930168312989341217
0.404000000000000248,-17.759101581080578569
0.405000000000000249,-17.589321293455064676
0.406000000000000250,-17.420842939867785759
0.407000000000000250,-17.253681072534330809
0.408000000000000251,-17.087849324811333673
0.409000000000000252,-16.923360429873518740
0.410000000000000253,-16.760226239375803914
0.411000000000000254,-16.598457742089411937
0.412000000000000255,-16.438065082500891378
0.413000000000000256,-16.279057579363588104
0.414000000000000257,-16.121443744190923297
0.415000000000000258,-15.965231299681473587
0.416000000000000258,-15.810427198065966081
0.417000000000000259,-15.657037639366530257
0.418000000000000260,-15.505068089559141953
0.419000000000000261,-15.354523298629947803
0.420000000000000262,-15.205407318517151438
0.421000000000000263,-15.057723520929865657
0.422000000000000264,-14.911474615035945845
0.423000000000000265,-14.766662665011002886
0.424000000000000266,-14.623289107441399537
0.425000000000000266,-14.481354768573751812
0.426000000000000267,-14.340859881404483644
0.427000000000000268,-14.201804102602716640
0.428000000000000269,-14.064186529260453540
0.429000000000000270,-13.928005715464212955
0.430000000000000271,-13.793259688682397268
0.431000000000000272,-13.659945965963435910
0.432000000000000273,-13.528061569939429987
0.433000000000000274,-13.397603044631049229
0.434000000000000274,-13.268566471048931277
0.435000000000000275,-13.140947482587842288
0.436000000000000276,-13.014741280209785046
0.437000000000000277,-12.889942647412357957
0.438000000000000278,-12.766545964979457040
0.439000000000000279,-12.644545225511276243
0.440000000000000280,-12.523934047730785224
0.441000000000000281,-12.404705690564551190
0.442000000000000282,-12.286853066995611528
0.443000000000000282,-12.170368757686389927
0.444000000000000283,-12.055245024370270457
0.445000000000000284,-11.941473823010181121
0.446000000000000285,-11.829046816722925684
0.447000000000000286,-11.717955388468702438
0.448000000000000287,-11.608190653504447454
0.449000000000000288,-11.499743471601039602
0.450000000000000289,-11.392604459023566221
0.451000000000000290,-11.286764000274775555
0.452000000000000290,-11.182212259601650217
0.453000000000000291,-11.078939192265282898
0.454000000000000292,-10.976934555574594299
0.455000000000000293,-10.876187919684229044
0.456000000000000294,-10.776688678157594126
0.457000000000000295,-10.678426058295782397
0.458000000000000296,-10.581389131233390088
0.459000000000000297,-10.485566821802549953
0.460000000000000298,-10.390947918166306252
0.461000000000000298,-10.297521081222903661
0.462000000000000299,-10.205274853782555056
0.463000000000000300,-10.114197669518215861
0.464000000000000301,-10.024277861692363345
0.465000000000000302,-9.935503671661605196
0.466000000000000303,-9.847863257161057149
0.467000000000000304,-9.761344700370615968
0.468000000000000305,-9.675936015765454812
0.469000000000000306,-9.591625157752732278
0.470000000000000306,-9.508400028097218737
0.471000000000000307,-9.426248483137868561
0.472000000000000308,-9.345158340798244367
0.473000000000000309,-9.265117387392972859
0.474000000000000310,-9.186113384233149048
0.475000000000000311,-9.108134074033099381
0.476000000000000312,-9.031167187121560858
0.477000000000000313,-8.955200447459622737
0.478000000000000314,-8.880221578468589172
0.479000000000000314,-8.806218308670491268
0.480000000000000315,-8.733178377144012572
0.481000000000000316,-8.661089538798991683
0.482000000000000317,-8.589939569472166525
0.483000000000000318,-8.519716270847332851
0.484000000000000319,-8.450407475202741381
0.485000000000000320,-8.382001049988883068
0.486000000000000321,-8.314484902239504649
0.487000000000000322,-8.247846982819019956
0.488000000000000322,-8.182075290509176924
0.489000000000000323,-8.117157875938229239
0.490000000000000324,-8.053082845355413966
0.491000000000000325,-7.989838364253958325
0.492000000000000326,-7.927412660845424064
0.493000000000000327,-7.865794029388661457
0.494000000000000328,-7.804970833376147610
0.495000000000000329,-7.744931508580890522
0.496000000000000330,-7.685664565966739303
0.497000000000000330,-7.627158594465181629
0.498000000000000331,-7.569402263621485716
0.499000000000000332,-7.512384326113242139
0.500000000000000333,-7.456093620144113920
0.501000000000000334,-7.400519071715703667
0.502000000000000335,-7.345649696780474969
0.503000000000000336,-7.291474603278532030
0.504000000000000337,-7.237982993061047310
0.505000000000000338,-7.185164163703182894
0.506000000000000338,-7.133007510209277591
0.507000000000000339,-7.081502526612943882
0.508000000000000340,-7.030638807474892005
0.509000000000000341,-6.980406049281131509
0.510000000000000342,-6.930794051744120665
0.511000000000000343,-6.881792719009564685
0.512000000000000344,-6.833392060771361187
0.513000000000000345,-6.785582193297297060
0.514000000000000346,-6.738353340368009370
0.515000000000000346,-6.691695834131581755
0.516000000000000347,-6.645600115876308500
0.517000000000000348,-6.600056736724082107
0.518000000000000349,-6.555056358246519999
0.519000000000000350,-6.510589753006451375
0.520000000000000351,-6.466647805026873641
0.521000000000000352,-6.423221510189672578
0.522000000000000353,-6.380301976566344457
0.523000000000000353,-6.337880424682782454
0.524000000000000354,-6.295948187720499689
0.525000000000000355,-6.254496711656105212
0.526000000000000356,-6.213517555341264931
0.527000000000000357,-6.173002390525178740
0.528000000000000358,-6.132943001821418605
0.529000000000000359,-6.093331286621234355
0.530000000000000360,-6.054159254955116864
0.531000000000000361,-6.015419029304551302
0.532000000000000361,-5.977102844365740353
0.533000000000000362,-5.939203046767169702
0.534000000000000363,-5.901712094742672221
0.535000000000000364,-5.864622557761780541
0.536000000000000365,-5.827927116119026252
0.537000000000000366,-5.791618560483844824
0.538000000000000367,-5.755689791412619272
0.539000000000000368,-5.720133818824606919
0.540000000000000369,-5.684943761443044252
0.541000000000000369,-5.650112846203169781
0.542000000000000370,-5.615634407628462554
0.543000000000000371,-5.581501887176584908
0.544000000000000372,-5.547708832556454084
0.545000000000000373,-5.514248897017768769
0.546000000000000374,-5.481115838614299740
0.547000000000000375,-5.448303519442274201
0.548000000000000376,-5.415805904855156783
0.549000000000000377,-5.383617062655962293
0.550000000000000377,-5.351731162268323239
0.551000000000000378,-5.320142473887567114
0.552000000000000379,-5.288845367612813320
0.553000000000000380,-5.257834312561295853
0.554000000000000381,-5.227103875965883439
0.555000000000000382,-5.196648722256997921
0.556000000000000383,-5.166463612129740035
0.557000000000000384,-5.136543401597412739
0.558000000000000385,-5.106883041032234338
0.559000000000000385,-5.077477574194320553
0.560000000000000386,-5.048322137249688701
0.561000000000000387,-5.019411957778288524
0.562000000000000388,-4.990742353772841255
0.563000000000000389,-4.962308732629332475
0.564000000000000390,-4.934106590129927916
0.565000000000000391,-4.906131509419155989
0.566000000000000392,-4.878379159974008061
0.567000000000000393,-4.850845296568801146
0.568000000000000393,-4.823525758235370553
0.569000000000000394,-4.796416467219378532
0.570000000000000395,-4.769513427933360639
0.571000000000000396,-4.742812725907105786
0.572000000000000397,-4.716310526736060993
0.573000000000000398,-4.690003075028269741
0.574000000000000399,-4.663886693350477231
0.575000000000000400,-4.637957781173911442
0.576000000000000401,-4.612212813820268487
0.577000000000000401,-4.586648341408502638
0.578000000000000402,-4.561260987802744360
0.579000000000000403,-4.536047449561969813
0.580000000000000404,-4.511004494891834860
0.581000000000000405,-4.486128962599051917
0.582000000000000406,-4.461417761048819486
0.583000000000000407,-4.436867867125632081
0.584000000000000408,-4.412476325197913773
0.585000000000000409,-4.388240246086800411
0.586000000000000409,-4.364156806039459546
0.587000000000000410,-4.340223245707272248
0.588000000000000411,-4.316436869129191223
0.589000000000000412,-4.292795042720629617
0.590000000000000413,-4.269295194268091898
0.591000000000000414,-4.245934811929926056
0.592000000000000415,-4.222711443243408524
0.593000000000000416,-4.199622694138420265
0.594000000000000417,-4.176666227957952948
0.595000000000000417,-4.153839764485759645
0.596000000000000418,-4.131141078981173997
0.597000000000000419,-4.108568001221571286
0.598000000000000420,-4.086118414552407430
0.599000000000000421,-4.063790254945197411
0.600000000000000422,-4.041581510063527283
0.601000000000000423,-4.019490218337297804
0.602000000000000424,-3.997514468045301417
0.603000000000000425,-3.975652396406363032
0.604000000000000425,-3.953902188679075724
0.605000000000000426,-3.932262077270323175
0.606000000000000427,-3.910730340852743403
0.607000000000000428,-3.889305303491040977
