# AuFCC110UCD_PYRIMIDINE-AC
# h[nm],U(h)[kJ/mol]
0.149999999999999994,136.237243975207888980
0.150999999999999995,132.537580462463381537
0.151999999999999996,129.674746079084854955
0.152999999999999997,127.047487029765392208
0.153999999999999998,124.428601218863178701
0.154999999999999999,121.767579055985180503
0.156000000000000000,119.084265034089156643
0.157000000000000001,116.415850001219311594
0.158000000000000002,113.793827537078684031
0.159000000000000002,111.236786649051325071
0.160000000000000003,108.750777121269578629
0.161000000000000004,106.332632287433199281
0.162000000000000005,103.973846418978567385
0.163000000000000006,101.663900224850124232
0.164000000000000007,99.392651250666830265
0.165000000000000008,97.151779870215548840
0.166000000000000009,94.935449635119880440
0.167000000000000010,92.740393403345208867
0.168000000000000010,90.565629464403940574
0.169000000000000011,88.411977845646333662
0.170000000000000012,86.281504837758262738
0.171000000000000013,84.176983358081628239
0.172000000000000014,82.101422577026454519
0.173000000000000015,80.057693692167319455
0.174000000000000016,78.048259622430308013
0.175000000000000017,76.075003703420108536
0.176000000000000018,74.139144911392008908
0.177000000000000018,72.241223449604703433
0.178000000000000019,70.381139563080154176
0.179000000000000020,68.558229271830867901
0.180000000000000021,66.771362600839523793
0.181000000000000022,65.019052299016195207
0.182000000000000023,63.299563601059745110
0.183000000000000024,61.611018046675347648
0.184000000000000025,59.951486581161518075
0.185000000000000026,58.319069043167971245
0.186000000000000026,56.711958673947890475
0.187000000000000027,55.128491466303010782
0.188000000000000028,53.567181040254787661
0.189000000000000029,52.026740327186658419
0.190000000000000030,50.506091710182332122
0.191000000000000031,49.004367450776690873
0.192000000000000032,47.520902273546298034
0.193000000000000033,46.055219917381336359
0.194000000000000034,44.607015327946058392
0.195000000000000034,43.176133986178413693
0.196000000000000035,41.762549663795546451
0.197000000000000036,40.366341684895864717
0.198000000000000037,38.987672564879993331
0.199000000000000038,37.626766702466383663
0.200000000000000039,36.283890623033251188
0.201000000000000040,34.959335115005636396
0.202000000000000041,33.653399466852363275
0.203000000000000042,32.366377900438465076
0.204000000000000042,31.098548206005375505
0.205000000000000043,29.850162513297544109
0.206000000000000044,28.621440080293034214
0.207000000000000045,27.412561943413646048
0.208000000000000046,26.223667248718477651
0.209000000000000047,25.054851070220276910
0.210000000000000048,23.906163517031867372
0.211000000000000049,22.777609933662439801
0.212000000000000050,21.669152005750763834
0.213000000000000050,20.580709595386345256
0.214000000000000051,19.512163144671461623
0.215000000000000052,18.463356502282138649
0.216000000000000053,17.434100044641493099
0.217000000000000054,16.424173980249790361
0.218000000000000055,15.433331742202060610
0.219000000000000056,14.461303389582246481
0.220000000000000057,13.507798952973853801
0.221000000000000058,12.572511672607546984
0.222000000000000058,11.655121089562356929
0.223000000000000059,10.755295960930755683
0.224000000000000060,9.872696978950330049
0.225000000000000061,9.006979281854732733
0.226000000000000062,8.157794750679977724
0.227000000000000063,7.324794091575142829
0.228000000000000064,6.507628707418895431
0.229000000000000065,5.705952365844964902
0.230000000000000066,4.919422673250549494
0.231000000000000066,4.147702366107096417
0.232000000000000067,3.390460432026816129
0.233000000000000068,2.647373073655084674
0.234000000000000069,1.918124528655064109
0.235000000000000070,1.202407758907066082
0.236000000000000071,0.499925021638561673
0.237000000000000072,-0.189611665407212332
0.238000000000000073,-0.866480153404268649
0.239000000000000073,-1.530947875960722238
0.240000000000000074,-2.183271637099970075
0.241000000000000075,-2.823697465001168361
0.242000000000000076,-3.452460523704004025
0.243000000000000077,-4.069785075864214896
0.244000000000000078,-4.675884490482905775
0.245000000000000079,-5.270961290314515324
0.246000000000000080,-5.855207234374333325
0.247000000000000081,-6.428803431616868735
0.248000000000000081,-6.991920482433377160
0.249000000000000082,-7.544718645124385503
0.250000000000000111,-8.087348024942523139
0.251000000000000112,-8.619948783672748860
0.252000000000000113,-9.142651368030460191
0.253000000000000114,-9.655576755409935430
0.254000000000000115,-10.158836715721140109
0.255000000000000115,-10.652534088208074792
0.256000000000000116,-11.136763072259149965
0.257000000000000117,-11.611609531301624543
0.258000000000000118,-12.077151308922875472
0.259000000000000119,-12.533458556388969996
0.260000000000000120,-12.980594070738089130
0.261000000000000121,-13.418613642616893600
0.262000000000000122,-13.847566413008639330
0.263000000000000123,-14.267495237972312339
0.264000000000000123,-14.678437060479552656
0.265000000000000124,-15.080423288399639858
0.266000000000000125,-15.473480177647587652
0.267000000000000126,-15.857629219476214288
0.268000000000000127,-16.232887530863720826
0.269000000000000128,-16.599268246922157743
0.270000000000000129,-16.956780914233384294
0.271000000000000130,-17.305431884006384990
0.272000000000000131,-17.645224703943860334
0.273000000000000131,-17.976160507707600544
0.274000000000000132,-18.298238400881214005
0.275000000000000133,-18.611455842344923894
0.276000000000000134,-18.915809020000772023
0.277000000000000135,-19.211293219815704703
0.278000000000000136,-19.497903187187439755
0.279000000000000137,-19.775633479679463278
0.280000000000000138,-20.044478810218670617
0.281000000000000139,-20.304434379901881158
0.282000000000000139,-20.555496199612743879
0.283000000000000140,-20.797661399710584362
0.284000000000000141,-21.030928527114607363
0.285000000000000142,-21.255297829171606594
0.286000000000000143,-21.470771523761250421
0.287000000000000144,-21.677354055159820945
0.288000000000000145,-21.875052335251588431
0.289000000000000146,-22.063875969743264704
0.290000000000000147,-22.243837469105184113
0.291000000000000147,-22.414952444027782974
0.292000000000000148,-22.577239785247581239
0.293000000000000149,-22.730721827658754819
0.294000000000000150,-22.875424498688158081
0.295000000000000151,-23.011377450969472847
0.296000000000000152,-23.138614179408754978
0.297000000000000153,-23.257172122786236912
0.298000000000000154,-23.367092750090009190
0.299000000000000155,-23.468421631824167406
0.300000000000000155,-23.561208496577869198
0.301000000000000156,-23.645507273182751362
0.302000000000000157,-23.721376118823613410
0.303000000000000158,-23.788877433500999814
0.304000000000000159,-23.848077861275903899
0.305000000000000160,-23.899048278753515007
0.306000000000000161,-23.941863771287959395
0.307000000000000162,-23.976603597410893087
0.308000000000000163,-24.003351142004689223
0.309000000000000163,-24.022193858756441642
0.310000000000000164,-24.033223202441028832
0.311000000000000165,-24.036534551590698072
0.312000000000000166,-24.032227122115990881
0.313000000000000167,-24.020403872446458138
0.314000000000000168,-24.001171400762011388
0.315000000000000169,-23.974639834884914791
0.316000000000000170,-23.940922715400670739
0.317000000000000171,-23.900136872570691082
0.318000000000000171,-23.852402297594188951
0.319000000000000172,-23.797842008768419930
0.320000000000000173,-23.736581913086943985
0.321000000000000174,-23.668750663804772216
0.322000000000000175,-23.594479514486998539
0.323000000000000176,-23.513902170044438833
0.324000000000000177,-23.427154635245265979
0.325000000000000178,-23.334375061176366728
0.326000000000000179,-23.235703590112585459
0.327000000000000179,-23.131282199234995289
0.328000000000000180,-23.021254543621996191
0.329000000000000181,-22.905765798920317167
0.330000000000000182,-22.784962504083523527
0.331000000000000183,-22.658992404548982336
0.332000000000000184,-22.528004296204482415
0.333000000000000185,-22.392147870478016358
0.334000000000000186,-22.251573560865338663
0.335000000000000187,-22.106432391191344067
0.336000000000000187,-21.956875825883322761
0.337000000000000188,-21.803055622515206124
0.338000000000000189,-21.645123686864856438
0.339000000000000190,-21.483231930707965773
0.340000000000000191,-21.317532132554905644
0.341000000000000192,-21.148175801520334716
0.342000000000000193,-20.975314044497746835
0.343000000000000194,-20.799097436796131433
0.344000000000000195,-20.619675896378787172
0.345000000000000195,-20.437198561830463461
0.346000000000000196,-20.251813674162871592
0.347000000000000197,-20.063668462555302341
0.348000000000000198,-19.872909034112844040
0.349000000000000199,-19.679680267711514574
0.350000000000000200,-19.484125711987182683
0.351000000000000201,-19.286387487512602235
0.352000000000000202,-19.086606193195763126
0.353000000000000203,-18.884920816921411557
0.354000000000000203,-18.681468650447307311
0.355000000000000204,-18.476385208556656892
0.356000000000000205,-18.269804152459052204
0.357000000000000206,-18.061857217423263222
0.358000000000000207,-17.852674144616692331
0.359000000000000208,-17.642382617119061194
0.360000000000000209,-17.431108200070067227
0.361000000000000210,-17.218974284904234651
0.362000000000000210,-17.006102037619847067
0.363000000000000211,-16.792610351023018467
0.364000000000000212,-16.578615800882626985
0.365000000000000213,-16.364232605926808617
0.366000000000000214,-16.149572591607416427
0.367000000000000215,-15.934745157554578654
0.368000000000000216,-15.719857248639957703
0.369000000000000217,-15.505013329564061308
0.370000000000000218,-15.290315362879971062
0.371000000000000218,-15.075862790363174781
0.372000000000000219,-14.861752517635460791
0.373000000000000220,-14.648078901948267116
0.374000000000000221,-14.434933743030009978
0.375000000000000222,-14.222406276900025901
0.376000000000000223,-14.010583172551207554
0.377000000000000224,-13.799548531402447082
0.378000000000000225,-13.589383889421650764
0.379000000000000226,-13.380168221819650043
0.380000000000000226,-13.171977950215682185
0.381000000000000227,-12.964886952174765611
0.382000000000000228,-12.758966573018275525
0.383000000000000229,-12.554285639809144470
0.384000000000000230,-12.350910477413918898
0.385000000000000231,-12.148904926545132099
0.386000000000000232,-11.948330363688034694
0.387000000000000233,-11.749245722817196480
0.388000000000000234,-11.551707518809639197
0.389000000000000234,-11.355769872462822434
0.390000000000000235,-11.161484537026863606
0.391000000000000236,-10.968900926162627130
0.392000000000000237,-10.778066143238257624
0.393000000000000238,-10.589025011879297011
0.394000000000000239,-10.401820107688635630
0.395000000000000240,-10.216491791055023697
0.396000000000000241,-10.033078240970489503
0.397000000000000242,-9.851615489779042889
0.398000000000000242,-9.672137458781266517
0.399000000000000243,-9.494675994621278647
0.400000000000000244,-9.319260906384499776
0.401000000000000245,-9.145920003337344895
0.402000000000000246,-8.974679133241355800
0.403000000000000247,-8.805562221176820970
0.404000000000000248,-8.638591308813118985
0.405000000000000249,-8.473786594064938171
0.406000000000000250,-8.311166471075724260
0.407000000000000250,-8.150747570471917669
0.408000000000000251,-7.992544799833446234
0.409000000000000252,-7.836571384328349765
0.410000000000000253,-7.682838907461038147
0.411000000000000254,-7.531357351886188489
0.412000000000000255,-7.382135140241937954
0.413000000000000256,-7.235179175958302622
0.414000000000000257,-7.090494883998421649
0.415000000000000258,-6.948086251492537890
0.416000000000000258,-6.807955868226078344
0.417000000000000259,-6.670104966945483049
0.418000000000000260,-6.534533463446969392
0.419000000000000261,-6.401239996415246658
0.420000000000000262,-6.270221966981153194
0.421000000000000263,-6.141475577968615873
0.422000000000000264,-6.014995872803175381
0.423000000000000265,-5.890776774055811238
0.424000000000000266,-5.768811121597705593
0.425000000000000266,-5.649090710342581367
0.426000000000000267,-5.531606327555307345
0.427000000000000268,-5.416347789706557947
0.428000000000000269,-5.303303978854858158
0.429000000000000270,-5.192462878538778526
0.430000000000000271,-5.083811609163156220
0.431000000000000272,-4.977336462864795585
0.432000000000000273,-4.873022937844092795
0.433000000000000274,-4.770855772150385476
0.434000000000000274,-4.670818976909877129
0.435000000000000275,-4.572895868986214474
0.436000000000000276,-4.477069103064821753
0.437000000000000277,-4.383320703153019693
0.438000000000000278,-4.291632093489193167
0.439000000000000279,-4.201984128855037248
0.440000000000000280,-4.114357124285850098
0.441000000000000281,-4.028730884174768434
0.442000000000000282,-3.945084730767793424
0.443000000000000282,-3.863397532046860761
0.444000000000000283,-3.783647728999612436
0.445000000000000284,-3.705813362274615663
0.446000000000000285,-3.629872098221831322
0.447000000000000286,-3.555801254318920801
0.448000000000000287,-3.483577823984113309
0.449000000000000288,-3.413178500777587665
0.450000000000000289,-3.344579701993336762
0.451000000000000290,-3.277757591644404389
0.452000000000000290,-3.212688102844732718
0.453000000000000291,-3.149346959591320605
0.454000000000000292,-3.087709697950987930
0.455000000000000293,-3.027751686656235730
0.456000000000000294,-2.969448147115427705
0.457000000000000295,-2.912774172842512055
0.458000000000000296,-2.857704748312202447
0.459000000000000297,-2.804214767246596018
0.460000000000000298,-2.752279050339720534
0.461000000000000298,-2.701872362426616547
0.462000000000000299,-2.652969429103996024
0.463000000000000300,-2.605544952809537129
0.464000000000000301,-2.559573628367350917
0.465000000000000302,-2.515030158007203642
0.466000000000000303,-2.471889265865229390
0.467000000000000304,-2.430125711974159497
0.468000000000000305,-2.389714305751230672
0.469000000000000306,-2.350629918991901768
0.470000000000000306,-2.312847498377897715
0.471000000000000307,-2.276342077507921502
0.472000000000000308,-2.241088788459721037
0.473000000000000309,-2.207062872892047611
0.474000000000000310,-2.174239692695295378
0.475000000000000311,-2.142594740199502912
0.476000000000000312,-2.112103647948644802
0.477000000000000313,-2.082742198049818860
0.478000000000000314,-2.054486331106373687
0.479000000000000314,-2.027312154743742045
0.480000000000000315,-2.001195951736766343
0.481000000000000316,-1.976114187747486373
0.482000000000000317,-1.952043518682028633
0.483000000000000318,-1.928960797675528527
0.484000000000000319,-1.906843081713708088
0.485000000000000320,-1.885667637899924198
0.486000000000000321,-1.865411949376218459
0.487000000000000322,-1.846053720907040896
0.488000000000000322,-1.827570884134115614
0.489000000000000323,-1.809941602510964698
0.490000000000000324,-1.793144275925410369
0.491000000000000325,-1.777157545018409168
0.492000000000000326,-1.761960295207368521
0.493000000000000327,-1.747531660422131150
0.494000000000000328,-1.733851026561668007
0.495000000000000329,-1.720898034679327226
0.496000000000000330,-1.708652583904604727
0.497000000000000330,-1.697094834109054373
0.498000000000000331,-1.686205208324042193
0.499000000000000332,-1.675964394917824452
0.500000000000000333,-1.666353349539391404
0.501000000000000334,-1.657353296836326040
0.502000000000000335,-1.648945731953899152
0.503000000000000336,-1.641112421822465972
0.504000000000000337,-1.633835406240066401
0.505000000000000338,-1.627096998757112445
0.506000000000000338,-1.620879787369849279
0.507000000000000339,-1.615166635029144260
0.508000000000000340,-1.609940679971125999
0.509000000000000341,-1.605185335875987551
0.510000000000000342,-1.600884291861171205
0.511000000000000343,-1.597021512315027536
0.512000000000000344,-1.593581236576955718
0.513000000000000345,-1.590547978469830870
0.514000000000000346,-1.587906525690521153
0.515000000000000346,-1.585641939063999306
0.516000000000000347,-1.583739551666616396
0.517000000000000348,-1.582184967823912602
0.518000000000000349,-1.580964061988113567
0.519000000000000350,-1.580062977500527044
0.520000000000000351,-1.579468125243841392
0.521000000000000352,-1.579166182189141621
0.522000000000000353,-1.579144089842501320
0.523000000000000353,-1.579389052595719933
0.524000000000000354,-1.579888535985825015
0.525000000000000355,-1.580630264867713297
0.526000000000000356,-1.581602221504223582
0.527000000000000357,-1.582792643577931146
0.528000000000000358,-1.584190022128636688
0.529000000000000359,-1.585783099420628783
0.530000000000000360,-1.587560866743529031
0.531000000000000361,-1.589512562150531938
0.532000000000000361,-1.591627668137664653
0.533000000000000362,-1.593895909267669664
0.534000000000000363,-1.596307249741925061
0.535000000000000364,-1.598851890923793651
0.536000000000000365,-1.601520268816647219
0.537000000000000366,-1.604303051499738952
0.538000000000000367,-1.607191136524969366
0.539000000000000368,-1.610175648277574867
0.540000000000000369,-1.613247935303543157
0.541000000000000369,-1.616399567606628951
0.542000000000000370,-1.619622333917627000
0.543000000000000371,-1.622908238938511660
0.544000000000000372,-1.626249500564042716
0.545000000000000373,-1.629638547083194666
0.546000000000000374,-1.633068014362841769
0.547000000000000375,-1.636530743015959244
0.548000000000000376,-1.640019775556575965
0.549000000000000377,-1.643528353543570075
0.550000000000000377,-1.647049914715366103
0.551000000000000378,-1.650578090117587937
0.552000000000000379,-1.654106701225448450
0.553000000000000380,-1.657629757062859088
0.554000000000000381,-1.661141451319899875
0.555000000000000382,-1.664636159470459731
0.556000000000000383,-1.668108435891598518
0.557000000000000384,-1.671553010986265075
0.558000000000000385,-1.674964788310843833
0.559000000000000385,-1.678338841709020146
0.560000000000000386,-1.681670412453269758
0.561000000000000387,-1.684954906395425001
0.562000000000000388,-1.688187891127476137
0.563000000000000389,-1.691365093153915922
0.564000000000000390,-1.694482395076714054
0.565000000000000391,-1.697535832794102362
0.566000000000000392,-1.700521592714193897
0.567000000000000393,-1.703436008984445804
0.568000000000000393,-1.706275560737950725
0.569000000000000394,-1.709036869357460686
0.570000000000000395,-1.711716695757995677
0.571000000000000396,-1.714311937688896226
0.572000000000000397,-1.716819627056093811
0.573000000000000398,-1.719236927265300974
0.574000000000000399,-1.721561130586884092
0.575000000000000400,-1.723789655543018329
0.576000000000000401,-1.725920044317781121
0.577000000000000401,-1.727949960190775069
0.578000000000000402,-1.729877184994792483
0.579000000000000403,-1.731699616598056268
0.580000000000000404,-1.733415266411521216
0.581000000000000405,-1.735022256921677997
0.582000000000000406,-1.736518819249251111
0.583000000000000407,-1.737903290734218675
0.584000000000000408,-1.739174112547460016
0.585000000000000409,-1.740329827329368140
0.586000000000000409,-1.741369076855776132
0.587000000000000410,-1.742290599731367351
0.588000000000000411,-1.743093229110898035
0.589000000000000412,-1.743775890448428623
0.590000000000000413,-1.744337599274715656
0.591000000000000414,-1.744777459002992970
0.592000000000000415,-1.745094658763265638
0.593000000000000416,-1.745288471265220576
0.594000000000000417,-1.745358250689902802
0.595000000000000417,-1.745303430610206430
0.596000000000000418,-1.745123521940257216
0.597000000000000419,-1.744818110913741283
0.598000000000000420,-1.744386857091197340
0.599000000000000421,-1.743829491396280407
0.600000000000000422,-1.743145814181010333
0.601000000000000423,-1.742335693319963408
0.602000000000000424,-1.741399062333373937
0.603000000000000425,-1.740335918539115623
0.604000000000000425,-1.739146321233471015
0.605000000000000426,-1.737830389900595573
0.606000000000000427,-1.736388302450674104
0.607000000000000428,-1.734820293486494691
0.608000000000000429,-1.733126652598568240
0.609000000000000430,-1.731307722688364858
