# AuFCC110UCD_PIPERAZINE-AC
# h[nm],U(h)[kJ/mol]
0.149999999999999994,158.517458986007113708
0.150999999999999995,153.974514408397396892
0.151999999999999996,150.699456278862072622
0.152999999999999997,147.749068064202361938
0.153999999999999998,144.765764235617325539
0.154999999999999999,141.672237601111760341
0.156000000000000000,138.504734504900000047
0.157000000000000001,135.328537972588094362
0.158000000000000002,132.200302957880410304
0.159000000000000002,129.155605167545900258
0.160000000000000003,126.208864239553605557
0.161000000000000004,123.358342205885108456
0.162000000000000005,120.592324367341149127
0.163000000000000006,117.894618949387265161
0.164000000000000007,115.248668646451477571
0.165000000000000008,112.640183728866844604
0.166000000000000009,110.058498701741086734
0.167000000000000010,107.496960455543188573
0.168000000000000010,104.952661570353683373
0.169000000000000011,102.425790186559495965
0.170000000000000012,99.918808064752028031
0.171000000000000013,97.435607779345858148
0.172000000000000014,94.980746610202686497
0.173000000000000015,92.558811788184570446
0.174000000000000016,90.173939680681854725
0.175000000000000017,87.829489205283294950
0.176000000000000018,85.527855562924926858
0.177000000000000018,83.270402486975484635
0.178000000000000019,81.057487938123500726
0.179000000000000020,78.888558105061093784
0.180000000000000021,76.762286544328389937
0.181000000000000022,74.676738424932935345
0.182000000000000023,72.629543488146595109
0.183000000000000024,70.618065041956796790
0.184000000000000025,68.639555792195864115
0.185000000000000026,66.691294397639310887
0.186000000000000026,64.770699241546168423
0.187000000000000027,62.875418015989488651
0.188000000000000028,61.003393337443995392
0.189000000000000029,59.152905796914424741
0.190000000000000030,57.322596653052642068
0.191000000000000031,55.511472864796658655
0.192000000000000032,53.718897392938821156
0.193000000000000033,51.944567735304964629
0.194000000000000034,50.188485549232680683
0.195000000000000034,48.450920001852978203
0.196000000000000035,46.732367209984381873
0.197000000000000036,45.033507816796877421
0.198000000000000037,43.355164424857306926
0.199000000000000038,41.698260282063792204
0.200000000000000039,40.063780310758922099
0.201000000000000040,38.452735289349348591
0.202000000000000041,36.866129745138927376
0.203000000000000042,35.304933899293651223
0.204000000000000042,33.770059820408746987
0.205000000000000043,32.262341791107722599
0.206000000000000044,30.782520770500877205
0.207000000000000045,29.331232741553161958
0.208000000000000046,27.909000663446967394
0.209000000000000047,26.516229701706908628
0.210000000000000048,25.153205380010135173
0.211000000000000049,23.820094284186087208
0.212000000000000050,22.516946948053806921
0.213000000000000050,21.243702559858370194
0.214000000000000051,20.000195144813641690
0.215000000000000052,18.786160901608290885
0.216000000000000053,17.601246396930054772
0.217000000000000054,16.445017350633953868
0.218000000000000055,15.316967773901186689
0.219000000000000056,14.216529252621796786
0.220000000000000057,13.143080197497027939
0.221000000000000058,12.095954910415040118
0.222000000000000058,11.074452343049019376
0.223000000000000059,10.077844448076255901
0.224000000000000060,9.105384045715563701
0.225000000000000061,8.156312148339393886
0.226000000000000062,7.229864703711588625
0.227000000000000063,6.325278732967972495
0.228000000000000064,5.441797852878893949
0.229000000000000065,4.578677183321402389
0.230000000000000066,3.735187650388208880
0.231000000000000066,2.910619703316864815
0.232000000000000067,2.104286469603578791
0.233000000000000068,1.315526377429677929
0.234000000000000069,0.543705278040736983
0.235000000000000070,-0.211781896867481223
0.236000000000000071,-0.951509906233890534
0.237000000000000072,-1.676022362008029898
0.238000000000000073,-2.385831245656521382
0.239000000000000073,-3.081416742219519556
0.240000000000000074,-3.763227356374069466
0.241000000000000075,-4.431680276353669790
0.242000000000000076,-5.087161953242786083
0.243000000000000077,-5.730028865035258434
0.244000000000000078,-6.360608436851698855
0.245000000000000079,-6.979200090800750544
0.246000000000000080,-7.586076401093137633
0.247000000000000081,-8.181484332142066052
0.248000000000000081,-8.765646539471513066
0.249000000000000082,-9.338762715284369520
0.250000000000000111,-9.901010962494080303
0.251000000000000112,-10.452549182879845802
0.252000000000000113,-10.993516466779928109
0.253000000000000114,-11.524034473375369458
0.254000000000000115,-12.044208792143532349
0.255000000000000115,-12.554130277464839338
0.256000000000000116,-13.053876349655704203
0.257000000000000117,-13.543512256873588839
0.258000000000000118,-14.023092293399745500
0.259000000000000119,-14.492660970758782568
0.260000000000000120,-14.952254138984931942
0.261000000000000121,-15.401900056097355574
0.262000000000000122,-15.841620404511491671
0.263000000000000123,-16.271431253691254426
0.264000000000000123,-16.691343968849409407
0.265000000000000124,-17.101366065933113703
0.266000000000000125,-17.501502013497422183
0.267000000000000126,-17.891753982375671939
0.268000000000000127,-18.272122544310306580
0.269000000000000128,-18.642607320912837565
0.270000000000000129,-19.003207584486496273
0.271000000000000130,-19.353922812372076123
0.272000000000000131,-19.694753196571262777
0.273000000000000131,-20.025700110467738568
0.274000000000000132,-20.346766534507146673
0.275000000000000133,-20.657957442716963214
0.276000000000000134,-20.959280151949467808
0.277000000000000135,-21.250744635716856124
0.278000000000000136,-21.532363804462882229
0.279000000000000137,-21.804153754078608785
0.280000000000000138,-22.066133984425512438
0.281000000000000139,-22.318327589578821346
0.282000000000000139,-22.560761421447761421
0.283000000000000140,-22.793466228370572679
0.284000000000000141,-23.016476770219838954
0.285000000000000142,-23.229831911491313434
0.286000000000000143,-23.433574693785157450
0.287000000000000144,-23.627752389024827551
0.288000000000000145,-23.812416534696893677
0.289000000000000146,-23.987622952331946635
0.290000000000000147,-24.153431750387838406
0.291000000000000147,-24.309907312637157872
0.292000000000000148,-24.457118273105415085
0.293000000000000149,-24.595137478551428956
0.294000000000000150,-24.724041939430151160
0.295000000000000151,-24.843912770228509856
0.296000000000000152,-24.954835120017698102
0.297000000000000153,-25.056898094020695567
0.298000000000000154,-25.150194666951236400
0.299000000000000155,-25.234821588840475215
0.300000000000000155,-25.310879284029354608
0.301000000000000156,-25.378471743968933794
0.302000000000000157,-25.437706414437080582
0.303000000000000158,-25.488694077747602762
0.304000000000000159,-25.531548730498247579
0.305000000000000160,-25.566387457374613490
0.306000000000000161,-25.593330301500870405
0.307000000000000162,-25.612500131802153902
0.308000000000000163,-25.624022507819383065
0.309000000000000163,-25.628025542394521352
0.310000000000000164,-25.624639762622571482
0.311000000000000165,-25.613997969445541969
0.312000000000000166,-25.596235096244669194
0.313000000000000167,-25.571488066767805947
0.314000000000000168,-25.539895652711273044
0.315000000000000169,-25.501598331258250596
0.316000000000000170,-25.456738142859698826
0.317000000000000171,-25.405458549527512702
0.318000000000000171,-25.347904293894874428
0.319000000000000172,-25.284221259284290539
0.320000000000000173,-25.214556331009312373
0.321000000000000174,-25.139057259122917998
0.322000000000000175,-25.057872522811951654
0.323000000000000176,-24.971151196624880697
0.324000000000000177,-24.879042818707453932
0.325000000000000178,-24.781697261208968541
0.326000000000000179,-24.679264603010896195
0.327000000000000179,-24.571895004917756467
0.328000000000000180,-24.459738587439666446
0.329000000000000181,-24.342945311285806298
0.330000000000000182,-24.221664860677005748
0.331000000000000183,-24.096046529576970130
0.332000000000000184,-23.966239110930949607
0.333000000000000185,-23.832390788992384500
0.334000000000000186,-23.694649034808367816
0.335000000000000187,-23.553160504926619723
0.336000000000000187,-23.408070943378067597
0.337000000000000188,-23.259525086980918474
0.338000000000000189,-23.107666574004738891
0.339000000000000190,-22.952637856225152291
0.340000000000000191,-22.794580114392552161
0.341000000000000192,-22.633633177131802228
0.342000000000000193,-22.469935443282334830
0.343000000000000194,-22.303623807682850355
0.344000000000000195,-22.134833590397320791
0.345000000000000195,-21.963698469374712374
0.346000000000000196,-21.790350416527935806
0.347000000000000197,-21.614919637213169779
0.348000000000000198,-21.437534513085285681
0.349000000000000199,-21.258321548300454396
0.350000000000000200,-21.077405319032738618
0.351000000000000201,-20.894908426266738388
0.352000000000000202,-20.710951451825174274
0.353000000000000203,-20.525652917585901491
0.354000000000000203,-20.339129247839899506
0.355000000000000204,-20.151494734738076176
0.356000000000000205,-19.962861506772384246
0.357000000000000206,-19.773339500233575450
0.358000000000000207,-19.583036433585277791
0.359000000000000208,-19.392057784692489975
0.360000000000000209,-19.200506770839716353
0.361000000000000210,-19.008484331472693896
0.362000000000000210,-18.816089113595648286
0.363000000000000211,-18.623417459754861625
0.364000000000000212,-18.430563398537838538
0.365000000000000213,-18.237618637516316511
0.366000000000000214,-18.044672558560694853
0.367000000000000215,-17.851812215452305566
0.368000000000000216,-17.659122333719906806
0.369000000000000217,-17.466685312625752857
0.370000000000000218,-17.274581229227102597
0.371000000000000218,-17.082887844437966152
0.372000000000000219,-16.891680611016901992
0.373000000000000220,-16.701032683406001667
0.374000000000000221,-16.511014929347062719
0.375000000000000222,-16.321695943200836609
0.376000000000000223,-16.133142060896222603
0.377000000000000224,-15.945417376436463286
0.378000000000000225,-15.758583759890388620
0.379000000000000226,-15.572700876797270553
0.380000000000000226,-15.387826208915111437
0.381000000000000227,-15.204015076242509252
0.382000000000000228,-15.021320660246061607
0.383000000000000229,-14.839794028225677280
0.384000000000000230,-14.659484158751510563
0.385000000000000231,-14.480437968107816360
0.386000000000000232,-14.302700337679596032
0.387000000000000233,-14.126314142219793979
0.388000000000000234,-13.951320278935734009
0.389000000000000234,-13.777757697335314191
0.390000000000000235,-13.605663429774219608
0.391000000000000236,-13.435072622647666662
0.392000000000000237,-13.266018568170835579
0.393000000000000238,-13.098532736694323830
0.394000000000000239,-12.932644809501940841
0.395000000000000240,-12.768382712039954896
0.396000000000000241,-12.605772647528379338
0.397000000000000242,-12.444839130906181879
0.398000000000000242,-12.285605023064256613
0.399000000000000243,-12.128091565321147627
0.400000000000000244,-11.972318414097980366
0.401000000000000245,-11.818303675751209880
0.402000000000000246,-11.666063941522397229
0.403000000000000247,-11.515614322566362304
0.404000000000000248,-11.366968485020416679
0.405000000000000249,-11.220138685078723029
0.406000000000000250,-11.075135804037316234
0.407000000000000250,-10.931969383276962660
0.408000000000000251,-10.790647659152046600
0.409000000000000252,-10.651177597755651760
0.410000000000000253,-10.513564929531700187
0.411000000000000254,-10.377814183707021911
0.412000000000000255,-10.243928722517045671
0.413000000000000256,-10.111910775200504631
0.414000000000000257,-9.981761471739428515
0.415000000000000258,-9.853480876322418425
0.416000000000000258,-9.727068020509946678
0.417000000000000259,-9.602520936082001413
0.418000000000000260,-9.479836687549413554
0.419000000000000261,-9.359011404311186055
0.420000000000000262,-9.240040312441655246
0.421000000000000263,-9.122917766092012215
0.422000000000000264,-9.007637278491953836
0.423000000000000265,-8.894191552538138978
0.424000000000000266,-8.782572510957470158
0.425000000000000266,-8.672771326033529959
0.426000000000000267,-8.564778448886123385
0.427000000000000268,-8.458583638294367546
0.428000000000000269,-8.354175989054720475
0.429000000000000270,-8.251543959866348033
0.430000000000000271,-8.150675400736764331
0.431000000000000272,-8.051557579901791328
0.432000000000000273,-7.954177210254319341
0.433000000000000274,-7.858520475277421369
0.434000000000000274,-7.764573054477696523
0.435000000000000275,-7.672320148315757926
0.436000000000000276,-7.581746502631245832
0.437000000000000277,-7.492836432560272542
0.438000000000000278,-7.405573845944050326
0.439000000000000279,-7.319942266227895011
0.440000000000000280,-7.235924854850236621
0.441000000000000281,-7.153504433121979034
0.442000000000000282,-7.072663503597025780
0.443000000000000282,-6.993384270935000480
0.444000000000000283,-6.915648662258101709
0.445000000000000284,-6.839438347004050733
0.446000000000000285,-6.764734756277543504
0.447000000000000286,-6.691519101703462979
0.448000000000000287,-6.619772393784664644
0.449000000000000288,-6.549475459768340890
0.450000000000000289,-6.480608961024619141
0.451000000000000290,-6.413153409941758198
0.452000000000000290,-6.347089186342461886
0.453000000000000291,-6.282396553426025321
0.454000000000000292,-6.219055673241465243
0.455000000000000293,-6.157046621696754762
0.456000000000000294,-6.096349403109827314
0.457000000000000295,-6.036943964306881405
0.458000000000000296,-5.978810208273973359
0.459000000000000297,-5.921928007367865732
0.460000000000000298,-5.866277216092386837
0.461000000000000298,-5.811837683446617220
0.462000000000000299,-5.758589264851421419
0.463000000000000300,-5.706511833660792732
0.464000000000000301,-5.655585292264885489
0.465000000000000302,-5.605789582791401493
0.466000000000000303,-5.557104697412219352
0.467000000000000304,-5.509510688262186484
0.468000000000000305,-5.462987676977169471
0.469000000000000306,-5.417515863858278991
0.470000000000000306,-5.373075536669479568
0.471000000000000307,-5.329647079075574112
0.472000000000000308,-5.287210978727875599
0.473000000000000309,-5.245747835004538118
0.474000000000000310,-5.205238366412855200
0.475000000000000311,-5.165663417660586454
0.476000000000000312,-5.127003966403610669
0.477000000000000313,-5.089241129676818964
0.478000000000000314,-5.052356170015566583
0.479000000000000314,-5.016330501274730125
0.480000000000000315,-4.981145694152298020
0.481000000000000316,-4.946783481424725792
0.482000000000000317,-4.913225762900827576
0.483000000000000318,-4.880454610101259583
0.484000000000000319,-4.848452270670401631
0.485000000000000320,-4.817201172527495245
0.486000000000000321,-4.786683927763744961
0.487000000000000322,-4.756883336292112574
0.488000000000000322,-4.727782389256359963
0.489000000000000323,-4.699364272205970749
0.490000000000000324,-4.671612368043364327
0.491000000000000325,-4.644510259749796255
0.492000000000000326,-4.618041732896267959
0.493000000000000327,-4.592190777945686087
0.494000000000000328,-4.566941592352403489
0.495000000000000329,-4.542278582465188563
0.496000000000000330,-4.518186365239623470
0.497000000000000330,-4.494649769765778125
0.498000000000000331,-4.471653838616954424
0.499000000000000332,-4.449183829025219694
0.500000000000000333,-4.427225213889300015
0.501000000000000334,-4.405763682620347232
0.502000000000000335,-4.384785141831000210
0.503000000000000336,-4.364275715873040973
0.504000000000000337,-4.344221747228878883
0.505000000000000338,-4.324609796761959224
0.506000000000000338,-4.305426643831150813
0.507000000000000339,-4.286659286274000280
0.508000000000000340,-4.268294940263692716
0.509000000000000341,-4.250321040044505061
0.510000000000000342,-4.232725237550274855
0.511000000000000343,-4.215495401910512641
0.512000000000000344,-4.198619618848541180
0.513000000000000345,-4.182086189976033985
0.514000000000000346,-4.165883631988216429
0.515000000000000346,-4.150000675763797275
0.516000000000000347,-4.134426265373747356
0.517000000000000348,-4.119149557002955930
0.518000000000000349,-4.104159917788438250
0.519000000000000350,-4.089446924578051146
0.520000000000000351,-4.075000362613343086
0.521000000000000352,-4.060810224140079860
0.522000000000000353,-4.046866706950013715
0.523000000000000353,-4.033160212857258564
0.524000000000000354,-4.019681346112657039
0.525000000000000355,-4.006420911759309256
0.526000000000000356,-3.993369913932435900
0.527000000000000357,-3.980519554106707769
0.528000000000000358,-3.967861229293895065
0.529000000000000359,-3.955386530193872652
0.530000000000000360,-3.943087239301701352
0.531000000000000361,-3.930955328973592344
0.532000000000000361,-3.918982959454356596
0.533000000000000362,-3.907162476868983880
0.534000000000000363,-3.895486411180811182
0.535000000000000364,-3.883947474118724763
0.536000000000000365,-3.872538557075765997
0.537000000000000366,-3.861252728981431126
0.538000000000000367,-3.850083234149816125
0.539000000000000368,-3.839023490105893721
0.540000000000000369,-3.828067085391791302
0.541000000000000369,-3.817207777355305698
0.542000000000000370,-3.806439489922411212
0.543000000000000371,-3.795756311355732660
0.544000000000000372,-3.785152492000797508
0.545000000000000373,-3.774622442021792867
0.546000000000000374,-3.764160729128499305
0.547000000000000375,-3.753762076296089045
0.548000000000000376,-3.743421359479349064
0.549000000000000377,-3.733133605322796367
0.550000000000000377,-3.722893988868190007
0.551000000000000378,-3.712697831260859171
0.552000000000000379,-3.702540597456149385
0.553000000000000380,-3.692417893927346650
0.554000000000000381,-3.682325466376260348
0.555000000000000382,-3.672259197447768742
0.556000000000000383,-3.662215104449340064
0.557000000000000384,-3.652189337076771292
0.558000000000000385,-3.642178175147104291
0.559000000000000385,-3.632178026339810906
0.560000000000000386,-3.622185423947114291
0.561000000000000387,-3.612197024634506981
0.562000000000000388,-3.602209606212222415
0.563000000000000389,-3.592220065418604058
0.564000000000000390,-3.582225415716119521
0.565000000000000391,-3.572222785100786613
0.566000000000000392,-3.562209413925798707
0.567000000000000393,-3.552182652739971136
0.568000000000000393,-3.542139960141704957
0.569000000000000394,-3.532078900649087139
0.570000000000000395,-3.521997142586729801
0.571000000000000396,-3.511892455989844564
0.572000000000000397,-3.501762710526206579
0.573000000000000398,-3.491605873436335994
0.574000000000000399,-3.481420007492520341
0.575000000000000400,-3.471203268976997602
0.576000000000000401,-3.460953905679777343
0.577000000000000401,-3.450670254916483604
0.578000000000000402,-3.440350741566516213
0.579000000000000403,-3.429993876131914643
0.580000000000000404,-3.419598252817242834
0.581000000000000405,-3.409162547630707252
0.582000000000000406,-3.398685516506853244
0.583000000000000407,-3.388165993451004887
0.584000000000000408,-3.377602888705721007
0.585000000000000409,-3.366995186939411244
0.586000000000000409,-3.356341945457337772
0.587000000000000410,-3.345642292435120346
0.588000000000000411,-3.334895425174887684
0.589000000000000412,-3.324100608384233713
0.590000000000000413,-3.313257172478000889
0.591000000000000414,-3.302364511903052691
0.592000000000000415,-3.291422083486084116
0.593000000000000416,-3.280429404804473315
0.594000000000000417,-3.269386052580273372
0.595000000000000417,-3.258291661097374892
0.596000000000000418,-3.247145920641754113
0.597000000000000419,-3.235948575964936680
0.598000000000000420,-3.224699424770550049
0.599000000000000421,-3.213398316223994300
0.600000000000000422,-3.202045149485174935
0.601000000000000423,-3.190639872264251498
0.602000000000000424,-3.179182479400322503
0.603000000000000425,-3.167673011463009836
0.604000000000000425,-3.156111553376811596
0.605000000000000426,-3.144498233068163007
0.606000000000000427,-3.132833220135139207
0.607000000000000428,-3.121116724539551690
0.608000000000000429,-3.109348995321563169
