# AuFCC110UCD_13THIAZOLE-AC
# h[nm],U(h)[kJ/mol]
0.149999999999999994,138.524575875231562350
0.150999999999999995,134.821405476339862162
0.151999999999999996,131.887411719339638694
0.152999999999999997,129.166750775647244609
0.153999999999999998,126.453433124294434720
0.154999999999999999,123.704819957930567398
0.156000000000000000,120.941921800650021623
0.157000000000000001,118.200266610355967600
0.158000000000000002,115.508970516154590769
0.159000000000000002,112.884558472546629559
0.160000000000000003,110.331718289021267765
0.161000000000000004,107.846661842124532882
0.162000000000000005,105.420871630986042078
0.163000000000000006,103.044234555050024937
0.164000000000000007,100.707240388112751361
0.165000000000000008,98.402265869551129640
0.166000000000000009,96.124114702356166617
0.167000000000000010,93.870025561180810314
0.168000000000000010,91.639347302440711474
0.169000000000000011,89.433044069500553519
0.170000000000000012,87.253150329797591667
0.171000000000000013,85.102256047895323832
0.172000000000000014,82.983069130032703242
0.173000000000000015,80.898077048305395920
0.174000000000000016,78.849311734018584730
0.175000000000000017,76.838210299033434580
0.176000000000000018,74.865557566215358065
0.177000000000000018,72.931493473841584319
0.178000000000000019,71.035568039412254393
0.179000000000000020,69.176827812574003929
0.180000000000000021,67.353919913643196082
0.181000000000000022,65.565202332372763294
0.182000000000000023,63.808851798978231784
0.183000000000000024,62.082963009994713843
0.184000000000000025,60.385635164935067110
0.185000000000000026,58.715043585087222766
0.186000000000000026,57.069495630222014881
0.187000000000000027,55.447471220740204956
0.188000000000000028,53.847649048559276252
0.189000000000000029,52.268920065719008505
0.190000000000000030,50.710390123929997230
0.191000000000000031,49.171373748280750249
0.192000000000000032,47.651381007178358118
0.193000000000000033,46.150099325983667597
0.194000000000000034,44.667371915400835292
0.195000000000000034,43.203174273211402578
0.196000000000000035,41.757589989576757716
0.197000000000000036,40.330786857074187424
0.198000000000000037,38.922994067814514096
0.199000000000000038,37.534481078792779840
0.200000000000000039,36.165538547544620940
0.201000000000000040,34.816461585461141226
0.202000000000000041,33.487535446279977691
0.203000000000000042,32.179023661608489704
0.204000000000000042,30.891158552262034220
0.205000000000000043,29.624133981599630516
0.206000000000000044,28.378100172478514907
0.207000000000000045,27.153160380394176343
0.208000000000000046,25.949369199306222100
0.209000000000000047,24.766732271180806890
0.210000000000000048,23.605207173203481830
0.211000000000000049,22.464705265953437419
0.212000000000000050,21.345094299842781282
0.213000000000000050,20.246201594332287499
0.214000000000000051,19.167817623582852349
0.215000000000000052,18.109699862274691640
0.216000000000000053,17.071576765505376727
0.217000000000000054,16.053151776332054368
0.218000000000000055,15.054107273181035254
0.219000000000000056,14.074108386679275995
0.220000000000000057,13.112806631241786803
0.221000000000000058,12.169843310867255681
0.222000000000000058,11.244852670989427423
0.223000000000000059,10.337464778935302689
0.224000000000000060,9.447308124600766632
0.225000000000000061,8.574011940471347515
0.226000000000000062,7.717208246204466882
0.227000000000000063,6.876533627781947544
0.228000000000000064,6.051630764877476309
0.229000000000000065,5.242149722700285785
0.230000000000000066,4.447749026317687537
0.231000000000000066,3.668096536449532152
0.232000000000000067,2.902870146099076454
0.233000000000000068,2.151758317244801155
0.234000000000000069,1.414460476274859158
0.235000000000000070,0.690687285989514677
0.236000000000000071,-0.019839189088277774
0.237000000000000072,-0.717385408601989960
0.238000000000000073,-1.402206359303275196
0.239000000000000073,-2.074545622293457292
0.240000000000000074,-2.734635493216086122
0.241000000000000075,-3.382697145425663798
0.242000000000000076,-4.018940827481022104
0.243000000000000077,-4.643566087561884714
0.244000000000000078,-5.256762018568821304
0.245000000000000079,-5.858707518732754416
0.246000000000000080,-6.449571563521201867
0.247000000000000081,-7.029513485487571600
0.248000000000000081,-7.598683259461415318
0.249000000000000082,-8.157221791129014576
0.250000000000000111,-8.705261207607922103
0.251000000000000112,-9.242925149080491565
0.252000000000000113,-9.770329060930659892
0.253000000000000114,-10.287580486125605717
0.254000000000000115,-10.794779357816377541
0.255000000000000115,-11.292018292297418824
0.256000000000000116,-11.779382882579069403
0.257000000000000117,-12.256951992893217351
0.258000000000000118,-12.724798054477517439
0.259000000000000119,-13.182987362977030443
0.260000000000000120,-13.631580377768068857
0.261000000000000121,-14.070632023452665393
0.262000000000000122,-14.500191993701349702
0.263000000000000123,-14.920305057538007176
0.264000000000000123,-15.331011368070786460
0.265000000000000124,-15.732346773578393950
0.266000000000000125,-16.124343130766554566
0.267000000000000126,-16.507028619916354728
0.268000000000000127,-16.880428061557811503
0.269000000000000128,-17.244563234218908576
0.270000000000000129,-17.599453192724702433
0.271000000000000130,-17.945114586454696592
0.272000000000000131,-18.281561976907607203
0.273000000000000131,-18.608808153874839775
0.274000000000000132,-18.926864449484810393
0.275000000000000133,-19.235741049351481990
0.276000000000000134,-19.535447300041305141
0.277000000000000135,-19.825992012062101821
0.278000000000000136,-20.107383757577384387
0.279000000000000137,-20.379631162056377036
0.280000000000000138,-20.642743189085194899
0.281000000000000139,-20.896729417587504685
0.282000000000000139,-21.141600310731593737
0.283000000000000140,-21.377367475835676203
0.284000000000000141,-21.604043914622927502
0.285000000000000142,-21.821644263222388815
0.286000000000000143,-22.030185021359265818
0.287000000000000144,-22.229684770229159341
0.288000000000000145,-22.420164378604731326
0.289000000000000146,-22.601647196776713855
0.290000000000000147,-22.774159237988932603
0.291000000000000147,-22.937729347082285614
0.292000000000000148,-23.092389356120278876
0.293000000000000149,-23.238174226824245494
0.294000000000000150,-23.375122179702259473
0.295000000000000151,-23.503274809809891366
0.296000000000000152,-23.622677189133526099
0.297000000000000153,-23.733377955637770640
0.298000000000000154,-23.835429389067407158
0.299000000000000155,-23.928887473640450878
0.300000000000000155,-24.013811947812985892
0.301000000000000156,-24.090266341337411404
0.302000000000000157,-24.158317999874636683
0.303000000000000158,-24.218038097455892199
0.304000000000000159,-24.269501637122960602
0.305000000000000160,-24.312787440105147141
0.306000000000000161,-24.347978123918409210
0.307000000000000162,-24.375160069795931861
0.308000000000000163,-24.394423379880485925
0.309000000000000163,-24.405861824627201884
0.310000000000000164,-24.409572780881195087
0.311000000000000165,-24.405657161106653064
0.312000000000000166,-24.394219334255119236
0.313000000000000167,-24.375367038767908667
0.314000000000000168,-24.349211288213247428
0.315000000000000169,-24.315866270061825105
0.316000000000000170,-24.275449238105828442
0.317000000000000171,-24.228080399025081704
0.318000000000000171,-24.173882793601517704
0.319000000000000172,-24.112982173078627568
0.320000000000000173,-24.045506871156057116
0.321000000000000174,-23.971587672102195654
0.322000000000000175,-23.891357675458419152
0.323000000000000176,-23.804952157798492607
0.324000000000000177,-23.712508431995182434
0.325000000000000178,-23.614165704433467852
0.326000000000000179,-23.510064930597426525
0.327000000000000179,-23.400348669442628591
0.328000000000000180,-23.285160936951783128
0.329000000000000181,-23.164647059256662232
0.330000000000000182,-23.038953525692143387
0.331000000000000183,-22.908227842133815244
0.332000000000000184,-22.772618384952728832
0.333000000000000185,-22.632274255905407756
0.334000000000000186,-22.487345138259659194
0.335000000000000187,-22.337981154440473830
0.336000000000000187,-22.184332725463434599
0.337000000000000188,-22.026550432405922919
0.338000000000000189,-21.864784880150597957
0.339000000000000190,-21.699186563618550139
0.340000000000000191,-21.529905736693567775
0.341000000000000192,-21.357092284023398321
0.342000000000000193,-21.180895595867557546
0.343000000000000194,-21.001464446146950849
0.344000000000000195,-20.818946873834686784
0.345000000000000195,-20.633490067813902158
0.346000000000000196,-20.445240255313777311
0.347000000000000197,-20.254342594021490953
0.348000000000000198,-20.060941067954964012
0.349000000000000199,-19.865178387168157315
0.350000000000000200,-19.667195891349045667
0.351000000000000201,-19.467133457358102078
0.352000000000000202,-19.265129410744570748
0.353000000000000203,-19.061320441266801140
0.354000000000000203,-18.855841522432864821
0.355000000000000204,-18.648825835067817991
0.356000000000000205,-18.440404694905343064
0.357000000000000206,-18.230707484192425483
0.358000000000000207,-18.019861587287511639
0.359000000000000208,-17.807992330225463462
0.360000000000000209,-17.595222924214958482
0.361000000000000210,-17.381674413027454307
0.362000000000000210,-17.167465624230651144
0.363000000000000211,-16.952713124213548923
0.364000000000000212,-16.737531176944919764
0.365000000000000213,-16.522031706401911322
0.366000000000000214,-16.306324262601240349
0.367000000000000215,-16.090515991161236542
0.368000000000000216,-15.874711606319166890
0.369000000000000217,-15.659013367325133714
0.370000000000000218,-15.443521058130794898
0.371000000000000218,-15.228331970288346398
0.372000000000000219,-15.013540888973267329
0.373000000000000220,-14.799240082041922761
0.374000000000000221,-14.585519292033946925
0.375000000000000222,-14.372465731027308067
0.376000000000000223,-14.160164078253419717
0.377000000000000224,-13.948696480378576013
0.378000000000000225,-13.738142554357199998
0.379000000000000226,-13.528579392762363653
0.380000000000000226,-13.320081571498750606
0.381000000000000227,-13.112721159802976700
0.382000000000000228,-12.906567732437087770
0.383000000000000229,-12.701688383980913599
0.384000000000000230,-12.498147745129582376
0.385000000000000231,-12.296008000903832169
0.386000000000000232,-12.095328910680898105
0.387000000000000233,-11.896167829955336614
0.388000000000000234,-11.698579733739986608
0.389000000000000234,-11.502617241518946045
0.390000000000000235,-11.308330643665225779
0.391000000000000236,-11.115767929237946987
0.392000000000000237,-10.924974815074822487
0.393000000000000238,-10.735994776097896874
0.394000000000000239,-10.548869076751781648
0.395000000000000240,-10.363636803495749561
0.396000000000000241,-10.180334898272647592
0.397000000000000242,-9.998998192879550828
0.398000000000000242,-9.819659444167095685
0.399000000000000243,-9.642349369996281894
0.400000000000000244,-9.467096685883284124
0.401000000000000245,-9.293928142265571068
0.402000000000000246,-9.122868562323699138
0.403000000000000247,-8.953940880295757410
0.404000000000000248,-8.787166180223461964
0.405000000000000249,-8.622563735070764679
0.406000000000000250,-8.460151046157829313
0.407000000000000250,-8.299943882855618682
0.408000000000000251,-8.141956322487816422
0.409000000000000252,-7.986200790389402115
0.410000000000000253,-7.832688100072680015
0.411000000000000254,-7.681427493453879762
0.412000000000000255,-7.532426681095232723
0.413000000000000256,-7.385691882419388676
0.414000000000000257,-7.241227865854945378
0.415000000000000258,-7.099037988873732274
0.416000000000000258,-6.959124237882283737
0.417000000000000259,-6.821487267931862775
0.418000000000000260,-6.686126442213003784
0.419000000000000261,-6.553039871302343222
0.420000000000000262,-6.422224452131343853
0.421000000000000263,-6.293675906647914431
0.422000000000000264,-6.167388820143820283
0.423000000000000265,-6.043356679222023686
0.424000000000000266,-5.921571909380205945
0.425000000000000266,-5.802025912187461998
0.426000000000000267,-5.684709102033332684
0.427000000000000268,-5.569610942429280342
0.428000000000000269,-5.456719981844345924
0.429000000000000270,-5.346023889058009182
0.430000000000000271,-5.237509488014429060
0.431000000000000272,-5.131162792163749486
0.432000000000000273,-5.026969038277184332
0.433000000000000274,-4.924912719723817389
0.434000000000000274,-4.824977619198182133
0.435000000000000275,-4.727146840888850399
0.436000000000000276,-4.631402842079213045
0.437000000000000277,-4.537727464172675695
0.438000000000000278,-4.446101963135517643
0.439000000000000279,-4.356507039351617649
0.440000000000000280,-4.268922866883964495
0.441000000000000281,-4.183329122139006095
0.442000000000000282,-4.099705011930566911
0.443000000000000282,-4.018029300940751725
0.444000000000000283,-3.938280338576322315
0.445000000000000284,-3.860436085219460800
0.446000000000000285,-3.784474137872511079
0.447000000000000286,-3.710371755197382271
0.448000000000000287,-3.638105881950248310
0.449000000000000288,-3.567653172813403550
0.450000000000000289,-3.498990015626244343
0.451000000000000290,-3.432092554018154829
0.452000000000000290,-3.366936709446445519
0.453000000000000291,-3.303498202642994208
0.454000000000000292,-3.241752574473773851
0.455000000000000293,-3.181675206215674123
0.456000000000000294,-3.123241339255694804
0.457000000000000295,-3.066426094217713949
0.458000000000000296,-3.011204489522534278
0.459000000000000297,-2.957551459387168791
0.460000000000000298,-2.905441871269661913
0.461000000000000298,-2.854850542766011579
0.462000000000000299,-2.805752257966028118
0.463000000000000300,-2.758121783275139016
0.464000000000000301,-2.711933882709521182
0.465000000000000302,-2.667163332672010334
0.466000000000000303,-2.623784936216406738
0.467000000000000304,-2.581773536808072755
0.468000000000000305,-2.541104031588879320
0.469000000000000306,-2.501751384154442981
0.470000000000000306,-2.463690636852111204
0.471000000000000307,-2.426896922607862717
0.472000000000000308,-2.391345476290703598
0.473000000000000309,-2.357011645622951512
0.474000000000000310,-2.323870901645086029
0.475000000000000311,-2.291898848743706196
0.476000000000000312,-2.261071234251407436
0.477000000000000313,-2.231363957627039873
0.478000000000000314,-2.202753079225289845
0.479000000000000314,-2.175214828664226108
0.480000000000000315,-2.148725612799450069
0.481000000000000316,-2.123262023313716718
0.482000000000000317,-2.098800843930572313
0.483000000000000318,-2.075319057260758271
0.484000000000000319,-2.052793851289949512
0.485000000000000320,-2.031202625516500326
0.486000000000000321,-2.010522996747609703
0.487000000000000322,-1.990732804562487690
0.488000000000000322,-1.971810116450861461
0.489000000000000323,-1.953733232635237016
0.490000000000000324,-1.936480690585146602
0.491000000000000325,-1.920031269231584847
0.492000000000000326,-1.904363992889746893
0.493000000000000327,-1.889458134898098551
0.494000000000000328,-1.875293220981741227
0.495000000000000329,-1.861849032347835164
0.496000000000000330,-1.849105608520920097
0.497000000000000330,-1.837043249925691457
0.498000000000000331,-1.825642520224819876
0.499000000000000332,-1.814884248419222246
0.500000000000000333,-1.804749530718117612
0.501000000000000334,-1.795219732186062789
0.502000000000000335,-1.786276488174076249
0.503000000000000336,-1.777901705541836463
0.504000000000000337,-1.770077563677802557
0.505000000000000338,-1.762786515324025860
0.506000000000000338,-1.756011287212291494
0.507000000000000339,-1.749734880518050373
0.508000000000000340,-1.743940571138605122
0.509000000000000341,-1.738611909801776934
0.510000000000000342,-1.733732722011208427
0.511000000000000343,-1.729287107834347026
0.512000000000000344,-1.725259441538998573
0.513000000000000345,-1.721634371084248327
0.514000000000000346,-1.718396817471457227
0.515000000000000346,-1.715531973960769507
0.516000000000000347,-1.713025305158679457
0.517000000000000348,-1.710862545981919780
0.518000000000000349,-1.709029700502809446
0.519000000000000350,-1.707513040681186256
0.520000000000000351,-1.706299104987895721
0.521000000000000352,-1.705374696924585098
0.522000000000000353,-1.704726883444607877
0.523000000000000353,-1.704342993279576390
0.524000000000000354,-1.704210615176110055
0.525000000000000355,-1.704317596047114192
0.526000000000000356,-1.704652039041850031
0.527000000000000357,-1.705202301539015419
0.528000000000000358,-1.705956993066787053
0.529000000000000359,-1.706904973153848371
0.530000000000000360,-1.708035349115181178
0.531000000000000361,-1.709337473776374683
0.532000000000000361,-1.710800943140061037
0.533000000000000362,-1.712415593998026342
0.534000000000000363,-1.714171501492383953
0.535000000000000364,-1.716058976629147637
0.536000000000000365,-1.718068563747454647
0.537000000000000366,-1.720191037947528034
0.538000000000000367,-1.722417402480425963
0.539000000000000368,-1.724738886102568314
0.540000000000000369,-1.727146940397806363
0.541000000000000369,-1.729633237069875928
0.542000000000000370,-1.732189665207884088
0.543000000000000371,-1.734808328527378762
0.544000000000000372,-1.737481542589598194
0.545000000000000373,-1.740201832001221804
0.546000000000000374,-1.742961927597022509
0.547000000000000375,-1.745754763607667570
0.548000000000000376,-1.748573474814875350
0.549000000000000377,-1.751411393695987417
0.550000000000000377,-1.754262047559999260
0.551000000000000378,-1.757119155677083766
0.552000000000000379,-1.759976626403361166
0.553000000000000380,-1.762828554302879880
0.554000000000000381,-1.765669217268427627
0.555000000000000382,-1.768493073642965596
0.556000000000000383,-1.771294759343213787
0.557000000000000384,-1.774069084987008882
0.558000000000000385,-1.776811033025877951
0.559000000000000385,-1.779515754884327894
0.560000000000000386,-1.782178568107094518
0.561000000000000387,-1.784794953515833171
0.562000000000000388,-1.787360552376367817
0.563000000000000389,-1.789871163577790636
0.564000000000000390,-1.792322740824503269
0.565000000000000391,-1.794711389842345239
0.566000000000000392,-1.797033365599823185
0.567000000000000393,-1.799285069545457194
0.568000000000000393,-1.801463046862181283
0.569000000000000394,-1.803563983739722598
0.570000000000000395,-1.805584704665780027
0.571000000000000396,-1.807522169736851314
0.572000000000000397,-1.809373471989482951
0.573000000000000398,-1.811135834752618523
0.574000000000000399,-1.812806609021806237
0.575000000000000400,-1.814383270855857377
0.576000000000000401,-1.815863418796595408
0.577000000000000401,-1.817244771312277463
0.578000000000000402,-1.818525164265196947
0.579000000000000403,-1.819702548403986153
0.580000000000000404,-1.820774986881107838
0.581000000000000405,-1.821740652795940552
0.582000000000000406,-1.822597826763880491
0.583000000000000407,-1.823344894511841119
0.584000000000000408,-1.823980344500482742
0.585000000000000409,-1.824502765573476681
0.586000000000000409,-1.824910844634154872
0.587000000000000410,-1.825203364349716306
0.588000000000000411,-1.825379200883299635
0.589000000000000412,-1.825437321654113543
0.590000000000000413,-1.825376783125785440
0.591000000000000414,-1.825196728623125653
0.592000000000000415,-1.824896386177454088
0.593000000000000416,-1.824475066400559342
0.594000000000000417,-1.823932160387458534
0.595000000000000417,-1.823267137647984537
0.596000000000000418,-1.822479544067283186
0.597000000000000419,-1.821568999895260887
0.598000000000000420,-1.820535197765009716
0.599000000000000421,-1.819377900740192233
0.600000000000000422,-1.818096940391421779
0.601000000000000423,-1.816692214901568958
0.602000000000000424,-1.815163687199966347
0.603000000000000425,-1.813511383125488319
0.604000000000000425,-1.811735389618382985
0.605000000000000426,-1.809835852940794521
0.606000000000000427,-1.807812976925943005
0.607000000000000428,-1.805667021255693339
0.608000000000000429,-1.803398299766641344
0.609000000000000430,-1.801007178784280516
