# AlFCC110UCD_CHL-AC
# h[nm],U(h)[kJ/mol]
0.200000000000000011,163.600121348668380961
0.201000000000000012,157.868006863283568464
0.202000000000000013,154.340167334691273027
0.203000000000000014,151.874329033779929432
0.204000000000000015,149.811195310525050672
0.205000000000000016,147.802187135851283983
0.206000000000000016,145.690956024483682540
0.207000000000000017,143.433535511445313659
0.208000000000000018,141.045928253925069384
0.209000000000000019,138.570897014179820417
0.210000000000000020,136.057962685364202571
0.211000000000000021,133.552284414579929717
0.212000000000000022,131.089339811744054032
0.213000000000000023,128.693240672698806293
0.214000000000000024,126.377191224927827307
0.215000000000000024,124.145082732437259665
0.216000000000000025,121.993567106542926126
0.217000000000000026,119.914198567669970430
0.218000000000000027,117.895403403337326154
0.219000000000000028,115.924153866064827412
0.220000000000000029,113.987298569219547062
0.221000000000000030,112.072549799994050090
0.222000000000000031,110.169156446449051145
0.223000000000000032,108.268305952410827331
0.224000000000000032,106.363304395903497834
0.225000000000000033,104.449583685844999081
0.226000000000000034,102.524581289954923591
0.227000000000000035,100.587532442936549160
0.228000000000000036,98.639208520753314247
0.229000000000000037,96.681628912540887200
0.230000000000000038,94.717767716481105822
0.231000000000000039,92.751271180987814091
0.232000000000000040,90.786197128675226509
0.233000000000000040,88.826783671362463224
0.234000000000000041,86.877251327224925603
0.235000000000000042,84.941640129683094074
0.236000000000000043,83.023681397027175421
0.237000000000000044,81.126702429928556626
0.238000000000000045,79.253561438305922593
0.239000000000000046,77.406609391083051719
0.240000000000000047,75.587675160554340437
0.241000000000000048,73.798070233901654547
0.242000000000000048,72.038609333000550805
0.243000000000000049,70.309643473619118481
0.244000000000000050,68.611102268028560047
0.245000000000000051,66.942542599718507290
0.246000000000000052,65.303201150612693482
0.247000000000000053,63.692048620729636355
0.248000000000000054,62.107843833221672014
0.249000000000000055,60.549186253710068684
0.250000000000000056,59.014565764641965018
0.251000000000000056,57.502408818491538511
0.252000000000000057,56.011120345573374379
0.253000000000000058,54.539121012210173944
0.254000000000000059,53.084879613400175913
0.255000000000000060,51.646940542264040630
0.256000000000000061,50.223946408332473368
0.257000000000000062,48.814655980491764353
0.258000000000000063,47.417957710688028783
0.259000000000000064,46.032879153952968920
0.260000000000000064,44.658592641596925432
0.261000000000000065,43.294417590081295089
0.262000000000000066,41.939819840547322372
0.263000000000000067,40.594408425501043780
0.264000000000000068,39.257930151778786865
0.265000000000000069,37.930262374496521716
0.266000000000000070,36.611404316859172070
0.267000000000000071,35.301467266901930486
0.268000000000000071,34.000663955699863550
0.269000000000000072,32.709297393363584661
0.270000000000000073,31.427749410125318974
0.271000000000000074,30.156469120741206780
0.272000000000000075,28.895961501879309452
0.273000000000000076,27.646776244600840045
0.274000000000000077,26.409497017826737419
0.275000000000000078,25.184731254080968910
0.276000000000000079,23.973100545996857136
0.277000000000000079,22.775231721174826305
0.278000000000000080,21.591748644052714212
0.279000000000000081,20.423264776492558781
0.280000000000000082,19.270376513781652505
0.281000000000000083,18.133657299622647940
0.282000000000000084,17.013652512371702841
0.283000000000000085,15.910875105170996235
0.284000000000000086,14.825801974599590594
0.285000000000000087,13.758871025919177100
0.286000000000000087,12.710478897787947261
0.287000000000000088,11.680979305335442930
0.288000000000000089,10.670681957607637713
0.289000000000000090,9.679852003482341871
0.290000000000000091,8.708709959106352372
0.291000000000000092,7.757432069601551738
0.292000000000000093,6.826151058128502314
0.293000000000000094,5.914957216281083063
0.294000000000000095,5.023899791127333536
0.295000000000000095,4.152988625923885735
0.296000000000000096,3.302196013544669739
0.297000000000000097,2.471458723905281207
0.298000000000000098,1.660680169077244583
0.299000000000000099,0.869732672314527000
0.300000000000000100,0.098459809813632407
0.301000000000000101,-0.653321203345250678
0.302000000000000102,-1.385817109005897718
0.303000000000000103,-2.099256206840050432
0.304000000000000103,-2.793885981169019761
0.305000000000000104,-3.469970772084304489
0.306000000000000105,-4.127789506904024464
0.307000000000000106,-4.767633505770361602
0.308000000000000107,-5.389804373082630384
0.309000000000000108,-5.994611984477797861
0.310000000000000109,-6.582372577222287191
0.311000000000000110,-7.153406950162937150
0.312000000000000111,-7.708038777809930409
0.313000000000000111,-8.246593041679254554
0.314000000000000112,-8.769394580713631981
0.315000000000000113,-9.276766761419342089
0.316000000000000114,-9.769030267300637504
0.317000000000000115,-10.246502006236758220
0.318000000000000116,-10.709494133624955836
0.319000000000000117,-11.158313188398444993
0.320000000000000118,-11.593259338415938586
0.321000000000000119,-12.014625731202766445
0.322000000000000119,-12.422697945594645574
0.323000000000000120,-12.817753539488332848
0.324000000000000121,-13.200061688633397239
0.325000000000000122,-13.569882911196256003
0.326000000000000123,-13.927468872688688606
0.327000000000000124,-14.273062265770544599
0.328000000000000125,-14.606896759404842001
0.329000000000000126,-14.929197011856794930
0.330000000000000127,-15.240178742082843399
0.331000000000000127,-15.540048854144449919
0.332000000000000128,-15.829005609401397336
0.333000000000000129,-16.107238841385360217
0.334000000000000130,-16.374930208422217248
0.335000000000000131,-16.632253479259325957
0.336000000000000132,-16.879374847153826522
0.337000000000000133,-17.116453268093387408
0.338000000000000134,-17.343640819042459356
0.339000000000000135,-17.561083072335634370
0.340000000000000135,-17.768919482573881652
0.341000000000000136,-17.967283782613190368
0.342000000000000137,-18.156304385471070617
0.343000000000000138,-18.336104789208846455
0.344000000000000139,-18.506803982079322424
0.345000000000000140,-18.668516845454199427
0.346000000000000141,-18.821354552267273164
0.347000000000000142,-18.965424958923197352
0.348000000000000143,-19.100832988829345993
0.349000000000000143,-19.227681005907445666
0.350000000000000144,-19.346069176633196918
0.351000000000000145,-19.456095819334585428
0.352000000000000146,-19.557857739653378815
0.353000000000000147,-19.651450551238653475
0.354000000000000148,-19.736968980896772763
0.355000000000000149,-19.814507157567934570
0.356000000000000150,-19.884158884636196518
0.357000000000000151,-19.946017895207322823
0.358000000000000151,-20.000178090107404216
0.359000000000000152,-20.046733758464291952
0.360000000000000153,-20.085779780835380848
0.361000000000000154,-20.117411814936996706
0.362000000000000155,-20.141726464115400574
0.363000000000000156,-20.158821428775784312
0.364000000000000157,-20.168795641053883116
0.365000000000000158,-20.171749383077674622
0.366000000000000159,-20.167784389219885810
0.367000000000000159,-20.157003932791440093
0.368000000000000160,-20.139512897667316338
0.369000000000000161,-20.115417835372589650
0.370000000000000162,-20.084827008187005504
0.371000000000000163,-20.047850418852085852
0.372000000000000164,-20.004599827484863539
0.373000000000000165,-19.955188756319152787
0.374000000000000166,-19.899732482906649977
0.375000000000000167,-19.838348022418152539
0.376000000000000167,-19.771154099690306793
0.377000000000000168,-19.698271111663707700
0.378000000000000169,-19.619821080856791440
0.379000000000000170,-19.535927600515559988
0.380000000000000171,-19.446715772071762274
0.381000000000000172,-19.352312135533445314
0.382000000000000173,-19.252844593420046948
0.383000000000000174,-19.148442328841902338
0.384000000000000175,-19.039235718308823664
0.385000000000000175,-18.925356239837068273
0.386000000000000176,-18.806936376906776331
0.387000000000000177,-18.684109518803630579
0.388000000000000178,-18.557009857860357727
0.389000000000000179,-18.425772284093067555
0.390000000000000180,-18.290532277708404507
0.391000000000000181,-18.151425799935978489
0.392000000000000182,-18.008589182620625024
0.393000000000000183,-17.862159016987135374
0.394000000000000183,-17.712272041969850278
0.395000000000000184,-17.559065032477892743
0.396000000000000185,-17.402674687945911103
0.397000000000000186,-17.243237521499754195
0.398000000000000187,-17.080889750045450626
0.399000000000000188,-16.915767185569951181
0.400000000000000189,-16.748005127922112933
0.401000000000000190,-16.577738259322739367
0.402000000000000191,-16.405100540833906564
0.403000000000000191,-16.230225110998539151
0.404000000000000192,-16.053244186844100483
0.405000000000000193,-15.874288967425730590
0.406000000000000194,-15.693489540068156884
0.407000000000000195,-15.510974789448999545
0.408000000000000196,-15.326872309650147130
0.409000000000000197,-15.141308319289146667
0.410000000000000198,-14.954407579828124852
0.411000000000000199,-14.766293317143251329
0.412000000000000199,-14.577087146425265374
0.413000000000000200,-14.386909000468653730
0.414000000000000201,-14.195877061394984509
0.415000000000000202,-14.004107695844606241
0.416000000000000203,-13.811715393660401574
0.417000000000000204,-13.618812710076582562
0.418000000000000205,-13.425510211416547435
0.419000000000000206,-13.231916424294515977
0.420000000000000207,-13.038137788306965348
0.421000000000000207,-12.844278612192917777
0.422000000000000208,-12.650441033433462934
0.423000000000000209,-12.456724981255565154
0.424000000000000210,-12.263228142997643744
0.425000000000000211,-12.070045933789351977
0.426000000000000212,-11.877271469492519884
0.427000000000000213,-11.684995542844937688
0.428000000000000214,-11.493306602745002820
0.429000000000000214,-11.302290736610355992
0.430000000000000215,-11.112031655740613800
0.431000000000000216,-10.922610683611106097
0.432000000000000217,-10.734106747021128214
0.433000000000000218,-10.546596370018392008
0.434000000000000219,-10.360153670518702285
0.435000000000000220,-10.174850359538460509
0.436000000000000221,-9.990755742955647278
0.437000000000000222,-9.807936725713947368
0.438000000000000222,-9.626457818383789444
0.439000000000000223,-9.446381145993088424
0.440000000000000224,-9.267766459040222671
0.441000000000000225,-9.090671146601291497
0.442000000000000226,-8.915150251444206475
0.443000000000000227,-8.741256487061463076
0.444000000000000228,-8.569040256534714572
0.445000000000000229,-8.398549673144128036
0.446000000000000230,-8.229830582636427749
0.447000000000000230,-8.062926587066531425
0.448000000000000231,-7.897879070128334789
0.449000000000000232,-7.734727223891388448
0.450000000000000233,-7.573508076861759086
0.451000000000000234,-7.414256523286013589
0.452000000000000235,-7.257005353619480736
0.453000000000000236,-7.101785286080561477
0.454000000000000237,-6.948624999215378573
0.455000000000000238,-6.797551165397772266
0.456000000000000238,-6.648588485192149733
0.457000000000000239,-6.501759722507746808
0.458000000000000240,-6.357085740475406865
0.459000000000000241,-6.214585537978911667
0.460000000000000242,-6.074276286775820211
0.461000000000000243,-5.936173369143587841
0.462000000000000244,-5.800290415989753257
0.463000000000000245,-5.666639345365652503
0.464000000000000246,-5.535230401326451499
0.465000000000000246,-5.406072193081095101
0.466000000000000247,-5.279171734378246938
0.467000000000000248,-5.154534483076217199
0.468000000000000249,-5.032164380846730900
0.469000000000000250,-4.912063892964246392
0.470000000000000251,-4.794234048134633497
0.471000000000000252,-4.678674478318654018
0.472000000000000253,-4.565383458507930925
0.473000000000000254,-4.454357946412474512
0.474000000000000254,-4.345593622021129754
0.475000000000000255,-4.239084926997709779
0.476000000000000256,-4.134825103877621366
0.477000000000000257,-4.032806235031482167
0.478000000000000258,-3.933019281363709929
0.479000000000000259,-3.835454120716123239
0.480000000000000260,-3.740099585947891825
0.481000000000000261,-3.646943502664881542
0.482000000000000262,-3.555972726573176423
0.483000000000000262,-3.467173180432818747
0.484000000000000263,-3.380529890589426767
0.485000000000000264,-3.296027023062851669
0.486000000000000265,-3.213647919173356460
0.487000000000000266,-3.133375130687194421
0.488000000000000267,-3.055190454464766781
0.489000000000000268,-2.979074966596042984
0.490000000000000269,-2.905009056008683643
0.491000000000000270,-2.832972457536251820
0.492000000000000270,-2.762944284434227793
0.493000000000000271,-2.694903060333476041
0.494000000000000272,-2.628826750621311881
0.495000000000000273,-2.564692793241614588
0.496000000000000274,-2.502478128906600041
0.497000000000000275,-2.442159230713405904
0.498000000000000276,-2.383712133160110547
0.499000000000000277,-2.327112460556282514
0.500000000000000222,-2.272335454824229384
0.501000000000000334,-2.219356002687961738
0.502000000000000224,-2.168148662247616265
0.503000000000000336,-2.118687688937738844
0.504000000000000226,-2.070947060868916445
0.505000000000000338,-2.024900503552383491
0.506000000000000227,-1.980521514008580564
0.507000000000000339,-1.937783384260492792
0.508000000000000229,-1.896659224213950834
0.509000000000000341,-1.857121983927006337
0.510000000000000231,-1.819144475271625483
0.511000000000000343,-1.782699392990779730
0.512000000000000233,-1.747759335155218752
0.513000000000000345,-1.714296823023968797
0.514000000000000234,-1.682284320313792936
0.515000000000000346,-1.651694251882278142
0.516000000000000236,-1.622499021830655197
0.517000000000000348,-1.594671031031967390
0.518000000000000238,-1.568182694090997975
0.519000000000000350,-1.543006455742476746
0.520000000000000240,-1.519114806694450648
0.521000000000000352,-1.496480298923993146
0.522000000000000242,-1.475075560432501209
0.523000000000000353,-1.454873309468324827
0.524000000000000243,-1.435846368224386049
0.525000000000000355,-1.417967676018869749
0.526000000000000245,-1.401210301967138028
0.527000000000000357,-1.385547457153069484
0.528000000000000247,-1.370952506308433794
0.529000000000000359,-1.357398979008671791
0.530000000000000249,-1.344860580393929084
0.531000000000000361,-1.333311201423965420
0.532000000000000250,-1.322724928675855338
0.533000000000000362,-1.313076053693337020
0.534000000000000252,-1.304339081896721764
0.535000000000000364,-1.296488741062503447
0.536000000000000254,-1.289499989381491130
0.537000000000000366,-1.283348023104599722
0.538000000000000256,-1.278008283785376786
0.539000000000000368,-1.273456465128181225
0.540000000000000258,-1.269668519451172095
0.541000000000000369,-1.266620663772993094
0.542000000000000259,-1.264289385532206822
0.543000000000000371,-1.262651447948379690
0.544000000000000261,-1.261683895033696379
0.545000000000000373,-1.261364056263991174
0.546000000000000263,-1.261669550917889238
0.547000000000000375,-1.262578292092857435
0.548000000000000265,-1.264068490406765166
0.549000000000000377,-1.266118657393525693
0.550000000000000266,-1.268707608601267633
0.551000000000000378,-1.271814466401532950
0.552000000000000268,-1.275418662517663781
0.553000000000000380,-1.279499940280728776
0.554000000000000270,-1.284038356621009402
0.555000000000000382,-1.289014283803071370
0.556000000000000272,-1.294408410912386120
0.557000000000000384,-1.300201745101165374
0.558000000000000274,-1.306375612601283986
0.559000000000000385,-1.312911659511640794
0.560000000000000275,-1.319791852367611762
0.561000000000000387,-1.326998478499821221
0.562000000000000277,-1.334514146189384132
0.563000000000000389,-1.342321784626955061
0.564000000000000279,-1.350404643682252992
0.565000000000000391,-1.358746293491170931
0.566000000000000281,-1.367330623866990891
0.567000000000000393,-1.376141843542457721
0.568000000000000282,-1.385164479249104463
0.569000000000000394,-1.394383374640202344
0.570000000000000284,-1.403783689063495377
0.571000000000000396,-1.413350896189958572
0.572000000000000286,-1.423070782504388010
0.573000000000000398,-1.432929445663743806
0.574000000000000288,-1.442913292728923436
0.575000000000000400,-1.453009038275673515
0.576000000000000290,-1.463203702389844540
0.577000000000000401,-1.473484608552646291
0.578000000000000291,-1.483839381420872572
0.579000000000000403,-1.494255944507278500
0.580000000000000293,-1.504722517766098111
0.581000000000000405,-1.515227615088536428
0.582000000000000295,-1.525760041712891590
0.583000000000000407,-1.536308891554061029
0.584000000000000297,-1.546863544456721806
0.585000000000000409,-1.557413663376807644
0.586000000000000298,-1.567949191495242367
0.587000000000000410,-1.578460349268385965
0.588000000000000300,-1.588937631418937624
0.589000000000000412,-1.599371803871423747
0.590000000000000302,-1.609753900635916057
0.591000000000000414,-1.620075220643891312
0.592000000000000304,-1.630327324539529332
0.593000000000000416,-1.640502031430204344
0.594000000000000306,-1.650591415599427680
0.595000000000000417,-1.660587803185528788
0.596000000000000307,-1.670483768829236437
0.597000000000000419,-1.680272132293325171
0.598000000000000309,-1.689945955057257310
0.599000000000000421,-1.699498536889619160
0.600000000000000311,-1.708923412401338382
0.601000000000000423,-1.718214347582238899
0.602000000000000313,-1.727365336323557488
0.603000000000000425,-1.736370596929007304
0.604000000000000314,-1.745224568616793537
0.605000000000000426,-1.753921908014896003
0.606000000000000316,-1.762457485651947708
0.607000000000000428,-1.770826382445827907
0.608000000000000318,-1.779023886192157233
0.609000000000000430,-1.787045488054636255
0.610000000000000320,-1.794886879059214069
0.611000000000000432,-1.802543946594003188
0.612000000000000322,-1.810012770916622049
0.613000000000000433,-1.817289621670852284
0.614000000000000323,-1.824370954414127555
0.615000000000000435,-1.831253407157560797
0.616000000000000325,-1.837933796919898111
0.617000000000000437,-1.844409116297023532
0.618000000000000327,-1.850676530048265489
0.619000000000000439,-1.856733371700900914
0.620000000000000329,-1.862577140174125789
0.621000000000000441,-1.868205496423716694
0.622000000000000330,-1.873616260108477816
0.623000000000000442,-1.878807406279673131
0.624000000000000332,-1.883777062094347032
0.625000000000000444,-1.888523503553707128
0.626000000000000334,-1.893045152267315956
0.627000000000000446,-1.897340572244134105
0.628000000000000336,-1.901408466711153933
0.629000000000000448,-1.905247674960493409
0.630000000000000338,-1.908857169225602446
0.631000000000000449,-1.912236051587420604
0.632000000000000339,-1.915383550910966903
0.633000000000000451,-1.918299019813157757
0.634000000000000341,-1.920981931662260944
0.635000000000000453,-1.923431877609719676
0.636000000000000343,-1.925648563654560830
0.637000000000000455,-1.927631807741184478
0.638000000000000345,-1.929381536890646842
0.639000000000000457,-1.930897784366036429
0.640000000000000346,-1.932180686872197573
0.641000000000000458,-1.933230481790149557
0.642000000000000348,-1.934047504446477550
0.643000000000000460,-1.934632185417989758
0.644000000000000350,-1.934985047871797592
0.645000000000000462,-1.935106704941121691
0.646000000000000352,-1.934997857136880217
0.647000000000000464,-1.934659289795296999
0.648000000000000353,-1.934091870561620796
0.649000000000000465,-1.933296546910024727
0.650000000000000355,-1.932274343699790453
0.651000000000000467,-1.931026360767794214
0.652000000000000357,-1.929553770557388193
0.653000000000000469,-1.927857815783559969
0.654000000000000359,-1.925939807134507520
0.655000000000000471,-1.923801121009437676
0.656000000000000361,-1.921443197292674210
0.657000000000000473,-1.918867537163891468
0.658000000000000362,-1.916075700944465776
0.659000000000000474,-1.913069305979780976
0.660000000000000364,-1.909850024557396608
