# AlFCC110UCD_CYSSCA-JS
# h[nm],U(h)[kJ/mol]
0.149999999999999994,106.904868063239902654
0.150999999999999995,103.777268683210678546
0.151999999999999996,101.770046567494361511
0.152999999999999997,100.004021947473702880
0.153999999999999998,98.172500212693222466
0.154999999999999999,96.228408825307809593
0.156000000000000000,94.219985163434856190
0.157000000000000001,92.211967373658907832
0.158000000000000002,90.253707456986788316
0.159000000000000002,88.371252712024926268
0.160000000000000003,86.570245531431098129
0.161000000000000004,84.842505412140809540
0.162000000000000005,83.172739461266274930
0.163000000000000006,81.543877732627748856
0.164000000000000007,79.940635559559112266
0.165000000000000008,78.351446053878987641
0.166000000000000009,76.769122656202469557
0.167000000000000010,75.190653231810841817
0.168000000000000010,73.616483586360203617
0.169000000000000011,72.049571434107420487
0.170000000000000012,70.494410114519098443
0.171000000000000013,68.956148642369683444
0.172000000000000014,67.439876478690422346
0.173000000000000015,65.950098547107188551
0.174000000000000016,64.490396968509088538
0.175000000000000017,63.063258255443237488
0.176000000000000018,61.670035615244572114
0.177000000000000018,60.311013090725431596
0.178000000000000019,58.985539443927073933
0.179000000000000020,57.692203325455906793
0.180000000000000021,56.429026148684442887
0.181000000000000022,55.193654343814145591
0.182000000000000023,53.983537733271063530
0.183000000000000024,52.796085305184796255
0.184000000000000025,51.628793490909700381
0.185000000000000026,50.479345118319130847
0.186000000000000026,49.345679535496437040
0.187000000000000027,48.226036047631588133
0.188000000000000028,47.118973876844783888
0.189000000000000029,46.023372443239892959
0.190000000000000030,44.938415977611029462
0.191000000000000031,43.863566406080913396
0.192000000000000032,42.798528177385058768
0.193000000000000033,41.743208304428769395
0.194000000000000034,40.697674419912239330
0.195000000000000034,39.662113145618903332
0.196000000000000035,38.636790579642948273
0.197000000000000036,37.622016239022173067
0.198000000000000037,36.618111372550842475
0.199000000000000038,35.625382189102381858
0.200000000000000039,34.644098234659161051
0.201000000000000040,33.674475896680178266
0.202000000000000041,32.716666814946869124
0.203000000000000042,31.770750829272184745
0.204000000000000042,30.836732990950594058
0.205000000000000043,29.914544100511143654
0.206000000000000044,29.004044202993053858
0.207000000000000045,28.105028467545281501
0.208000000000000046,27.217234894974787096
0.209000000000000047,26.340353329771414082
0.210000000000000048,25.474035297545743362
0.211000000000000049,24.617904240786934622
0.212000000000000050,23.771565782050920745
0.213000000000000050,22.934617701402913781
0.214000000000000051,22.106659371979155537
0.215000000000000052,21.287300452227761127
0.216000000000000053,20.476168684498212258
0.217000000000000054,19.672916696314977969
0.218000000000000055,18.877227742356989637
0.219000000000000056,18.088820361602717668
0.220000000000000057,17.307451955227218576
0.221000000000000058,16.532921316775787801
0.222000000000000058,15.765070167115050381
0.223000000000000059,15.003783763021754538
0.224000000000000060,14.248990660397129915
0.225000000000000061,13.500661721429404238
0.226000000000000062,12.758808460016254571
0.227000000000000063,12.023480821854931833
0.228000000000000064,11.294764495251463643
0.229000000000000065,10.572777846308440530
0.230000000000000066,9.857668568118958419
0.231000000000000066,9.149610128276908227
0.232000000000000067,8.448798092740112509
0.233000000000000068,7.755446397137324865
0.234000000000000069,7.069783629247778478
0.235000000000000070,6.392049378818422056
0.236000000000000071,5.722490703304822901
0.237000000000000072,5.061358750676162366
0.238000000000000073,4.408905573240010867
0.239000000000000073,3.765381159614683781
0.240000000000000074,3.131030705576365314
0.241000000000000075,2.506092138594683938
0.242000000000000076,1.890793905472212044
0.243000000000000077,1.285353027643465040
0.244000000000000078,0.689973424372892663
0.245000000000000079,0.104844500312885017
0.246000000000000080,-0.469860009368982312
0.247000000000000081,-1.033982945834875267
0.248000000000000081,-1.587384397205985564
0.249000000000000082,-2.129942146613257314
0.250000000000000111,-2.661551912718523649
0.251000000000000112,-3.182127398787021999
0.252000000000000113,-3.691600167084062800
0.253000000000000114,-4.189919355750374663
0.254000000000000115,-4.677051255425439535
0.255000000000000115,-5.152978762762524312
0.256000000000000116,-5.617700727652199078
0.257000000000000117,-6.071231210470555695
0.258000000000000118,-6.513598665023941692
0.259000000000000119,-6.944845062102031008
0.260000000000000120,-7.365024967699407732
0.261000000000000121,-7.774204589044353853
0.262000000000000122,-8.172460800604827824
0.263000000000000123,-8.559880161241176566
0.264000000000000123,-8.936557932661562731
0.265000000000000124,-9.302597108321226216
0.266000000000000125,-9.658107460904339803
0.267000000000000126,-10.003204615546376743
0.268000000000000127,-10.338009155005751794
0.269000000000000128,-10.662645762080778411
0.270000000000000129,-10.977242403699962736
0.271000000000000130,-11.281929560293303183
0.272000000000000131,-11.576839503282394972
0.273000000000000131,-11.862105622811494499
0.274000000000000132,-12.137861807180247098
0.275000000000000133,-12.404241874832559134
0.276000000000000134,-12.661379059205469133
0.277000000000000135,-12.909405546244212104
0.278000000000000136,-13.148452063946923118
0.279000000000000137,-13.378647522909384193
0.280000000000000138,-13.600118706497303478
0.281000000000000139,-13.812990008977873657
0.282000000000000139,-14.017383219690898954
0.283000000000000140,-14.213417351130573252
0.284000000000000141,-14.401208508638749350
0.285000000000000142,-14.580869799277341059
0.286000000000000143,-14.752511277347380769
0.287000000000000144,-14.916239923953142466
0.288000000000000145,-15.072159657969626423
0.289000000000000146,-15.220371375755259891
0.290000000000000147,-15.360973016960244308
0.291000000000000147,-15.494059653807942922
0.292000000000000148,-15.619723601273213021
0.293000000000000149,-15.738054545642402360
0.294000000000000150,-15.849139689015126820
0.295000000000000151,-15.953063907394257726
0.296000000000000152,-16.049909920106617989
0.297000000000000153,-16.139758468400714264
0.298000000000000154,-16.222688501178339493
0.299000000000000155,-16.298777365931190531
0.300000000000000155,-16.368101003072563771
0.301000000000000156,-16.430734141974010498
0.302000000000000157,-16.486750497138878302
0.303000000000000158,-16.536222963065579705
0.304000000000000159,-16.579223806474665537
0.305000000000000160,-16.615824854692078816
0.306000000000000161,-16.646097679098346589
0.307000000000000162,-16.670113772666823593
0.308000000000000163,-16.687944720724296133
0.309000000000000163,-16.699662364174201912
0.310000000000000164,-16.705338954524563633
0.311000000000000165,-16.705047300160664747
0.312000000000000166,-16.698860903395612354
0.313000000000000167,-16.686854087920050205
0.314000000000000168,-16.669102116355432486
0.315000000000000169,-16.645681297693450063
0.316000000000000170,-16.616669084477369012
0.317000000000000171,-16.582144159648709802
0.318000000000000171,-16.542186513045951557
0.319000000000000172,-16.496877507599773338
0.320000000000000173,-16.446299935322578278
0.321000000000000174,-16.390538063238217603
0.322000000000000175,-16.329677669442069998
0.323000000000000176,-16.263806069520533981
0.324000000000000177,-16.193012133594489654
0.325000000000000178,-16.117386294281811132
0.326000000000000179,-16.037020545901775392
0.327000000000000179,-15.952008435266851194
0.328000000000000180,-15.862445044427570195
0.329000000000000181,-15.768426965752974311
0.330000000000000182,-15.670052269741551854
0.331000000000000183,-15.567420465969339816
0.332000000000000184,-15.460632457588252109
0.333000000000000185,-15.349790489793869952
0.334000000000000186,-15.234998092684037374
0.335000000000000187,-15.116360018930558695
0.336000000000000187,-14.993982176684834684
0.337000000000000188,-14.867971558134845722
0.338000000000000189,-14.738436164126330397
0.339000000000000190,-14.605484925254433648
0.340000000000000191,-14.469227619824181374
0.341000000000000192,-14.329774789069777086
0.342000000000000193,-14.187237650011841339
0.343000000000000194,-14.041728006321770650
0.344000000000000195,-13.893358157549707599
0.345000000000000195,-13.742240807060966290
0.346000000000000196,-13.588488969012232133
0.347000000000000197,-13.432215874685477175
0.348000000000000198,-13.273534878484028354
0.349000000000000199,-13.112559363880398777
0.350000000000000200,-12.949402649591934988
0.351000000000000201,-12.784177896245058292
0.352000000000000202,-12.616998013774974652
0.353000000000000203,-12.447975569792889772
0.354000000000000203,-12.277222699138302886
0.355000000000000204,-12.104851014819670851
0.356000000000000205,-11.930971520532606789
0.357000000000000206,-11.755694524930774492
0.358000000000000207,-11.579129557810782458
0.359000000000000208,-11.401385288359360715
0.360000000000000209,-11.222569445597523341
0.361000000000000210,-11.042788741144105913
0.362000000000000210,-10.862148794408330588
0.363000000000000211,-10.680754060309281428
0.364000000000000212,-10.498707759608615575
0.365000000000000213,-10.316111811931381936
0.366000000000000214,-10.133066771539450457
0.367000000000000215,-9.949671765911460852
0.368000000000000216,-9.766024437173493666
0.369000000000000217,-9.582220886415216299
0.370000000000000218,-9.398355620917302033
0.371000000000000218,-9.214521504307288780
0.372000000000000219,-9.030809709653171424
0.373000000000000220,-8.847309675496173753
0.374000000000000221,-8.664109064817187900
0.375000000000000222,-8.481293726924278076
0.376000000000000223,-8.298947662242603940
0.377000000000000224,-8.117152989982061584
0.378000000000000225,-7.935989918652325059
0.379000000000000226,-7.755536719390002887
0.380000000000000226,-7.575869702057798527
0.381000000000000227,-7.397063194071085590
0.382000000000000228,-7.219189521903510709
0.383000000000000229,-7.042318995219465805
0.384000000000000230,-6.866519893577733846
0.385000000000000231,-6.691858455648111992
0.386000000000000232,-6.518398870879600793
0.387000000000000233,-6.346203273556685787
0.388000000000000234,-6.175331739177991608
0.389000000000000234,-6.005842283089884326
0.390000000000000235,-5.837790861305830248
0.391000000000000236,-5.671231373441342427
0.392000000000000237,-5.506215667692777593
0.393000000000000238,-5.342793547787967334
0.394000000000000239,-5.181012781835496739
0.395000000000000240,-5.020919112999406408
0.396000000000000241,-4.862556271925619455
0.397000000000000242,-4.705965990846346259
0.398000000000000242,-4.551188019288945341
0.399000000000000243,-4.398260141315892824
0.400000000000000244,-4.247218194222664778
0.401000000000000245,-4.098096088621529631
0.402000000000000246,-3.950925829839110115
0.403000000000000247,-3.805737540556880738
0.404000000000000248,-3.662559484624529293
0.405000000000000249,-3.521418091977020826
0.406000000000000250,-3.382337984587293622
0.407000000000000250,-3.245342003387801100
0.408000000000000251,-3.110451236095076677
0.409000000000000252,-2.977685045873173397
0.410000000000000253,-2.847061100772774633
0.411000000000000254,-2.718595403884541017
0.412000000000000255,-2.592302324146471548
0.413000000000000256,-2.468194627746702174
0.414000000000000257,-2.346283510064576028
0.415000000000000258,-2.226578628094542101
0.416000000000000258,-2.109088133298821610
0.417000000000000259,-1.993818704836616718
0.418000000000000260,-1.880775583119058236
0.419000000000000261,-1.769962603640790944
0.420000000000000262,-1.661382231040844148
0.421000000000000263,-1.555035593346840050
0.422000000000000264,-1.450922516358525316
0.423000000000000265,-1.349041558127828555
0.424000000000000266,-1.249390043494904123
0.425000000000000266,-1.151964098640477330
0.426000000000000267,-1.056758685617072535
0.427000000000000268,-0.963767636822865148
0.428000000000000269,-0.872983689383673322
0.429000000000000270,-0.784398519410134165
0.430000000000000271,-0.698002776098496147
0.431000000000000272,-0.613786115645174712
0.432000000000000273,-0.531737234946523030
0.433000000000000274,-0.451843905056850847
0.434000000000000274,-0.374093004378976746
0.435000000000000275,-0.298470551563245423
0.436000000000000276,-0.224961738092067431
0.437000000000000277,-0.153550960528470393
0.438000000000000278,-0.084221852408513237
0.439000000000000279,-0.016957315758592585
0.440000000000000280,0.048260447780076390
0.441000000000000281,0.111449906236283189
0.442000000000000282,0.172630167018213376
0.443000000000000282,0.231820947061743748
0.444000000000000283,0.289042543430518384
0.445000000000000284,0.344315804379945689
0.446000000000000285,0.397662100896148840
0.447000000000000286,0.449103298719597199
0.448000000000000287,0.498661730862701102
0.449000000000000288,0.546360170629205832
0.450000000000000289,0.592221805142690405
0.451000000000000290,0.636270209390381147
0.452000000000000290,0.678529320787746748
0.453000000000000291,0.719023414268553429
0.454000000000000292,0.757777077904174146
0.455000000000000293,0.794815189055381288
0.456000000000000294,0.830162891058922270
0.457000000000000295,0.863845570450715527
0.458000000000000296,0.895888834726656036
0.459000000000000297,0.926318490641574677
0.460000000000000298,0.955160523046117538
0.461000000000000298,0.982441074260926195
0.462000000000000299,1.008186423986800140
0.463000000000000300,1.032422969749153374
0.464000000000000301,1.055177207874458123
0.465000000000000302,1.076475714995978938
0.466000000000000303,1.096345130085695008
0.467000000000000304,1.114812137008846182
0.468000000000000305,1.131903447597054857
0.469000000000000306,1.147645785235885008
0.470000000000000306,1.162065868962029791
0.471000000000000307,1.175190398065232067
0.472000000000000308,1.187046037189621872
0.473000000000000309,1.197659401928935274
0.474000000000000310,1.207057044909747523
0.475000000000000311,1.215265442356705972
0.476000000000000312,1.222310981133384766
0.477000000000000313,1.228219946252379735
0.478000000000000314,1.233018508847846473
0.479000000000000314,1.236732714603637984
0.480000000000000315,1.239388472630078342
0.481000000000000316,1.241011544782097964
0.482000000000000317,1.241627535411547356
0.483000000000000318,1.241261881546180446
0.484000000000000319,1.239939843487879667
0.485000000000000320,1.237686495822416965
0.486000000000000321,1.234526718833201642
0.487000000000000322,1.230485190311165322
0.488000000000000322,1.225586377753053791
0.489000000000000323,1.219854530940254644
0.490000000000000324,1.213313674890325489
0.491000000000000325,1.205987603173299672
0.492000000000000326,1.197899871584897413
0.493000000000000327,1.189073792168738652
0.494000000000000328,1.179532427579599529
0.495000000000000329,1.169298585779947386
0.496000000000000330,1.158394815061731808
0.497000000000000330,1.146843399385752305
0.498000000000000331,1.134666354030663626
0.499000000000000332,1.121885421543981298
0.500000000000000333,1.108522067987248061
0.501000000000000334,1.094597479467817269
0.502000000000000335,1.080132558949568278
0.503000000000000336,1.065147923335061364
0.504000000000000337,1.049663900811646844
0.505000000000000338,1.033700528454124301
0.506000000000000338,1.017277550076647774
0.507000000000000339,1.000414414326623369
0.508000000000000340,0.983130273013452793
0.509000000000000341,0.965443979665053242
0.510000000000000342,0.947374088305166007
0.511000000000000343,0.928938852444593843
0.512000000000000344,0.910156224279546344
0.513000000000000345,0.891043854090439624
0.514000000000000346,0.871619089834510086
0.515000000000000346,0.851898976925820173
0.516000000000000347,0.831900258196218823
0.517000000000000348,0.811639374030986405
0.518000000000000349,0.791132462673003856
0.519000000000000350,0.770395360689414388
0.520000000000000351,0.749443603594700969
0.521000000000000352,0.728292426624503553
0.522000000000000353,0.706956765654280117
0.523000000000000353,0.685451258257292251
0.524000000000000354,0.663790244896353077
0.525000000000000355,0.641987770243900413
0.526000000000000356,0.620057584625202218
0.527000000000000357,0.598013145579383121
0.528000000000000358,0.575867619533292574
0.529000000000000359,0.553633883583209641
0.530000000000000360,0.531324527379548051
0.531000000000000361,0.508951855109800233
0.532000000000000361,0.486527887575111062
0.533000000000000362,0.464064364355922188
0.534000000000000363,0.441572746062310451
0.535000000000000364,0.419064216664675915
0.536000000000000365,0.396549685900580540
0.537000000000000366,0.374039791753665252
0.538000000000000367,0.351544903000603592
0.539000000000000368,0.329075121822240468
0.540000000000000369,0.306640286475103607
0.541000000000000369,0.284249974019608609
0.542000000000000370,0.261913503101354972
0.543000000000000371,0.239639936782050089
0.544000000000000372,0.217438085416620824
0.545000000000000373,0.195316509573269542
0.546000000000000374,0.173283522993232408
0.547000000000000375,0.151347195587141575
0.548000000000000376,0.129515356464969755
0.549000000000000377,0.107795596996644955
0.550000000000000377,0.086195273900488020
0.551000000000000378,0.064721512356687438
0.552000000000000379,0.043381209143241325
0.553000000000000380,0.022181035791652225
0.554000000000000381,0.001127441760007253
0.555000000000000382,-0.019773342379056390
0.556000000000000383,-0.040515301737804731
0.557000000000000384,-0.061092633902520579
0.558000000000000385,-0.081499745714491770
0.559000000000000385,-0.101731250044969995
0.560000000000000386,-0.121781962566065952
0.561000000000000387,-0.141646898519649012
0.562000000000000388,-0.161321269486029928
0.563000000000000389,-0.180800480154323290
0.564000000000000390,-0.200080125096168959
0.565000000000000391,-0.219155985544543880
0.566000000000000392,-0.238024026179258108
0.567000000000000393,-0.256680391920670381
0.568000000000000393,-0.275121404733146169
0.569000000000000394,-0.293343560439673079
0.570000000000000395,-0.311343525548960554
0.571000000000000396,-0.329118134096410220
0.572000000000000397,-0.346664384500152412
0.573000000000000398,-0.363979436433358283
0.574000000000000399,-0.381060607713981370
0.575000000000000400,-0.397905371213017889
0.576000000000000401,-0.414511351782313575
0.577000000000000401,-0.430876323202921463
0.578000000000000402,-0.446998205154954475
0.579000000000000403,-0.462875060209796019
0.580000000000000404,-0.478505090845559811
0.581000000000000405,-0.493886636486567998
0.582000000000000406,-0.509018170567622885
0.583000000000000407,-0.523898297623795139
0.584000000000000408,-0.538525750406377957
0.585000000000000409,-0.552899387025653888
0.586000000000000409,-0.567018188121117261
0.587000000000000410,-0.580881254059618657
0.588000000000000411,-0.594487802162031675
0.589000000000000412,-0.607837163958912852
0.590000000000000413,-0.620928782475567487
0.591000000000000414,-0.633762209546988253
0.592000000000000415,-0.646337103163033833
0.593000000000000416,-0.658653224844189866
0.594000000000000417,-0.670710437048272268
0.595000000000000417,-0.682508700608315921
0.596000000000000418,-0.694048072201977284
0.597000000000000419,-0.705328701852629081
0.598000000000000420,-0.716350830462421984
0.599000000000000421,-0.727114787377430072
0.600000000000000422,-0.737620987985119991
0.601000000000000423,-0.747869931344209093
0.602000000000000424,-0.757862197847078867
0.603000000000000425,-0.767598446914829813
0.604000000000000425,-0.777079414725018403
0.605000000000000426,-0.786305911972148053
0.606000000000000427,-0.795278821660982849
0.607000000000000428,-0.803999096932586532
0.608000000000000429,-0.812467758923254957
0.609000000000000430,-0.820685894656095982
0.610000000000000431,-0.828654654965442439
0.611000000000000432,-0.836375252453875229
0.612000000000000433,-0.843848959481830696
0.613000000000000433,-0.851077106189777388
