# AlFCC110UCD_GLUSCA-JS
# h[nm],U(h)[kJ/mol]
0.200000000000000011,77.317313712702784301
0.201000000000000012,75.574177809878875678
0.202000000000000013,74.123836806796390420
0.203000000000000014,72.823179447119429142
0.204000000000000015,71.587108514139046633
0.205000000000000016,70.368610802009399663
0.206000000000000016,69.144855238633766703
0.207000000000000017,67.907666695475896290
0.208000000000000018,66.657142899096839983
0.209000000000000019,65.397501093707148812
0.210000000000000020,64.134482766865403391
0.211000000000000021,62.873826800746293486
0.212000000000000022,61.620457799402608146
0.213000000000000023,60.378137880416701933
0.214000000000000024,59.149405266931715630
0.215000000000000024,57.935678019203635358
0.216000000000000025,56.737441158938295871
0.217000000000000026,55.554464061657178320
0.218000000000000027,54.386015220520469882
0.219000000000000028,53.231055522661200996
0.220000000000000029,52.088400693046345680
0.221000000000000030,50.956849805546454490
0.222000000000000031,49.835280674368263476
0.223000000000000032,48.722715217875162352
0.224000000000000032,47.618359044009864078
0.225000000000000033,46.521619915986789806
0.226000000000000034,45.432109687981395041
0.227000000000000035,44.349633944355062454
0.228000000000000036,43.274173065602987265
0.229000000000000037,42.205857870094057205
0.230000000000000038,41.144942402088645395
0.231000000000000039,40.091775890440345620
0.232000000000000040,39.046775409984704197
0.233000000000000040,38.010400349126840069
0.234000000000000041,36.983129425428629133
0.235000000000000042,35.965440694170823122
0.236000000000000043,34.957794758126340184
0.237000000000000044,33.960621203747244579
0.238000000000000045,32.974308152581315312
0.239000000000000046,31.999194719869155534
0.240000000000000047,31.035566108121848572
0.241000000000000048,30.083651025797166767
0.242000000000000048,29.143621104399102251
0.243000000000000049,28.215591986570302652
0.244000000000000050,27.299625768896788713
0.245000000000000051,26.395734502733358084
0.246000000000000052,25.503884481562739239
0.247000000000000053,24.624001071930770479
0.248000000000000054,23.755973875067425638
0.249000000000000055,22.899662036528912523
0.250000000000000056,22.054899550555152388
0.251000000000000056,21.221500433595082313
0.252000000000000057,20.399263667116212417
0.253000000000000058,19.587977833081374968
0.254000000000000059,18.787425386190935939
0.255000000000000060,17.997386525119196676
0.256000000000000061,17.217642640569685852
0.257000000000000062,16.447979331150207827
0.258000000000000063,15.688188988984183680
0.259000000000000064,14.938072965815546667
0.260000000000000064,14.197443337331867141
0.261000000000000065,13.466124288733752223
0.262000000000000066,12.743953148419462806
0.263000000000000067,12.030781099236062204
0.264000000000000068,11.326473598255867969
0.265000000000000069,10.630910536644886832
0.266000000000000070,9.943986171059847834
0.267000000000000071,9.265608857281842248
0.268000000000000071,8.595700615599707106
0.269000000000000072,7.934196555904327042
0.270000000000000073,7.281044188644709259
0.271000000000000074,6.636202645812542933
0.272000000000000075,5.999641834032403587
0.273000000000000076,5.371341539701680823
0.274000000000000077,4.751290503993751635
0.275000000000000078,4.139485483450023651
0.276000000000000079,3.535930309872502342
0.277000000000000079,2.940634961309088968
0.278000000000000080,2.353614654120880001
0.279000000000000081,1.774888964440059169
0.280000000000000082,1.204480985781489766
0.281000000000000083,0.642416528159582612
0.282000000000000084,0.088723362788502763
0.283000000000000085,-0.456569484695974193
0.284000000000000086,-0.993432390565313517
0.285000000000000087,-1.521835737833751923
0.286000000000000087,-2.041750469324608019
0.287000000000000088,-2.553148589347828512
0.288000000000000089,-3.056003614923207490
0.289000000000000090,-3.550290977944560833
0.290000000000000091,-4.035988380053198377
0.291000000000000092,-4.513076102286993851
0.292000000000000093,-4.981537271797778388
0.293000000000000094,-5.441358088095403112
0.294000000000000095,-5.892528011387546449
0.295000000000000095,-6.335039915648653874
0.296000000000000096,-6.768890209073061826
0.297000000000000097,-7.194078924555793897
0.298000000000000098,-7.610609782802205459
0.299000000000000099,-8.018490230602026259
0.300000000000000100,-8.417731456716694538
0.301000000000000101,-8.808348387728022644
0.302000000000000102,-9.190359666081208800
0.303000000000000103,-9.563787612433912955
0.304000000000000103,-9.928658174292980476
0.305000000000000104,-10.285000862788987064
0.306000000000000105,-10.632848679304492734
0.307000000000000106,-10.972238033538577184
0.308000000000000107,-11.303208654458552829
0.309000000000000108,-11.625803495461124015
0.310000000000000109,-11.940068634941454206
0.311000000000000110,-12.246053173347965171
0.312000000000000111,-12.543809127688595240
0.313000000000000111,-12.833391324344967543
0.314000000000000112,-13.114857290950297397
0.315000000000000113,-13.388267147992127803
0.316000000000000114,-13.653683500712531895
0.317000000000000115,-13.911171331797296702
0.318000000000000116,-14.160797895270572866
0.319000000000000117,-14.402632611943378294
0.320000000000000118,-14.636746966701778661
0.321000000000000119,-14.863214407865218192
0.322000000000000119,-15.082110248794572627
0.323000000000000120,-15.293511571884803146
0.324000000000000121,-15.497497135037884064
0.325000000000000122,-15.694147280676318701
0.326000000000000123,-15.883543847327624476
0.327000000000000124,-16.065770083783938560
0.328000000000000125,-16.240910565818847289
0.329000000000000126,-16.409051115424688305
0.330000000000000127,-16.570278722518299475
0.331000000000000127,-16.724681469050690197
0.332000000000000128,-16.872348455446065429
0.333000000000000129,-17.013369729288651655
0.334000000000000130,-17.147836216169711321
0.335000000000000131,-17.275839652604641827
0.336000000000000132,-17.397472520926982043
0.337000000000000133,-17.512827986066842101
0.338000000000000134,-17.621999834121680806
0.339000000000000135,-17.725082412628729855
0.340000000000000135,-17.822170572451963011
0.341000000000000136,-17.913359611199371813
0.342000000000000137,-17.998745218090412834
0.343000000000000138,-18.078423420198024729
0.344000000000000139,-18.152490529994629753
0.345000000000000140,-18.221043094136142315
0.346000000000000141,-18.284177843423655929
0.347000000000000142,-18.341991643887446628
0.348000000000000143,-18.394581448943288393
0.349000000000000143,-18.442044252576451413
0.350000000000000144,-18.484477043513489747
0.351000000000000145,-18.521976760347158120
0.352000000000000146,-18.554640247584540447
0.353000000000000147,-18.582564212592608044
0.354000000000000148,-18.605845183420363753
0.355000000000000149,-18.624579467480010919
0.356000000000000150,-18.638863111073884937
0.357000000000000151,-18.648791859757089640
0.358000000000000151,-18.654461119528740198
0.359000000000000152,-18.655965918848075091
0.360000000000000153,-18.653400871473763800
0.361000000000000154,-18.646860140127291317
0.362000000000000155,-18.636437400983233204
0.363000000000000156,-18.622225808990926055
0.364000000000000157,-18.604317964033374011
0.365000000000000158,-18.582805877930912430
0.366000000000000159,-18.557780942297327442
0.367000000000000159,-18.529333897257593833
0.368000000000000160,-18.497554801036450556
0.369000000000000161,-18.462533000427590935
0.370000000000000162,-18.424357102153081200
0.371000000000000163,-18.383114945123026018
0.372000000000000164,-18.338893573604700293
0.373000000000000165,-18.291779211310512210
0.374000000000000166,-18.241857236413459020
0.375000000000000167,-18.189212157498026556
0.376000000000000167,-18.133927590453961187
0.377000000000000168,-18.076086236319447664
0.378000000000000169,-18.015769860079267062
0.379000000000000170,-17.953059270422752292
0.380000000000000171,-17.888034300465029958
0.381000000000000172,-17.820773789434365852
0.382000000000000173,-17.751355565326850439
0.383000000000000174,-17.679856428529102885
0.384000000000000175,-17.606352136407977582
0.385000000000000175,-17.530917388865425721
0.386000000000000176,-17.453625814855506349
0.387000000000000177,-17.374549959859059811
0.388000000000000178,-17.293761274310945453
0.389000000000000179,-17.211330102973086298
0.390000000000000180,-17.127325675245693049
0.391000000000000181,-17.041816096408073378
0.392000000000000182,-16.954868339779139319
0.393000000000000183,-16.866548239786791186
0.394000000000000183,-16.776920485934446958
0.395000000000000184,-16.686048617651998427
0.396000000000000185,-16.593995020017477060
0.397000000000000186,-16.500820920334998476
0.398000000000000187,-16.406586385553765695
0.399000000000000188,-16.311350320511920131
0.400000000000000189,-16.215170466988574560
0.401000000000000190,-16.118103403546573560
0.402000000000000191,-16.020204546147979840
0.403000000000000191,-15.921528149523567208
0.404000000000000192,-15.822127309277373541
0.405000000000000193,-15.722053964706542928
0.406000000000000194,-15.621358902316606176
0.407000000000000195,-15.520091760011837323
0.408000000000000196,-15.418301031939867229
0.409000000000000197,-15.316034073969802876
0.410000000000000198,-15.213337109782605339
0.411000000000000199,-15.110255237552298269
0.412000000000000199,-15.006832437196630181
0.413000000000000200,-14.903111578175630925
0.414000000000000201,-14.799134427816365900
0.415000000000000202,-14.694941660142182727
0.416000000000000203,-14.590572865185071905
0.417000000000000204,-14.486066558759258527
0.418000000000000205,-14.381460192674826004
0.419000000000000206,-14.276790165369902752
0.420000000000000207,-14.172091832940168388
0.421000000000000207,-14.067399520544887181
0.422000000000000208,-13.962746534168392287
0.423000000000000209,-13.858165172716701008
0.424000000000000210,-13.753686740428927138
0.425000000000000211,-13.649341559583334060
0.426000000000000212,-13.545158983478554404
0.427000000000000213,-13.441167409670459421
0.428000000000000214,-13.337394293445649751
0.429000000000000214,-13.233866161513017090
0.430000000000000215,-13.130608625894888419
0.431000000000000216,-13.027646398000086947
0.432000000000000217,-12.925003302861165722
0.433000000000000218,-12.822702293518872807
0.434000000000000219,-12.720765465537091643
0.435000000000000220,-12.619214071632077534
0.436000000000000221,-12.518068536400118518
0.437000000000000222,-12.417348471128224929
0.438000000000000222,-12.317072688673013303
0.439000000000000223,-12.217259218393234477
0.440000000000000224,-12.117925321121923332
0.441000000000000225,-12.019087504164584601
0.442000000000000226,-11.920761536310404693
0.443000000000000227,-11.822962462843623399
0.444000000000000228,-11.725704620543059065
0.445000000000000229,-11.629001652657908750
0.446000000000000230,-11.532866523848497309
0.447000000000000230,-11.437311535081224889
0.448000000000000231,-11.342348338467182600
0.449000000000000232,-11.247987952034446124
0.450000000000000233,-11.154240774424650340
0.451000000000000234,-11.061116599504483560
0.452000000000000235,-10.968624630883658355
0.453000000000000236,-10.876773496330807589
0.454000000000000237,-10.785571262079734822
0.455000000000000238,-10.695025447018242204
0.456000000000000238,-10.605143036752718189
0.457000000000000239,-10.515930497541580380
0.458000000000000240,-10.427393790091533887
0.459000000000000241,-10.339538383210340911
0.460000000000000242,-10.252369267310932344
0.461000000000000243,-10.165890967761319175
0.462000000000000244,-10.080107558075720675
0.463000000000000245,-9.995022672942029729
0.464000000000000246,-9.910639521081803238
0.465000000000000246,-9.826960897938629813
0.466000000000000247,-9.743989198191382428
0.467000000000000248,-9.661726428089110641
0.468000000000000249,-9.580174217604607634
0.469000000000000250,-9.499333832403911160
0.470000000000000251,-9.419206185629395378
0.471000000000000252,-9.339791849494224252
0.472000000000000253,-9.261091066686397255
0.473000000000000254,-9.183103761580614588
0.474000000000000254,-9.105829551256698906
0.475000000000000255,-9.029267756323276828
0.476000000000000256,-8.953417411545881777
0.477000000000000257,-8.878277276278712549
0.478000000000000258,-8.803845844699475620
0.479000000000000259,-8.730121355847094478
0.480000000000000260,-8.657101803462062151
0.481000000000000261,-8.584784945629476027
0.482000000000000262,-8.513168314225040945
0.483000000000000262,-8.442249224164436683
0.484000000000000263,-8.372024782456440661
0.485000000000000264,-8.302491897060711779
0.486000000000000265,-8.233647285550940609
0.487000000000000266,-8.165487483584366046
0.488000000000000267,-8.098008853178749078
0.489000000000000268,-8.031207590798137730
0.490000000000000269,-7.965079735248572490
0.491000000000000270,-7.899621175385410865
0.492000000000000270,-7.834827657633596232
0.493000000000000271,-7.770694793322752147
0.494000000000000272,-7.707218065838697285
0.495000000000000273,-7.644392837593201762
0.496000000000000274,-7.582214356814065859
0.497000000000000275,-7.520677764157285949
0.498000000000000276,-7.459778099143522745
0.499000000000000277,-7.399510306420962635
0.500000000000000222,-7.339869241856639803
0.501000000000000334,-7.280849678458631402
0.502000000000000224,-7.222446312131303614
0.503000000000000336,-7.164653767265892093
0.504000000000000226,-7.107466602168960534
0.505000000000000338,-7.050879314330893877
0.506000000000000227,-6.994886345537179473
0.507000000000000339,-6.939482086824609652
0.508000000000000229,-6.884660883285223854
0.509000000000000341,-6.830417038720161038
0.510000000000000231,-6.776744820146427983
0.511000000000000343,-6.723638462158556983
0.512000000000000233,-6.671092171148286454
0.513000000000000345,-6.619100129384333897
0.514000000000000234,-6.567656498955367184
0.515000000000000346,-6.516755425578155680
0.516000000000000236,-6.466391042274102219
0.517000000000000348,-6.416557472916217364
0.518000000000000238,-6.367248835649535366
0.519000000000000350,-6.318459246187194900
0.520000000000000240,-6.270182820985042760
0.521000000000000352,-6.222413680297122163
0.522000000000000242,-6.175145951114722642
0.523000000000000353,-6.128373769991396713
0.524000000000000243,-6.082091285756590970
0.525000000000000355,-6.036292662120276376
0.526000000000000245,-5.990972080171213854
0.527000000000000357,-5.946123740771058763
0.528000000000000247,-5.901741866847094009
0.529000000000000359,-5.857820705585656818
0.530000000000000249,-5.814354530528943243
0.531000000000000361,-5.771337643577335363
0.532000000000000250,-5.728764376899828648
0.533000000000000362,-5.686629094754594327
0.534000000000000252,-5.644926195222251586
0.535000000000000364,-5.603650111853888838
0.536000000000000254,-5.562795315236272131
0.537000000000000366,-5.522356314476164485
0.538000000000000256,-5.482327658606321208
0.539000000000000368,-5.442703937914834533
0.540000000000000258,-5.403479785200443253
0.541000000000000369,-5.364649876955390084
0.542000000000000259,-5.326208934478330548
0.543000000000000371,-5.288151724918912500
0.544000000000000261,-5.250473062256332923
0.545000000000000373,-5.213167808213575505
0.546000000000000263,-5.176230873109459729
0.547000000000000375,-5.139657216650110882
0.548000000000000265,-5.103441848662086500
0.549000000000000377,-5.067579829768531496
0.550000000000000266,-5.032066272010546015
0.551000000000000378,-4.996896339415221711
0.552000000000000268,-4.962065248512244509
0.553000000000000380,-4.927568268800629703
0.554000000000000270,-4.893400723167369293
0.555000000000000382,-4.859557988259398442
0.556000000000000272,-4.826035494810755111
0.557000000000000384,-4.792828727926142562
0.558000000000000274,-4.759933227322780347
0.559000000000000385,-4.727344587531630005
0.560000000000000275,-4.695058458059852668
0.561000000000000387,-4.663070543515589250
0.562000000000000277,-4.631376603696617522
0.563000000000000389,-4.599972453644215697
0.564000000000000279,-4.568853963663566553
0.565000000000000391,-4.538017059311938439
0.566000000000000281,-4.507457721355981661
0.567000000000000393,-4.477171985699301970
0.568000000000000282,-4.447155943281631885
0.569000000000000394,-4.417405739950577725
0.570000000000000284,-4.387917576307318157
0.571000000000000396,-4.358687707527161947
0.572000000000000286,-4.329712443156245705
0.573000000000000398,-4.300988146885223351
0.574000000000000288,-4.272511236301159698
0.575000000000000400,-4.244278182618546502
0.576000000000000290,-4.216285510390432201
0.577000000000000401,-4.188529797200585492
0.578000000000000291,-4.161007673337715929
0.579000000000000403,-4.133715821452501160
0.580000000000000293,-4.106650976198472414
0.581000000000000405,-4.079809923857410148
0.582000000000000295,-4.053189501950293483
0.583000000000000407,-4.026786598834389608
0.584000000000000297,-4.000598153287429959
0.585000000000000409,-3.974621154079520657
0.586000000000000298,-3.948852639533602549
0.587000000000000410,-3.923289697075083016
0.588000000000000300,-3.897929462771423825
0.589000000000000412,-3.872769120862243231
0.590000000000000302,-3.847805903280692608
0.591000000000000414,-3.823037089166660962
0.592000000000000304,-3.798460004372432142
0.593000000000000416,-3.774072020961354745
0.594000000000000306,-3.749870556700182878
0.595000000000000417,-3.725853074545501187
0.596000000000000307,-3.702017082124881675
0.597000000000000419,-3.678360131213202600
0.598000000000000309,-3.654879817204714332
0.599000000000000421,-3.631573778581181244
0.600000000000000311,-3.608439696376763983
0.601000000000000423,-3.585475293639864169
0.602000000000000313,-3.562678334892579901
0.603000000000000425,-3.540046625587943030
0.604000000000000314,-3.517578011565626550
0.605000000000000426,-3.495270378506181608
0.606000000000000316,-3.473121651384468489
0.607000000000000428,-3.451129793922389943
0.608000000000000318,-3.429292808041488172
0.609000000000000430,-3.407608733315504956
0.610000000000000320,-3.386075646423443608
0.611000000000000432,-3.364691660603227774
0.612000000000000322,-3.343454925106415399
0.613000000000000433,-3.322363624654110392
0.614000000000000323,-3.301415978894440606
0.615000000000000435,-3.280610241861766863
0.616000000000000325,-3.259944701437939241
0.617000000000000437,-3.239417678815761370
0.618000000000000327,-3.219027527964969604
0.619000000000000439,-3.198772635100804340
0.620000000000000329,-3.178651418155532760
0.621000000000000441,-3.158662326252983821
0.622000000000000330,-3.138803839186352640
0.623000000000000442,-3.119074466899380838
0.624000000000000332,-3.099472748971156655
0.625000000000000444,-3.079997254104603677
0.626000000000000334,-3.060646579618878427
0.627000000000000446,-3.041419350945737676
0.628000000000000336,-3.022314221130089074
0.629000000000000448,-3.003329870334761065
0.630000000000000338,-2.984465005349702160
0.631000000000000449,-2.965718359105591784
0.632000000000000339,-2.947088690192109173
0.633000000000000451,-2.928574782380813701
0.634000000000000341,-2.910175444152844459
0.635000000000000453,-2.891889508231426653
0.636000000000000343,-2.873715831119310948
0.637000000000000455,-2.855653292641195939
0.638000000000000345,-2.837700795491227446
0.639000000000000457,-2.819857264785547102
0.640000000000000346,-2.802121647620089639
0.641000000000000458,-2.784492912633496076
0.642000000000000348,-2.766970049575362189
0.643000000000000460,-2.749552068879705047
0.644000000000000350,-2.732238001243815440
0.645000000000000462,-2.715026897212408308
0.646000000000000352,-2.697917826767192828
0.647000000000000464,-2.680909878921781786
0.648000000000000353,-2.664002161322112094
0.649000000000000465,-2.647193799852155749
0.650000000000000355,-2.630483938245208542
0.651000000000000467,-2.613871737700491860
0.652000000000000357,-2.597356376505307374
0.653000000000000469,-2.580937049662530125
0.654000000000000359,-2.564612968523646508
0.655000000000000471,-2.548383360427116440
0.656000000000000361,-2.532247468342255559
0.657000000000000473,-2.516204550518440719
0.658000000000000362,-2.500253880139776452
0.659000000000000474,-2.484394744985093606
