# AlFCC110UCD_CS-1057-AC
# h[nm],U(h)[kJ/mol]
0.149999999999999994,136.892304196713638476
0.150999999999999995,133.251264747534605704
0.151999999999999996,131.036089658239518485
0.152999999999999997,129.206107105749083530
0.153999999999999998,127.344229767760992900
0.154999999999999999,125.342761953512763284
0.156000000000000000,123.227245703972357660
0.157000000000000001,121.063877155780986072
0.158000000000000002,118.915783625849144300
0.159000000000000002,116.826499426887309596
0.160000000000000003,114.817479983587645620
0.161000000000000004,112.891943603686698339
0.162000000000000005,111.040752905281721041
0.163000000000000006,109.248141037320010582
0.164000000000000007,107.496322477703259324
0.165000000000000008,105.768719245775514537
0.166000000000000009,104.051888849305740337
0.167000000000000010,102.336395642746438739
0.168000000000000010,100.616909094978723260
0.169000000000000011,98.891794822163745948
0.170000000000000012,97.162419843827095178
0.171000000000000013,95.432341275692735394
0.172000000000000014,93.706497760098343974
0.173000000000000015,91.990480166928946915
0.174000000000000016,90.289924117662081926
0.175000000000000017,88.610041572440223945
0.176000000000000018,86.955291072458379631
0.177000000000000018,85.329174893759130782
0.178000000000000019,83.734144944749303363
0.179000000000000020,82.171596445809328202
0.180000000000000021,80.641928172271690300
0.181000000000000022,79.144649438756360382
0.182000000000000023,77.678516371478210090
0.183000000000000024,76.241682851379934505
0.184000000000000025,74.831854458976607702
0.185000000000000026,73.446436574716045698
0.186000000000000026,72.082670341271551706
0.187000000000000027,70.737752399509162160
0.188000000000000028,69.408936139661847164
0.189000000000000029,68.093613668466076660
0.190000000000000030,66.789378807819829831
0.191000000000000031,65.494072249242577755
0.192000000000000032,64.205810535063477573
0.193000000000000033,62.923000866947134568
0.194000000000000034,61.644343898331840137
0.195000000000000034,60.368826689098867178
0.196000000000000035,59.095707923106353121
0.197000000000000036,57.824497341784976356
0.198000000000000037,56.554931154415669425
0.199000000000000038,55.286944967822989838
0.200000000000000039,54.020645550534638346
0.201000000000000040,52.756282520701333283
0.202000000000000041,51.494220831732249621
0.203000000000000042,50.234914730491432522
0.204000000000000042,48.978883683634606427
0.205000000000000043,47.726690610148978067
0.206000000000000044,46.478922622948076082
0.207000000000000045,45.236174369054516831
0.208000000000000046,43.999033965343222974
0.209000000000000047,42.768071453415537064
0.210000000000000048,41.543829641043139134
0.211000000000000049,40.326817156731827652
0.212000000000000050,39.117503516242230432
0.213000000000000050,37.916315983367454123
0.214000000000000051,36.723637999994004133
0.215000000000000052,35.539808960714154296
0.216000000000000053,34.365125113425150971
0.217000000000000054,33.199841378036914818
0.218000000000000055,32.044173889387295162
0.219000000000000056,30.898303086689661967
0.220000000000000057,29.762377189415861523
0.221000000000000058,28.636515917738449843
0.222000000000000058,27.520814333910387006
0.223000000000000059,26.415346698802672165
0.224000000000000060,25.320170254883993977
0.225000000000000061,24.235328862956471596
0.226000000000000062,23.160856434778441582
0.227000000000000063,22.096780117194782633
0.228000000000000064,21.043123195503547151
0.229000000000000065,19.999907694498709532
0.230000000000000066,18.967156664971305702
0.231000000000000066,17.944896151469556855
0.232000000000000067,16.933156843889740628
0.233000000000000068,15.931975421072385402
0.234000000000000069,14.941395599111706005
0.235000000000000070,13.961468900645567004
0.236000000000000071,12.992255164082825658
0.237000000000000072,12.033822813639647009
0.238000000000000073,11.086248912298806601
0.239000000000000073,10.149619020466259300
0.240000000000000074,9.224026883260062704
0.241000000000000075,8.309573969118138947
0.242000000000000076,7.406368881817887662
0.243000000000000077,6.514526667134292737
0.244000000000000078,5.634168034283780102
0.245000000000000079,4.765418511058993722
0.246000000000000080,3.908407550206765002
0.247000000000000081,3.063267603171176301
0.248000000000000081,2.230133175858235894
0.249000000000000082,1.409139879602421930
0.250000000000000111,0.600423489054071835
0.251000000000000112,-0.195880982717783425
0.252000000000000113,-0.979640182988467112
0.253000000000000114,-1.750723284394856361
0.254000000000000115,-2.509002809834417036
0.255000000000000115,-3.254355412027751360
0.256000000000000116,-3.986662603599301580
0.257000000000000117,-4.705811434515378089
0.258000000000000118,-5.411695114615069357
0.259000000000000119,-6.104213579780206622
0.260000000000000120,-6.783274001015999310
0.261000000000000121,-7.448791236355662981
0.262000000000000122,-8.100688226067452646
0.263000000000000123,-8.738896332130765998
0.264000000000000123,-9.363355623367670688
0.265000000000000124,-9.974015107969112393
0.266000000000000125,-10.570832915447805789
0.267000000000000126,-11.153776430286338694
0.268000000000000127,-11.722822379735562848
0.269000000000000128,-12.277956878357006332
0.270000000000000129,-12.819175432001689074
0.271000000000000130,-13.346482903979199008
0.272000000000000131,-13.859893446198416456
0.273000000000000131,-14.359430398061684642
0.274000000000000132,-14.845126155868257456
0.275000000000000133,-15.317022015436418059
0.276000000000000134,-15.775167990588979450
0.277000000000000135,-16.219622610065663082
0.278000000000000136,-16.650452695334603703
0.279000000000000137,-17.067733121672112873
0.280000000000000138,-17.471546564768893006
0.281000000000000139,-17.861983235006462678
0.282000000000000139,-18.239140601426221622
0.283000000000000140,-18.603123107292358185
0.284000000000000141,-18.954041879026156892
0.285000000000000142,-19.292014430166748440
0.286000000000000143,-19.617164361891603619
0.287000000000000144,-19.929621061510452762
0.288000000000000145,-20.229519400230863369
0.289000000000000146,-20.516999431379300489
0.290000000000000147,-20.792206090154074616
0.291000000000000147,-21.055288895881236755
0.292000000000000148,-21.306401657645444914
0.293000000000000149,-21.545702184072517582
0.294000000000000150,-21.773351997951262859
0.295000000000000151,-21.989516056297446767
0.296000000000000152,-22.194362476383712846
0.297000000000000153,-22.388062268184846459
0.298000000000000154,-22.570789073619422993
0.299000000000000155,-22.742718912904276607
0.300000000000000155,-22.904029938279570899
0.301000000000000156,-23.054902195307661827
0.302000000000000157,-23.195517391899482362
0.303000000000000158,-23.326058675176192025
0.304000000000000159,-23.446710416233251806
0.305000000000000160,-23.557658002835932365
0.306000000000000161,-23.659087640042638867
0.307000000000000162,-23.751186158721601771
0.308000000000000163,-23.834140831900199942
0.309000000000000163,-23.908139198862379260
0.310000000000000164,-23.973368896889162727
0.311000000000000165,-24.030017500518759732
0.312000000000000166,-24.078272368187846553
0.313000000000000167,-24.118320496101958383
0.314000000000000168,-24.150348379171845181
0.315000000000000169,-24.174541878843577081
0.316000000000000170,-24.191086097643079711
0.317000000000000171,-24.200165260249224986
0.318000000000000171,-24.201962600906021805
0.319000000000000172,-24.196660256981175507
0.320000000000000173,-24.184439168476352222
0.321000000000000174,-24.165478983293713355
0.322000000000000175,-24.139957968063701088
0.323000000000000176,-24.108052924339720136
0.324000000000000177,-24.069939109967403823
0.325000000000000178,-24.025790165437932444
0.326000000000000179,-23.975778045038627084
0.327000000000000179,-23.920072952616596496
0.328000000000000180,-23.858843281775257594
0.329000000000000181,-23.792255560327966180
0.330000000000000182,-23.720474398836579155
0.331000000000000183,-23.643662443068198087
0.332000000000000184,-23.561980330207322964
0.333000000000000185,-23.475586648666002532
0.334000000000000186,-23.384637901339125676
0.335000000000000187,-23.289288472157217313
0.336000000000000187,-23.189690595794122174
0.337000000000000188,-23.085994330391269358
0.338000000000000189,-22.978347533166360250
0.339000000000000190,-22.866895838777949734
0.340000000000000191,-22.751782640322829820
0.341000000000000192,-22.633149072847906780
0.342000000000000193,-22.511133999262327166
0.343000000000000194,-22.385873998540791519
0.344000000000000195,-22.257503356112561477
0.345000000000000195,-22.126154056335757048
0.346000000000000196,-21.991955776959798641
0.347000000000000197,-21.855035885483498959
0.348000000000000198,-21.715519437319631635
0.349000000000000199,-21.573529175680722147
0.350000000000000200,-21.429185533104458727
0.351000000000000201,-21.282606634540041313
0.352000000000000202,-21.133908301920584449
0.353000000000000203,-20.983204060149475367
0.354000000000000203,-20.830605144431711295
0.355000000000000204,-20.676220508883922378
0.356000000000000205,-20.520156836359728203
0.357000000000000206,-20.362518549429605486
0.358000000000000207,-20.203407822456679099
0.359000000000000208,-20.042924594712623332
0.360000000000000209,-19.881166584479792903
0.361000000000000210,-19.718229304087977027
0.362000000000000210,-19.554206075836198409
0.363000000000000211,-19.389188048751755389
0.364000000000000212,-19.223264216140982796
0.365000000000000213,-19.056521433887418482
0.366000000000000214,-18.889044439455176416
0.367000000000000215,-18.720915871556584875
0.368000000000000216,-18.552216290445024072
0.369000000000000217,-18.383024198795038018
0.370000000000000218,-18.213416063133301748
0.371000000000000218,-18.043466335785367960
0.372000000000000219,-17.873247477304264663
0.373000000000000220,-17.702829979348397416
0.374000000000000221,-17.532282387977268456
0.375000000000000222,-17.361671327334335047
0.376000000000000223,-17.191061523688048851
0.377000000000000224,-17.020515829802455698
0.378000000000000225,-16.850095249610042458
0.379000000000000226,-16.679858963160420160
0.380000000000000226,-16.509864351819292239
0.381000000000000227,-16.340167023692846016
0.382000000000000228,-16.170820839254012924
0.383000000000000229,-16.001877937147231279
0.384000000000000230,-15.833388760149521346
0.385000000000000231,-15.665402081266424972
0.386000000000000232,-15.497965029941804360
0.387000000000000233,-15.331123118361537294
0.388000000000000234,-15.164920267831496048
0.389000000000000234,-14.999398835211241732
0.390000000000000235,-14.834599639385000813
0.391000000000000236,-14.670561987752799737
0.392000000000000237,-14.507323702724340464
0.393000000000000238,-14.344921148199849981
0.394000000000000239,-14.183389256021678548
0.395000000000000240,-14.022761552381794559
0.396000000000000241,-13.863070184170439347
0.397000000000000242,-13.704345945251777295
0.398000000000000242,-13.546618302653163468
0.399000000000000243,-13.389915422654871335
0.400000000000000244,-13.234264196767639987
0.401000000000000245,-13.079690267586318697
0.402000000000000246,-12.926218054507682353
0.403000000000000247,-12.773870779301571332
0.404000000000000248,-12.622670491524662140
0.405000000000000249,-12.472638093766672540
0.406000000000000250,-12.323793366719353770
0.407000000000000250,-12.176154994058935088
0.408000000000000251,-12.029740587133142427
0.409000000000000252,-11.884566709444474242
0.410000000000000253,-11.740648900921552666
0.411000000000000254,-11.598001701971066169
0.412000000000000255,-11.456638677302994012
0.413000000000000256,-11.316572439522360582
0.414000000000000257,-11.177814672480913316
0.415000000000000258,-11.040376154382840923
0.416000000000000258,-10.904266780638604217
0.417000000000000259,-10.769495586461635739
0.418000000000000260,-10.636070769202865094
0.419000000000000261,-10.503999710418295166
0.420000000000000262,-10.373288997665421007
0.421000000000000263,-10.243944446024311645
0.422000000000000264,-10.115971119339786100
0.423000000000000265,-9.989373351181011884
0.424000000000000266,-9.864154765515852574
0.425000000000000266,-9.740318297096640876
0.426000000000000267,-9.617866211555226030
0.427000000000000268,-9.496800125204851284
0.428000000000000269,-9.377121024546868355
0.429000000000000270,-9.258829285480729254
0.430000000000000271,-9.141924692215507520
0.431000000000000272,-9.026406455881968327
0.432000000000000273,-8.912273232844054149
0.433000000000000274,-8.799523142709103851
0.434000000000000274,-8.688153786036187043
0.435000000000000275,-8.578162261742331651
0.436000000000000276,-8.469545184206495492
0.437000000000000277,-8.362298700071306712
0.438000000000000278,-8.256418504743004760
0.439000000000000279,-8.151899858589962022
0.440000000000000280,-8.048737602840454031
0.441000000000000281,-7.946926175180509588
0.442000000000000282,-7.846459625052972342
0.443000000000000282,-7.747331628658651326
0.444000000000000283,-7.649535503661238245
0.445000000000000284,-7.553064223597226956
0.446000000000000285,-7.457910431992367251
0.447000000000000286,-7.364066456186793452
0.448000000000000287,-7.271524320870173419
0.449000000000000288,-7.180275761329392381
0.450000000000000289,-7.090312236410460045
0.451000000000000290,-7.001624941197175822
0.452000000000000290,-6.914204819408736213
0.453000000000000291,-6.828042575518752599
0.454000000000000292,-6.743128686598275578
0.455000000000000293,-6.659453413885303874
0.456000000000000294,-6.577006814083672381
0.457000000000000295,-6.495778750393983003
0.458000000000000296,-6.415758903279439096
0.459000000000000297,-6.336936780969628202
0.460000000000000298,-6.259301729705083694
0.461000000000000298,-6.182842943725875173
0.462000000000000299,-6.107549475007195028
0.463000000000000300,-6.033410242745130603
0.464000000000000301,-5.960414042595914452
0.465000000000000302,-5.888549555671898084
0.466000000000000303,-5.817805357297411106
0.467000000000000304,-5.748169925528001656
0.468000000000000305,-5.679631649436389651
0.469000000000000306,-5.612178837168409373
0.470000000000000306,-5.545799723772576684
0.471000000000000307,-5.480482478806448121
0.472000000000000308,-5.416215213723505784
0.473000000000000309,-5.352985989043800963
0.474000000000000310,-5.290782821312033590
0.475000000000000311,-5.229593689846353755
0.476000000000000312,-5.169406543281680477
0.477000000000000313,-5.110209305910674793
0.478000000000000314,-5.051989883826137451
0.479000000000000314,-4.994736170868276481
0.480000000000000315,-4.938436054380211715
0.481000000000000316,-4.883077420775411071
0.482000000000000317,-4.828648160920312016
0.483000000000000318,-4.775136175335798150
0.484000000000000319,-4.722529379220814505
0.485000000000000320,-4.670815707301722242
0.486000000000000321,-4.619983118510651465
0.487000000000000322,-4.570019600496399548
0.488000000000000322,-4.520913173971084831
0.489000000000000323,-4.472651896896158163
0.490000000000000324,-4.425223868510851588
0.491000000000000325,-4.378617233206560933
0.492000000000000326,-4.332820184250311790
0.493000000000000327,-4.287820967360671531
0.494000000000000328,-4.243607884139294129
0.495000000000000329,-4.200169295361241062
0.496000000000000330,-4.157493624127337917
0.497000000000000330,-4.115569358881637996
0.498000000000000331,-4.074385056297062491
0.499000000000000332,-4.033929344032403108
0.500000000000000333,-3.994190923363594159
0.501000000000000334,-3.955158571692272140
0.502000000000000335,-3.916821144934648835
0.503000000000000336,-3.879167579793560972
0.504000000000000337,-3.842186895916565703
0.505000000000000338,-3.805868197942986253
0.506000000000000338,-3.770200677442688608
0.507000000000000339,-3.735173614749307980
0.508000000000000340,-3.700776380690725453
0.509000000000000341,-3.666998438219491341
0.510000000000000342,-3.633829343945750079
0.511000000000000343,-3.601258749575381835
0.512000000000000344,-3.569276403255842833
0.513000000000000345,-3.537872150832311213
0.514000000000000346,-3.507035937016599547
0.515000000000000346,-3.476757806471216128
0.516000000000000347,-3.447027904811066801
0.517000000000000348,-3.417836479525182547
0.518000000000000349,-3.389173880820650631
0.519000000000000350,-3.361030562391201126
0.520000000000000351,-3.333397082112607990
0.521000000000000352,-3.306264102667107352
0.522000000000000353,-3.279622392099042827
0.523000000000000353,-3.253462824303762879
0.524000000000000354,-3.227776379452008904
0.525000000000000355,-3.202554144351670740
0.526000000000000356,-3.177787312749002613
0.527000000000000357,-3.153467185571307674
0.528000000000000358,-3.129585171112841735
0.529000000000000359,-3.106132785166061616
0.530000000000000360,-3.083101651099840801
0.531000000000000361,-3.060483499886623271
0.532000000000000361,-3.038270170080173749
0.533000000000000362,-3.016453607745757104
0.534000000000000363,-2.995025866344359411
0.535000000000000364,-2.973979106572648856
0.536000000000000365,-2.953305596160304969
0.537000000000000366,-2.932997709626293137
0.538000000000000367,-2.913047927995603192
0.539000000000000368,-2.893448838478072993
0.540000000000000369,-2.874193134110606174
0.541000000000000369,-2.855273613364429419
0.542000000000000370,-2.836683179718638481
0.543000000000000371,-2.818414841201488663
0.544000000000000372,-2.800461709900790019
0.545000000000000373,-2.782817001444684912
0.546000000000000374,-2.765474034454068697
0.547000000000000375,-2.748426229967972922
0.548000000000000376,-2.731667110843093216
0.549000000000000377,-2.715190301128637351
0.550000000000000377,-2.698989525417634816
0.551000000000000378,-2.683058608175930448
0.552000000000000379,-2.667391473049815165
0.553000000000000380,-2.651982142153520350
0.554000000000000381,-2.636824735337465864
0.555000000000000382,-2.621913469438417188
0.556000000000000383,-2.607242657512402140
0.557000000000000384,-2.592806708051468512
0.558000000000000385,-2.578600124185117082
0.559000000000000385,-2.564617502867404752
0.560000000000000386,-2.550853534050484317
0.561000000000000387,-2.537302999845580054
0.562000000000000388,-2.523960773672094149
0.563000000000000389,-2.510821819395748555
0.564000000000000390,-2.497881190456491929
0.565000000000000391,-2.485134028986945687
0.566000000000000392,-2.472575564922136149
0.567000000000000393,-2.460201115101215308
0.568000000000000393,-2.448006082361871893
0.569000000000000394,-2.435985954628084649
0.570000000000000395,-2.424136303991904384
0.571000000000000396,-2.412452785789843457
0.572000000000000397,-2.400931137674558791
0.573000000000000398,-2.389567178682311610
0.574000000000000399,-2.378356808296885561
0.575000000000000400,-2.367296005510429513
0.576000000000000401,-2.356380827881795259
0.577000000000000401,-2.345607410592912778
0.578000000000000402,-2.334971965503633395
0.579000000000000403,-2.324470780205548426
0.580000000000000404,-2.314100217075310439
0.581000000000000405,-2.303856712327781331
0.582000000000000406,-2.293736775069551648
0.583000000000000407,-2.283736986353176235
0.584000000000000408,-2.273853998232550300
0.585000000000000409,-2.264084532819803819
0.586000000000000409,-2.254425381344111301
0.587000000000000410,-2.244873403212712226
0.588000000000000411,-2.235425525074549391
0.589000000000000412,-2.226078739886818703
0.590000000000000413,-2.216830105984735955
0.591000000000000414,-2.207676746154843439
0.592000000000000415,-2.198615846712164590
0.593000000000000416,-2.189644656581407389
0.594000000000000417,-2.180760486382565144
0.595000000000000417,-2.171960707521153999
0.596000000000000418,-2.163242751283241283
0.597000000000000419,-2.154604107935643054
0.598000000000000420,-2.146042325831378772
0.599000000000000421,-2.137555010520658882
0.600000000000000422,-2.129139823867599812
0.601000000000000423,-2.120794483172841804
0.602000000000000424,-2.112516760302249885
0.603000000000000425,-2.104304480821885370
0.604000000000000425,-2.096155523139397570
0.605000000000000426,-2.088067817651952929
0.606000000000000427,-2.080039345900973835
0.607000000000000428,-2.072068139733578285
0.608000000000000429,-2.064152280471200473
0.609000000000000430,-2.056289898085092549
