# AlFCC110UCD_CS-13254-AC
# h[nm],U(h)[kJ/mol]
0.200000000000000011,84.965123326658527958
0.201000000000000012,81.430097492527835357
0.202000000000000013,78.765252608148529134
0.203000000000000014,76.581244976911776234
0.204000000000000015,74.636674309865796317
0.205000000000000016,72.789990869823881781
0.206000000000000016,70.965199837471345745
0.207000000000000017,69.127774979364090768
0.208000000000000018,67.268058088948521345
0.209000000000000019,65.390088730278165485
0.210000000000000020,63.504323172110858309
0.211000000000000021,61.623095741238969936
0.212000000000000022,59.757976715157575143
0.213000000000000023,57.918409229081774470
0.214000000000000024,56.111179919498738400
0.215000000000000024,54.340407041511483044
0.216000000000000025,52.607825645506217427
0.217000000000000026,50.913219926447695229
0.218000000000000027,49.254904163705269582
0.219000000000000028,47.630190472560698822
0.220000000000000029,46.035807532808938447
0.221000000000000030,44.468252342562784918
0.222000000000000031,42.924069004369115987
0.223000000000000032,41.400056210626928532
0.224000000000000032,39.893409682593954813
0.225000000000000033,38.401808251000758787
0.226000000000000034,36.923453228932359593
0.227000000000000035,35.457070720634270344
0.228000000000000036,34.001885896888694560
0.229000000000000037,32.557577308051563136
0.230000000000000038,31.124218181014118301
0.231000000000000039,29.702210479387737507
0.232000000000000040,28.292216377469792121
0.233000000000000040,26.895090757343705690
0.234000000000000041,25.511817411943546574
0.235000000000000042,24.143450836736334963
0.236000000000000043,22.791064819997785662
0.237000000000000044,21.455708490811687739
0.238000000000000045,20.138370045073394010
0.239000000000000046,18.839948030860568906
0.240000000000000047,17.561229822565703529
0.241000000000000048,16.302876735214610449
0.242000000000000048,15.065415114060215274
0.243000000000000049,13.849232668457659656
0.244000000000000050,12.654579292984930561
0.245000000000000051,11.481571623786239300
0.246000000000000052,10.330200606473677993
0.247000000000000053,9.200341397072628880
0.248000000000000054,8.091764974013040401
0.249000000000000055,7.004150902610907892
0.250000000000000056,5.937100760298035240
0.251000000000000056,4.890151798260411020
0.252000000000000057,3.862790481012419175
0.253000000000000058,2.854465608202352733
0.254000000000000059,1.864600781510409089
0.255000000000000060,0.892606033148576783
0.256000000000000061,-0.062111519212523801
0.257000000000000062,-1.000138083447547732
0.258000000000000063,-1.922044724929925508
0.259000000000000064,-2.828380042429603947
0.260000000000000064,-3.719663983972907317
0.261000000000000065,-4.596382776411839899
0.262000000000000066,-5.458984924504858505
0.263000000000000067,-6.307878221274576092
0.264000000000000068,-7.143427700865300878
0.265000000000000069,-7.965954457658533272
0.266000000000000070,-8.775735250612239469
0.267000000000000071,-9.573002809293551962
0.268000000000000071,-10.357946757512035418
0.269000000000000072,-11.130715071507216507
0.270000000000000073,-11.891415991998211865
0.271000000000000074,-12.640120312795946944
0.272000000000000075,-13.376863972871984032
0.273000000000000076,-14.101650883559234018
0.274000000000000077,-14.814455927748506170
0.275000000000000078,-15.515228073381768681
0.276000000000000079,-16.203893549095155890
0.277000000000000079,-16.880359035422383585
0.278000000000000080,-17.544514830435982589
0.279000000000000081,-18.196237954011781568
0.280000000000000082,-18.835395159986347835
0.281000000000000083,-19.461845830298933890
0.282000000000000084,-20.075444729731334093
0.283000000000000085,-20.676044604061790011
0.284000000000000086,-21.263498608320212213
0.285000000000000087,-21.837662555360640937
0.286000000000000087,-22.398396978160267423
0.287000000000000088,-22.945569002113003876
0.288000000000000089,-23.479054026120540044
0.289000000000000090,-23.998737213509542698
0.290000000000000091,-24.504514795731793697
0.291000000000000092,-24.996295193456489869
0.292000000000000093,-25.473999961054392571
0.293000000000000094,-25.937564561623975834
0.294000000000000095,-26.386938980637999919
0.295000000000000095,-26.822088187016312588
0.296000000000000096,-27.242992450972945306
0.297000000000000097,-27.649647528365171922
0.298000000000000098,-28.042064721503596303
0.299000000000000099,-28.420270826485324989
0.300000000000000100,-28.784307977100290543
0.301000000000000101,-29.134233395252589816
0.302000000000000102,-29.470119057642932603
0.303000000000000103,-29.792051288195722236
0.304000000000000103,-30.100130285387866280
0.305000000000000104,-30.394469593265586838
0.306000000000000105,-30.675195524524305313
0.307000000000000106,-30.942446543586818564
0.308000000000000107,-31.196372617154388251
0.309000000000000108,-31.437134539229866448
0.310000000000000109,-31.664903237130026525
0.311000000000000110,-31.879859064518463185
0.312000000000000111,-32.082191087009192643
0.313000000000000111,-32.272096365415357866
0.314000000000000112,-32.449779241251818007
0.315000000000000113,-32.615450628649647058
0.316000000000000114,-32.769327316403163763
0.317000000000000115,-32.911631283452244645
0.318000000000000116,-33.042589030702608000
0.319000000000000117,-33.162430931707802984
0.320000000000000118,-33.271390604377600653
0.321000000000000119,-33.369704305541766587
0.322000000000000119,-33.457610349882308753
0.323000000000000120,-33.535348554454159853
0.324000000000000121,-33.603159709743309236
0.325000000000000122,-33.661285077960528156
0.326000000000000123,-33.709965919039596827
0.327000000000000124,-33.749443044599367170
0.328000000000000125,-33.779956399939962353
0.329000000000000126,-33.801744673971413135
0.330000000000000127,-33.815044936820740418
0.331000000000000127,-33.820092304726848909
0.332000000000000128,-33.817119631712770911
0.333000000000000129,-33.806357227420662070
0.334000000000000130,-33.788032600403013817
0.335000000000000131,-33.762370226088236791
0.336000000000000132,-33.729591338572511461
0.337000000000000133,-33.689913745337534579
0.338000000000000134,-33.643551663950979957
0.339000000000000135,-33.590715579773373634
0.340000000000000135,-33.531612123672054793
0.341000000000000136,-33.466443968726260039
0.342000000000000137,-33.395409744899872351
0.343000000000000138,-33.318703970656287083
0.344000000000000139,-33.236517000494096408
0.345000000000000140,-33.149034987392738572
0.346000000000000141,-33.056439859170339446
0.347000000000000142,-32.958909307775506647
0.348000000000000143,-32.856616790556572028
0.349000000000000143,-32.749731542576569154
0.350000000000000144,-32.638418599070533332
0.351000000000000145,-32.522838827171263176
0.352000000000000146,-32.403148966061586123
0.353000000000000147,-32.279501674744224715
0.354000000000000148,-32.152045586654665499
0.355000000000000149,-32.020925370377398167
0.356000000000000150,-31.886281795761487245
0.357000000000000151,-31.748251804766965734
0.358000000000000151,-31.606968586409976751
0.359000000000000152,-31.462561655209270839
0.360000000000000153,-31.315156932573113835
0.361000000000000154,-31.164876830599496316
0.362000000000000155,-31.011840337797394795
0.363000000000000156,-30.856163106269967500
0.364000000000000157,-30.697957539933060644
0.365000000000000158,-30.537332883374471493
0.366000000000000159,-30.374395310989712016
0.367000000000000159,-30.209248016059451203
0.368000000000000160,-30.041991299462885934
0.369000000000000161,-29.872722657748049357
0.370000000000000162,-29.701536870306039617
0.371000000000000163,-29.528526085422321046
0.372000000000000164,-29.353779904999999673
0.373000000000000165,-29.177385467774609396
0.374000000000000166,-28.999427530859815505
0.375000000000000167,-28.819988549484214957
0.376000000000000167,-28.639148754798487317
0.377000000000000168,-28.456986229649714915
0.378000000000000169,-28.273576982236580335
0.379000000000000170,-28.088995017574895030
0.380000000000000171,-27.903312406717077465
0.381000000000000172,-27.716599353683552209
0.382000000000000173,-27.528924260075179120
0.383000000000000174,-27.340353787349251036
0.384000000000000175,-27.150952916750515698
0.385000000000000175,-26.960785006899453009
0.386000000000000176,-26.769911849048817487
0.387000000000000177,-26.578393720026916469
0.388000000000000178,-26.386289432894631801
0.389000000000000179,-26.193656385348305093
0.390000000000000180,-26.000550605907829294
0.391000000000000181,-25.807026797933570350
0.392000000000000182,-25.613138381521007858
0.393000000000000183,-25.418937533325539846
0.394000000000000183,-25.224475224373573923
0.395000000000000184,-25.029801255919249314
0.396000000000000185,-24.834964293407896463
0.397000000000000186,-24.640011898610335805
0.398000000000000187,-24.444990559992767487
0.399000000000000188,-24.249945721389053688
0.400000000000000189,-24.054921809042479453
0.401000000000000190,-23.859962257084823989
0.402000000000000191,-23.665109531521093089
0.403000000000000191,-23.470405152787563452
0.404000000000000192,-23.275889716951233765
0.405000000000000193,-23.081602915617636995
0.406000000000000194,-22.887583554613605941
0.407000000000000195,-22.693869571510642658
0.408000000000000196,-22.500498052053160336
0.409000000000000197,-22.307505245554928308
0.410000000000000198,-22.114926579325615563
0.411000000000000199,-21.922796672187750744
0.412000000000000199,-21.731149347142782347
0.413000000000000200,-21.540017643243508871
0.414000000000000201,-21.349433826728208885
0.415000000000000202,-21.159429401469765253
0.416000000000000203,-20.970035118791937379
0.417000000000000204,-20.781280986702068247
0.418000000000000205,-20.593196278588539627
0.419000000000000206,-20.405809541428705955
0.420000000000000207,-20.219148603551175825
0.421000000000000207,-20.033240581994952834
0.422000000000000208,-19.848111889504888694
0.423000000000000209,-19.663788241202162510
0.424000000000000210,-19.480294660965842723
0.425000000000000211,-19.297655487559737253
0.426000000000000212,-19.115894380537287844
0.427000000000000213,-18.935034325955015788
0.428000000000000214,-18.755097641923391905
0.429000000000000214,-18.576105984022277084
0.430000000000000215,-18.398080350606214495
0.431000000000000216,-18.221041088023540055
0.432000000000000217,-18.045007895770957873
0.433000000000000218,-17.869999831604566509
0.434000000000000219,-17.696035316625831513
0.435000000000000220,-17.523132140360466735
0.436000000000000221,-17.351307465845902556
0.437000000000000222,-17.180577834742166488
0.438000000000000222,-17.010959172479601875
0.439000000000000223,-16.842466793455443508
0.440000000000000224,-16.675115406290110798
0.441000000000000225,-16.508919119152881905
0.442000000000000226,-16.343891445165777299
0.443000000000000227,-16.180045307892815032
0.444000000000000228,-16.017393046921490907
0.445000000000000229,-15.855946423541885437
0.446000000000000230,-15.695716626528030346
0.447000000000000230,-15.536714278025417713
0.448000000000000231,-15.378949439547659139
0.449000000000000232,-15.222431618084291571
0.450000000000000233,-15.067169772321525656
0.451000000000000234,-14.913172318976535280
0.452000000000000235,-14.760447139245599146
0.453000000000000236,-14.609001585365570364
0.454000000000000237,-14.458842487287892453
0.455000000000000238,-14.309976159463531076
0.456000000000000238,-14.162408407737000715
0.457000000000000239,-14.016144536347027838
0.458000000000000240,-13.871189355031239288
0.459000000000000241,-13.727547186231443987
0.460000000000000242,-13.585221872396445519
0.461000000000000243,-13.444216783378170277
0.462000000000000244,-13.304534823917544273
0.463000000000000245,-13.166178441215311778
0.464000000000000246,-13.029149632583742147
0.465000000000000246,-12.893449953174329181
0.466000000000000247,-12.759080523776578531
0.467000000000000248,-12.626042038682994573
0.468000000000000249,-12.494334773615133116
0.469000000000000250,-12.363958593705431710
0.470000000000000251,-12.234912961529643027
0.471000000000000252,-12.107196945184309556
0.472000000000000253,-11.980809226404202761
0.473000000000000254,-11.855748108713978439
0.474000000000000254,-11.732011525608893265
0.475000000000000255,-11.609597048758931948
0.476000000000000256,-11.488501896231110067
0.477000000000000257,-11.368722940724591552
0.478000000000000258,-11.250256717813076790
0.479000000000000259,-11.133099434189528409
0.480000000000000260,-11.017246975907770690
0.481000000000000261,-10.902694916615894627
0.482000000000000262,-10.789438525776533950
0.483000000000000262,-10.677472776868965454
0.484000000000000263,-10.566792355568164652
0.485000000000000264,-10.457391667896173360
0.486000000000000265,-10.349264848341046985
0.487000000000000266,-10.242405767938929984
0.488000000000000267,-10.136808042314800815
0.489000000000000268,-10.032465039677727958
0.490000000000000269,-9.929369888766336416
0.491000000000000270,-9.827515486740692197
0.492000000000000270,-9.726894507016474734
0.493000000000000271,-9.627499407037934276
0.494000000000000272,-9.529322435985957185
0.495000000000000273,-9.432355642417640240
0.496000000000000274,-9.336590881834391453
0.497000000000000275,-9.242019824175002896
0.498000000000000276,-9.148633961230961731
0.499000000000000277,-9.056424613980961880
0.500000000000000222,-8.965382939841884280
0.501000000000000334,-8.875499939833696672
0.502000000000000224,-8.786766465655812652
0.503000000000000336,-8.699173226672403558
0.504000000000000226,-8.612710796804845970
0.505000000000000338,-8.527369621328732663
0.506000000000000227,-8.443140023574166264
0.507000000000000339,-8.360012211526877124
0.508000000000000229,-8.277976284329110257
0.509000000000000341,-8.197022238678234984
0.510000000000000231,-8.117139975122253048
0.511000000000000343,-8.038319304250249431
0.512000000000000233,-7.960549952777303595
0.513000000000000345,-7.883821569522216244
0.514000000000000234,-7.808123731277786916
0.515000000000000346,-7.733445948572071238
0.516000000000000236,-7.659777671320679993
0.517000000000000348,-7.587108294368915651
0.518000000000000238,-7.515427162923726812
0.519000000000000350,-7.444723577874697185
0.520000000000000240,-7.374986801004157932
0.521000000000000352,-7.306206060085908227
0.522000000000000242,-7.238370553872732316
0.523000000000000353,-7.171469456972415557
0.524000000000000243,-7.105491924612634236
0.525000000000000355,-7.040427097294582381
0.526000000000000245,-6.976264105335938659
0.527000000000000357,-6.912992073303003693
0.528000000000000247,-6.850600124332994589
0.529000000000000359,-6.789077384346366095
0.530000000000000249,-6.728412986150194897
0.531000000000000361,-6.668596073432827787
0.532000000000000250,-6.609615804650813331
0.533000000000000362,-6.551461356808486514
0.534000000000000252,-6.494121929131281945
0.535000000000000364,-6.437586746633390256
0.536000000000000254,-6.381845063580873223
0.537000000000000366,-6.326886166850806958
0.538000000000000256,-6.272699379187955060
0.539000000000000368,-6.219274062359383848
0.540000000000000258,-6.166599620208708998
0.541000000000000369,-6.114665501610486942
0.542000000000000259,-6.063461203326426130
0.543000000000000371,-6.012976272764121610
0.544000000000000261,-5.963200310639927615
0.545000000000000373,-5.914122973546851902
0.546000000000000263,-5.865733976429073238
0.547000000000000375,-5.818023094963974629
0.548000000000000265,-5.770980167853499765
0.549000000000000377,-5.724595099025645339
0.550000000000000266,-5.678857859747869163
0.551000000000000378,-5.633758490653497653
0.552000000000000268,-5.589287103682734958
0.553000000000000380,-5.545433883939435482
0.554000000000000270,-5.502189091465369941
0.555000000000000382,-5.459543062933032154
0.556000000000000272,-5.417486213258818850
0.557000000000000384,-5.376009037137603030
0.558000000000000274,-5.335102110500614891
0.559000000000000385,-5.294756091897577122
0.560000000000000275,-5.254961723805045004
0.561000000000000387,-5.215709833862001155
0.562000000000000277,-5.176991336034413749
0.563000000000000389,-5.138797231710111824
0.564000000000000279,-5.101118610725475122
0.565000000000000391,-5.063946652325361342
0.566000000000000281,-5.027272626057747829
0.567000000000000393,-4.991087892604456400
0.568000000000000282,-4.955383904549611529
0.569000000000000394,-4.920152207086917251
0.570000000000000284,-4.885384438667562890
0.571000000000000396,-4.851072331589827868
0.572000000000000286,-4.817207712532129094
0.573000000000000398,-4.783782503030533206
0.574000000000000288,-4.750788719902478974
0.575000000000000400,-4.718218475617853791
0.576000000000000290,-4.686063978618879133
0.577000000000000401,-4.654317533590113243
0.578000000000000291,-4.622971541679993912
0.579000000000000403,-4.592018500675083104
0.580000000000000293,-4.561451005128551728
0.581000000000000405,-4.531261746443941973
0.582000000000000295,-4.501443512915741074
0.583000000000000407,-4.471989189727809233
0.584000000000000297,-4.442891758911075684
0.585000000000000409,-4.414144299261629101
0.586000000000000298,-4.385739986220509756
0.587000000000000410,-4.357672091716291440
0.588000000000000300,-4.329933983971770317
0.589000000000000412,-4.302519127275781230
0.590000000000000302,-4.275421081721406225
0.591000000000000414,-4.248633502911676629
0.592000000000000304,-4.222150141633836284
0.593000000000000416,-4.195964843503277919
0.594000000000000306,-4.170071548578308196
0.595000000000000417,-4.144464290946667795
0.596000000000000307,-4.119137198284946066
0.597000000000000419,-4.094084491391863700
0.598000000000000309,-4.069300483696496329
0.599000000000000421,-4.044779580742263292
0.600000000000000311,-4.020516279647887714
0.601000000000000423,-3.996505168546029552
0.602000000000000313,-3.972740926000747130
0.603000000000000425,-3.949218320404450200
0.604000000000000314,-3.925932209355549762
0.605000000000000426,-3.902877539017333142
0.606000000000000316,-3.880049343459258893
0.607000000000000428,-3.857442743981174260
0.608000000000000318,-3.835052948421643126
0.609000000000000430,-3.812875250450804110
0.610000000000000320,-3.790905028848891245
0.611000000000000432,-3.769137746770915953
0.612000000000000322,-3.747568950998442894
0.613000000000000433,-3.726194271179074313
0.614000000000000323,-3.705009419054450692
0.615000000000000435,-3.684010187677384973
0.616000000000000325,-3.663192450618875995
0.617000000000000437,-3.642552161165609981
0.618000000000000327,-3.622085351508685935
0.619000000000000439,-3.601788131924049452
0.620000000000000329,-3.581656689945432070
0.621000000000000441,-3.561687289530244271
0.622000000000000330,-3.541876270219113110
0.623000000000000442,-3.522220046289524564
0.624000000000000332,-3.502715105904255388
0.625000000000000444,-3.483358010255022119
0.626000000000000334,-3.464145392701920123
0.627000000000000446,-3.445073957909148277
0.628000000000000336,-3.426140480977539760
0.629000000000000448,-3.407341806574309739
0.630000000000000338,-3.388674848060594602
0.631000000000000449,-3.370136586617096697
0.632000000000000339,-3.351724070368422126
0.633000000000000451,-3.333434413506386029
0.634000000000000341,-3.315264795412831145
0.635000000000000453,-3.297212459782263405
0.636000000000000343,-3.279274713744716685
0.637000000000000455,-3.261448926989257480
0.638000000000000345,-3.243732530888435939
0.639000000000000457,-3.226123017624030531
0.640000000000000346,-3.208617939314506007
0.641000000000000458,-3.191214907144384050
0.642000000000000348,-3.173911590495948509
0.643000000000000460,-3.156705716083505919
0.644000000000000350,-3.139595067090579228
0.645000000000000462,-3.122577482310202157
0.646000000000000352,-3.105650855288706325
0.647000000000000464,-3.088813133473133909
0.648000000000000353,-3.072062317362681760
0.649000000000000465,-3.055396459664211584
0.650000000000000355,-3.038813664452288954
0.651000000000000467,-3.022312086333740044
0.652000000000000357,-3.005889929617147516
0.653000000000000469,-2.989545447487298890
0.654000000000000359,-2.973276941184957778
0.655000000000000471,-2.957082759191962840
0.656000000000000361,-2.940961296422004434
0.657000000000000473,-2.924910993417092708
0.658000000000000362,-2.908930335550003576
