# AlFCC110UCD_CS-4481813-AC
# h[nm],U(h)[kJ/mol]
0.200000000000000011,64.419212765855178304
0.201000000000000012,60.273869299862425919
0.202000000000000013,57.931120240185613568
0.203000000000000014,56.425719716936079351
0.204000000000000015,55.207793285774627634
0.205000000000000016,53.993002124824819532
0.206000000000000016,52.659888434018704118
0.207000000000000017,51.181026930314509116
0.208000000000000018,49.578103006196712954
0.209000000000000019,47.893675727630359518
0.210000000000000020,46.174364109022562275
0.211000000000000021,44.461673474030121156
0.212000000000000022,42.787775317505868600
0.213000000000000023,41.174361513048069128
0.214000000000000024,39.633283124567611821
0.215000000000000024,38.168110003136163755
0.216000000000000025,36.776051413292201175
0.217000000000000026,35.449891799552212035
0.218000000000000027,34.179743451508272756
0.219000000000000028,32.954517322061747109
0.220000000000000029,31.763078135728704865
0.221000000000000030,30.595090270677037125
0.222000000000000031,29.441584155674707546
0.223000000000000032,28.295284545035666923
0.224000000000000032,27.150745973145085088
0.225000000000000033,26.004339772937509423
0.226000000000000034,24.854133261009607736
0.227000000000000035,23.699696419776874023
0.228000000000000036,22.541865566843029001
0.229000000000000037,21.382487689973917355
0.230000000000000038,20.224163706706356436
0.231000000000000039,19.070004081835733700
0.232000000000000040,17.923406093581839116
0.233000000000000040,16.787858596040127424
0.234000000000000041,15.666777350721337925
0.235000000000000042,14.563371835182218561
0.236000000000000043,13.480542809468499144
0.237000000000000044,12.420808753875896002
0.238000000000000045,11.386258507943589180
0.239000000000000046,10.378526968933719843
0.240000000000000047,9.398790483476032520
0.241000000000000048,8.447778531597606388
0.242000000000000048,7.525798409137365752
0.243000000000000049,6.632769821548698985
0.244000000000000050,5.768266575619647618
0.245000000000000051,4.931562868557906931
0.246000000000000052,4.121682004887825101
0.247000000000000053,3.337445704349452313
0.248000000000000054,2.577522486377348265
0.249000000000000055,1.840473920172358557
0.250000000000000056,1.124797808130241883
0.251000000000000056,0.428967621022405321
0.252000000000000057,-0.248532275801109759
0.253000000000000058,-0.909175875048331306
0.254000000000000059,-1.554369367191691387
0.255000000000000060,-2.185429541562292410
0.256000000000000061,-2.803566614951118918
0.257000000000000062,-3.409871269027362040
0.258000000000000063,-4.005305613987641067
0.259000000000000064,-4.590697750341877992
0.260000000000000064,-5.166739571142212384
0.261000000000000065,-5.733987430894312176
0.262000000000000066,-6.292865302632500324
0.263000000000000067,-6.843670049139253031
0.264000000000000068,-7.386578446193100334
0.265000000000000069,-7.921655613379658512
0.266000000000000070,-8.448864529939099199
0.267000000000000071,-8.968076338087053401
0.268000000000000071,-9.479081163147878186
0.269000000000000072,-9.981599207768153903
0.270000000000000073,-10.475291905674003701
0.271000000000000074,-10.959772948280937399
0.272000000000000075,-11.434619024468030801
0.273000000000000076,-11.899380139606012818
0.274000000000000077,-12.353589404199089685
0.275000000000000078,-12.796772205059108174
0.276000000000000079,-13.228454692649066260
0.277000000000000079,-13.648171537040576951
0.278000000000000080,-14.055472921802149244
0.279000000000000081,-14.449930760095204718
0.280000000000000082,-14.831144130348718591
0.281000000000000083,-15.198743940189936907
0.282000000000000084,-15.552396836920305390
0.283000000000000085,-15.891808390850556520
0.284000000000000086,-16.216725584364176882
0.285000000000000087,-16.526938644784316068
0.286000000000000087,-16.822282263100980515
0.287000000000000088,-17.102636243495091151
0.288000000000000089,-17.367925630494550404
0.289000000000000090,-17.618120361631913084
0.290000000000000091,-17.853234493752509593
0.291000000000000092,-18.073325050754156962
0.292000000000000093,-18.278490539618548638
0.293000000000000094,-18.468869180213772552
0.294000000000000095,-18.644636892588458466
0.295000000000000095,-18.806005083417332457
0.296000000000000096,-18.953218270962604919
0.297000000000000097,-19.086551585448056301
0.298000000000000098,-19.206308179155207938
0.299000000000000099,-19.312816577893539005
0.300000000000000100,-19.406428002808134181
0.301000000000000101,-19.487513688806622270
0.302000000000000102,-19.556462223241162235
0.303000000000000103,-19.613676925897610914
0.304000000000000103,-19.659573288842771888
0.305000000000000104,-19.694576492279555424
0.306000000000000105,-19.719119010272184056
0.307000000000000106,-19.733638318039091075
0.308000000000000107,-19.738574710477688967
0.309000000000000108,-19.734369239687392650
0.310000000000000109,-19.721461777497214740
0.311000000000000110,-19.700289207383576695
0.312000000000000111,-19.671283748680849612
0.313000000000000111,-19.634871414639938791
0.314000000000000112,-19.591470604674906753
0.315000000000000113,-19.541490830050467054
0.316000000000000114,-19.485331571298715403
0.317000000000000115,-19.423381264805854585
0.318000000000000116,-19.356016415273053610
0.319000000000000117,-19.283600830123766912
0.320000000000000118,-19.206484971395493488
0.321000000000000119,-19.125005420211014240
0.322000000000000119,-19.039484448565580976
0.323000000000000120,-18.950229692885923072
0.324000000000000121,-18.857533923607210369
0.325000000000000122,-18.761674904869874325
0.326000000000000123,-18.662915338351822925
0.327000000000000124,-18.561502885218814640
0.328000000000000125,-18.457670260189885880
0.329000000000000126,-18.351635391770244610
0.330000000000000127,-18.243601642796750895
0.331000000000000127,-18.133758085565730767
0.332000000000000128,-18.022279825964620414
0.333000000000000129,-17.909328371204352948
0.334000000000000130,-17.795052035944234348
0.335000000000000131,-17.679586381811894569
0.336000000000000132,-17.563054685544166489
0.337000000000000133,-17.445568431208400284
0.338000000000000134,-17.327227822203418839
0.339000000000000135,-17.208122308984936666
0.340000000000000135,-17.088331128707004325
0.341000000000000136,-16.967923853219225805
0.342000000000000137,-16.846960942105905445
0.343000000000000138,-16.725494297697316881
0.344000000000000139,-16.603567819222480040
0.345000000000000140,-16.481217953508135565
0.346000000000000141,-16.358474239855915755
0.347000000000000142,-16.235359846951485707
0.348000000000000143,-16.111892099872726192
0.349000000000000143,-15.988082995468952063
0.350000000000000144,-15.863939704579760104
0.351000000000000145,-15.739465059749395692
0.352000000000000146,-15.614658027270298390
0.353000000000000147,-15.489514162558432275
0.354000000000000148,-15.364026048021674598
0.355000000000000149,-15.238183712732276121
0.356000000000000150,-15.111975033354394071
0.357000000000000151,-14.985386115908401194
0.358000000000000151,-14.858401658075246488
0.359000000000000152,-14.731005291856622108
0.360000000000000153,-14.603179906510543873
0.361000000000000154,-14.474907951777293391
0.362000000000000155,-14.346171721497643858
0.363000000000000156,-14.216953617804739096
0.364000000000000157,-14.087236396142269967
0.365000000000000158,-13.957003391426548333
0.366000000000000159,-13.826238725726984313
0.367000000000000159,-13.694927497890759582
0.368000000000000160,-13.563055955582285605
0.369000000000000161,-13.430611650246529365
0.370000000000000162,-13.297583575538954648
0.371000000000000163,-13.163962289792934257
0.372000000000000164,-13.029740023118520753
0.373000000000000165,-12.894910769745646206
0.374000000000000166,-12.759470366238968353
0.375000000000000167,-12.623416556222537110
0.376000000000000167,-12.486749042259429388
0.377000000000000168,-12.349469525535146985
0.378000000000000169,-12.211581733994336219
0.379000000000000170,-12.073091439578567119
0.380000000000000171,-11.934006465207755099
0.381000000000000172,-11.794336682141684847
0.382000000000000173,-11.654093998348470151
0.383000000000000174,-11.513292338496690093
0.384000000000000175,-11.371947616175059892
0.385000000000000175,-11.230077698930124086
0.386000000000000176,-11.087702366697111955
0.387000000000000177,-10.944843264183159448
0.388000000000000178,-10.801523847745157170
0.389000000000000179,-10.657769327286358063
0.390000000000000180,-10.513606603677938978
0.391000000000000181,-10.369064202192278756
0.392000000000000182,-10.224172202416010435
0.393000000000000183,-10.078962165090691983
0.394000000000000183,-9.933467056309741139
0.395000000000000184,-9.787721169480303018
0.396000000000000185,-9.641760045438674709
0.397000000000000186,-9.495620391088721135
0.398000000000000187,-9.349339996912627626
0.399000000000000188,-9.202957653684297412
0.400000000000000189,-9.056513068696730784
0.401000000000000190,-8.910046781795468718
0.402000000000000191,-8.763600081492635141
0.403000000000000191,-8.617214921417277296
0.404000000000000192,-8.470933837340847816
0.405000000000000193,-8.324799864999196330
0.406000000000000194,-8.178856458916069272
0.407000000000000195,-8.033147412417180888
0.408000000000000196,-7.887716779007926782
0.409000000000000197,-7.742608795273445921
0.410000000000000198,-7.597867805444910694
0.411000000000000199,-7.453538187762141831
0.412000000000000199,-7.309664282749355202
0.413000000000000200,-7.166290323508269111
0.414000000000000201,-7.023460368120339581
0.415000000000000202,-6.881218234238448694
0.416000000000000203,-6.739607435937483793
0.417000000000000204,-6.598671122882278084
0.418000000000000205,-6.458452021861970316
0.419000000000000206,-6.318992380730113823
0.420000000000000207,-6.180333914780870685
0.421000000000000207,-6.042517755583690864
0.422000000000000208,-5.905584402290395829
0.423000000000000209,-5.769573675421767689
0.424000000000000210,-5.634524673133435968
0.425000000000000211,-5.500475729954518833
0.426000000000000212,-5.367464377986598478
0.427000000000000213,-5.235527310544765278
0.428000000000000214,-5.104700348217650507
0.429000000000000214,-4.975018407318242630
0.430000000000000215,-4.846515470693169014
0.431000000000000216,-4.719224560854184070
0.432000000000000217,-4.593177715391567162
0.433000000000000218,-4.468405964626365190
0.434000000000000219,-4.344939311455023656
0.435000000000000220,-4.222806713337527107
0.436000000000000221,-4.102036066377684698
0.437000000000000222,-3.982654191442144054
0.438000000000000222,-3.864686822262962895
0.439000000000000223,-3.748158595466919873
0.440000000000000224,-3.633093042473463985
0.441000000000000225,-3.519512583202020206
0.442000000000000226,-3.407438521528813880
0.443000000000000227,-3.296891042432121388
0.444000000000000228,-3.187889210764977221
0.445000000000000229,-3.080450971593605036
0.446000000000000230,-2.974593152039941124
0.447000000000000230,-2.870331464566527213
0.448000000000000231,-2.767680511642206298
0.449000000000000232,-2.666653791727369605
0.450000000000000233,-2.567263706517910471
0.451000000000000234,-2.469521569387521431
0.452000000000000235,-2.373437614968683107
0.453000000000000236,-2.279021009813267717
0.454000000000000237,-2.186279864074744506
0.455000000000000238,-2.095221244154550799
0.456000000000000238,-2.005851186256506047
0.457000000000000239,-1.918174710793782323
0.458000000000000240,-1.832195837594534638
0.459000000000000241,-1.747917601852846614
0.460000000000000242,-1.665342070773447647
0.461000000000000243,-1.584470360859341564
0.462000000000000244,-1.505302655793230304
0.463000000000000245,-1.427838224864442118
0.464000000000000246,-1.352075441894837526
0.465000000000000246,-1.278011804618217839
0.466000000000000247,-1.205643954469187706
0.467000000000000248,-1.134967696738793608
0.468000000000000249,-1.065978021055731251
0.469000000000000250,-0.998669122153084565
0.470000000000000251,-0.933034420882182025
0.471000000000000252,-0.869066585436261696
0.472000000000000253,-0.806757552748329054
0.473000000000000254,-0.746098550028667207
0.474000000000000254,-0.687080116408952168
0.475000000000000255,-0.629692124661300534
0.476000000000000256,-0.573923802961765595
0.477000000000000257,-0.519763756669308519
0.478000000000000258,-0.467199990092336204
0.479000000000000259,-0.416219928216371493
0.480000000000000260,-0.366810438367567659
0.481000000000000261,-0.318957851787982805
0.482000000000000262,-0.272647985099898738
0.483000000000000262,-0.227866161637418907
0.484000000000000263,-0.184597232624956531
0.485000000000000264,-0.142825598183173114
0.486000000000000265,-0.102535228144205876
0.487000000000000266,-0.063709682658966260
0.488000000000000267,-0.026332132580339764
0.489000000000000268,0.009614620392659413
0.490000000000000269,0.044148123824082154
0.491000000000000270,0.077286254916529740
0.492000000000000270,0.109047201165305391
0.493000000000000271,0.139449441302360644
0.494000000000000272,0.168511726540599732
0.495000000000000273,0.196253062127996453
0.496000000000000274,0.222692689220282153
0.497000000000000275,0.247850067080218395
0.498000000000000276,0.271744855610507763
0.499000000000000277,0.294396898226910175
0.500000000000000222,0.315826205077184397
0.501000000000000334,0.336052936610981012
0.502000000000000224,0.355097387504981987
0.503000000000000336,0.372979970947163841
0.504000000000000226,0.389721203283181383
0.505000000000000338,0.405341689027613139
0.506000000000000227,0.419862106241877808
0.507000000000000339,0.433303192280539595
0.508000000000000229,0.445685729906782568
0.509000000000000341,0.457030533777676440
0.510000000000000231,0.467358437299173868
0.511000000000000343,0.476690279850549625
0.512000000000000233,0.485046894377380966
0.513000000000000345,0.492449095351904009
0.514000000000000234,0.498917667099111006
0.515000000000000346,0.504473352486757287
0.516000000000000236,0.509136841976910892
0.517000000000000348,0.512928763036500035
0.518000000000000238,0.515869669904028272
0.519000000000000350,0.517980033709219190
0.520000000000000240,0.519280232942266329
0.521000000000000352,0.519790544268960319
0.522000000000000242,0.519531133687892499
0.523000000000000353,0.518522048025537030
0.524000000000000243,0.516783206765047964
0.525000000000000355,0.514334394204211565
0.526000000000000245,0.511195251937959450
0.527000000000000357,0.507385271660654946
0.528000000000000247,0.502923788283210937
0.529000000000000359,0.497829973360022937
0.530000000000000249,0.492122828820498737
0.531000000000000361,0.485821180999966185
0.532000000000000250,0.478943674964558141
0.533000000000000362,0.471508769124641958
0.534000000000000252,0.463534730131343053
0.535000000000000364,0.455039628050422196
0.536000000000000254,0.446041331808113395
0.537000000000000366,0.436557504903038462
0.538000000000000256,0.426605601378638954
0.539000000000000368,0.416202862050328026
0.540000000000000258,0.405366310981653821
0.541000000000000369,0.394112752203664596
0.542000000000000259,0.382458766671814443
0.543000000000000371,0.370420709454539754
0.544000000000000261,0.358014707147834399
0.545000000000000373,0.345256655510068566
0.546000000000000263,0.332162217311373631
0.547000000000000375,0.318746820391810792
0.548000000000000265,0.305025655922840977
0.549000000000000377,0.291013676866281545
0.550000000000000266,0.276725596625384984
0.551000000000000378,0.262175887882304837
0.552000000000000268,0.247378781616642118
0.553000000000000380,0.232348266299531481
0.554000000000000270,0.217098087257964339
0.555000000000000382,0.201641746203979094
0.556000000000000272,0.185992500923525872
0.557000000000000384,0.170163365119789273
0.558000000000000274,0.154167108405840303
0.559000000000000385,0.138016256441607393
0.560000000000000275,0.121723091210158937
0.561000000000000387,0.105299651428378577
0.562000000000000277,0.088757733087303337
0.563000000000000389,0.072108890117210972
0.564000000000000279,0.055364435172959581
0.565000000000000391,0.038535440534817535
0.566000000000000281,0.021632739120455158
0.567000000000000393,0.004666925603478189
0.568000000000000282,-0.012351642365691046
0.569000000000000394,-0.029412842840973591
0.570000000000000284,-0.046506788167865590
0.571000000000000396,-0.063623823481048281
0.572000000000000286,-0.080754525116182446
0.573000000000000398,-0.097889698939962813
0.574000000000000288,-0.115020378602172027
0.575000000000000400,-0.132137823713634806
0.576000000000000290,-0.149233517953546058
0.577000000000000401,-0.166299167109992568
0.578000000000000291,-0.183326697057002358
0.579000000000000403,-0.200308251671628079
0.580000000000000293,-0.217236190694374665
0.581000000000000405,-0.234103087536311566
0.582000000000000295,-0.250901727035873545
0.583000000000000407,-0.267625103168678602
0.584000000000000297,-0.284266416713142345
0.585000000000000409,-0.300819072875052052
0.586000000000000298,-0.317276678873727291
0.587000000000000410,-0.333633041492783111
0.588000000000000300,-0.349882164597963063
0.589000000000000412,-0.366018246624880694
0.590000000000000302,-0.382035678039025051
0.591000000000000414,-0.397929038770691190
0.592000000000000304,-0.413693095627049701
0.593000000000000416,-0.429322799683844902
0.594000000000000306,-0.444813283658858805
0.595000000000000417,-0.460159859269430260
0.596000000000000307,-0.475358014576006904
0.597000000000000419,-0.490403411313935667
0.598000000000000309,-0.505291882215381127
0.599000000000000421,-0.520019428323256427
0.600000000000000311,-0.534582216299107182
0.601000000000000423,-0.548976575726689342
0.602000000000000313,-0.563198996412913377
0.603000000000000425,-0.577246125687927991
0.604000000000000314,-0.591114765705821554
0.605000000000000426,-0.604801870747598169
0.606000000000000316,-0.618304544527811806
0.607000000000000428,-0.631620037506350762
0.608000000000000318,-0.644745744206720817
0.609000000000000430,-0.657679200542172437
0.610000000000000320,-0.670418081150849110
0.611000000000000432,-0.682960196741318804
0.612000000000000322,-0.695303491449477673
0.613000000000000433,-0.707446040208078886
0.614000000000000323,-0.719386046129876888
0.615000000000000435,-0.731121837905428174
0.616000000000000325,-0.742651867216471362
0.617000000000000437,-0.753974706165919217
0.618000000000000327,-0.765089044725199341
0.619000000000000439,-0.775993688199903220
0.620000000000000329,-0.786687554714471160
0.621000000000000441,-0.797169672716685707
0.622000000000000330,-0.807439178502695087
0.623000000000000442,-0.817495313763252796
0.624000000000000332,-0.827337423151744189
0.625000000000000444,-0.836964951874736629
0.626000000000000334,-0.846377443305453725
0.627000000000000446,-0.855574536620861692
0.628000000000000336,-0.864555964462746629
0.629000000000000448,-0.873321550623332499
0.630000000000000338,-0.881871207755799857
0.631000000000000449,-0.890204935110199047
0.632000000000000339,-0.898322816295038629
0.633000000000000451,-0.906225017064960725
0.634000000000000341,-0.913911783134769840
0.635000000000000453,-0.921383438020192735
0.636000000000000343,-0.928640380905471297
0.637000000000000455,-0.935683084538252330
0.638000000000000345,-0.942512093151740893
0.639000000000000457,-0.949128020414525486
0.640000000000000346,-0.955531547408080328
0.641000000000000458,-0.961723420632210946
0.642000000000000348,-0.967704450038452846
0.643000000000000460,-0.973475507091640102
0.644000000000000350,-0.979037522859629306
0.645000000000000462,-0.984391486131316440
0.646000000000000352,-0.989538441562920257
0.647000000000000464,-0.994479487852651389
0.648000000000000353,-0.999215775943669504
0.649000000000000465,-1.003748507255423750
0.650000000000000355,-1.008078931943274359
0.651000000000000467,-1.012208347186406288
0.652000000000000357,-1.016138095503976491
0.653000000000000469,-1.019869563099390586
0.654000000000000359,-1.023404178232697248
0.655000000000000471,-1.026743409620939573
0.656000000000000361,-1.029888764866391915
0.657000000000000473,-1.032841788912583825
0.658000000000000362,-1.035604062527928804
0.659000000000000474,-1.038177200816877921
0.660000000000000364,-1.040562851758403351
0.661000000000000476,-1.042762694771694587
0.662000000000000366,-1.044778439308849949
