# AlFCC110UCD_CS-86862-AC
# h[nm],U(h)[kJ/mol]
0.149999999999999994,128.107253070093065617
0.150999999999999995,123.942947574765554464
0.151999999999999996,121.213586510933595264
0.152999999999999997,118.833430089812438268
0.153999999999999998,116.396680397940514240
0.154999999999999999,113.819894088670338306
0.156000000000000000,111.147984816590152946
0.157000000000000001,108.456799532724289747
0.158000000000000002,105.810411325883734435
0.159000000000000002,103.247614406345746829
0.160000000000000003,100.782559731143507520
0.161000000000000004,98.411027971738946007
0.162000000000000005,96.117851120541800469
0.163000000000000006,93.883372285958458292
0.164000000000000007,91.688178387966473792
0.165000000000000008,89.516048943509929359
0.166000000000000009,87.355392692273966304
0.167000000000000010,85.199555828633336318
0.168000000000000010,83.046382659143645810
0.169000000000000011,80.897352853581708132
0.170000000000000012,78.756544471404424712
0.171000000000000013,76.629597728338467277
0.172000000000000014,74.522790187068494561
0.173000000000000015,72.442283044817330051
0.174000000000000016,70.393560555264713230
0.175000000000000017,68.381058857729101419
0.176000000000000018,66.407964443325198545
0.177000000000000018,64.476153921257179036
0.178000000000000019,62.586243605628318676
0.179000000000000020,60.737717989734278490
0.180000000000000021,58.929109028055904673
0.181000000000000022,57.158202257131236479
0.182000000000000023,55.422250397491076512
0.183000000000000024,53.718179672116662005
0.184000000000000025,52.042778323464325752
0.185000000000000026,50.392860524628602548
0.186000000000000026,48.765401977585533189
0.187000000000000027,47.157645960915985484
0.188000000000000028,45.567180465511057719
0.189000000000000029,43.991988401513140161
0.190000000000000030,42.430473748794341304
0.191000000000000031,40.881467036285933148
0.192000000000000032,39.344213749710831962
0.193000000000000033,37.818349253629023110
0.194000000000000034,36.303863634554446094
0.195000000000000034,34.801059580184656284
0.196000000000000035,33.310506049028305142
0.197000000000000036,31.832990089554137114
0.198000000000000037,30.369468765044850045
0.199000000000000038,28.921022749267915941
0.200000000000000039,27.488812792630120896
0.201000000000000040,26.074039927568502861
0.202000000000000041,24.677909990586755384
0.203000000000000042,23.301602788605116245
0.204000000000000042,21.946246028926623239
0.205000000000000043,20.612893963297246103
0.206000000000000044,19.302510564301382345
0.207000000000000045,18.015956953074894642
0.208000000000000046,16.753982727059231195
0.209000000000000047,15.517220791191864038
0.210000000000000048,14.306185271544439530
0.211000000000000049,13.121272083208111781
0.212000000000000050,11.962761730708583841
0.213000000000000050,10.830823936295237431
0.214000000000000051,9.725523716330972235
0.215000000000000052,8.646828556346507710
0.216000000000000053,7.594616369103286857
0.217000000000000054,6.568683955570489452
0.218000000000000055,5.568755724715158451
0.219000000000000056,4.594492463368833768
0.220000000000000057,3.645499981347582352
0.221000000000000058,2.721337488881231170
0.222000000000000058,1.821525592822504480
0.223000000000000059,0.945553824817440214
0.224000000000000060,0.092887638481235518
0.225000000000000061,-0.737025166382901498
0.226000000000000062,-1.544748616310302580
0.227000000000000063,-2.330853341768669651
0.228000000000000064,-3.095911955222603318
0.229000000000000065,-3.840495014517525618
0.230000000000000066,-4.565167548028294497
0.231000000000000066,-5.270486111555349851
0.232000000000000067,-5.956996342204129213
0.233000000000000068,-6.625230971242179301
0.234000000000000069,-7.275708255981359507
0.235000000000000070,-7.908930789886879253
0.236000000000000071,-8.525384650185923618
0.237000000000000072,-9.125538843073368156
0.238000000000000073,-9.709845008034715619
0.239000000000000073,-10.278737344694087952
0.240000000000000074,-10.832632727831562391
0.241000000000000075,-11.371930978688755687
0.242000000000000076,-11.897015263310930067
0.243000000000000077,-12.408252591379582697
0.244000000000000078,-12.905994391707627855
0.245000000000000079,-13.390577143249165815
0.246000000000000080,-13.862323043073695672
0.247000000000000081,-14.321540695240978280
0.248000000000000081,-14.768525806858741944
0.249000000000000082,-15.203561879796094303
0.250000000000000111,-15.626920888549255650
0.251000000000000112,-16.038863936603590332
0.252000000000000113,-16.439641885309704605
0.253000000000000114,-16.829495950785062774
0.254000000000000115,-17.208658265679869004
0.255000000000000115,-17.577352403803711667
0.256000000000000116,-17.935793866612979031
0.257000000000000117,-18.284190531413553771
0.258000000000000118,-18.622743061850023594
0.259000000000000119,-18.951645281843148894
0.260000000000000120,-19.271084514612574878
0.261000000000000121,-19.581241888790430039
0.262000000000000122,-19.882292613909111623
0.263000000000000123,-20.174406227738455044
0.264000000000000123,-20.457746818068422101
0.265000000000000124,-20.732473221589906132
0.266000000000000125,-20.998739202529360881
0.267000000000000126,-21.256693613649037644
0.268000000000000127,-21.506480542144835510
0.269000000000000128,-21.748239442860537451
0.270000000000000129,-21.982105261101441585
0.271000000000000130,-22.208208547175598113
0.272000000000000131,-22.426675564621774583
0.273000000000000131,-22.637628393906474855
0.274000000000000132,-22.841185033189411513
0.275000000000000133,-23.037459497573632206
0.276000000000000134,-23.226561918073628021
0.277000000000000135,-23.408598641356370251
0.278000000000000136,-23.583672331137865541
0.279000000000000137,-23.751882071953012598
0.280000000000000138,-23.913323475859989742
0.281000000000000139,-24.068088792495228034
0.282000000000000139,-24.216267022759105032
0.283000000000000140,-24.357944036288365908
0.284000000000000141,-24.493202692758533345
0.285000000000000142,-24.622122966958087886
0.286000000000000143,-24.744782077486433991
0.287000000000000144,-24.861254618848164455
0.288000000000000145,-24.971612696649280849
0.289000000000000146,-25.075926065542020638
0.290000000000000147,-25.174262269518660418
0.291000000000000147,-25.266686784115055531
0.292000000000000148,-25.353263160056453529
0.293000000000000149,-25.434053167855516620
0.294000000000000150,-25.509116942859670019
0.295000000000000151,-25.578513130237361395
0.296000000000000152,-25.642299029392376042
0.297000000000000153,-25.700530737300205431
0.298000000000000154,-25.753263290270496100
0.299000000000000155,-25.800550803653855780
0.300000000000000155,-25.842446609029593674
0.301000000000000156,-25.879003388432021637
0.302000000000000157,-25.910273305198035843
0.303000000000000158,-25.936308131044050640
0.304000000000000159,-25.957159369009808358
0.305000000000000160,-25.972878371935319564
0.306000000000000161,-25.983516456168672448
0.307000000000000162,-25.989125010233557589
0.308000000000000163,-25.989755598216824239
0.309000000000000163,-25.985460057668621658
0.310000000000000164,-25.976290591838839816
0.311000000000000165,-25.962299856104664286
0.312000000000000166,-25.943541038474684512
0.313000000000000167,-25.920067934084308092
0.314000000000000168,-25.891935013625726469
0.315000000000000169,-25.859197485683353079
0.316000000000000170,-25.821911352971625320
0.317000000000000171,-25.780133462496941377
0.318000000000000171,-25.733921549688727026
0.319000000000000172,-25.683334276567336474
0.320000000000000173,-25.628431264035839376
0.321000000000000174,-25.569273118402765732
0.322000000000000175,-25.505921452259837423
0.323000000000000176,-25.438438899854663333
0.324000000000000177,-25.366889127113058322
0.325000000000000178,-25.291336836478215844
0.326000000000000179,-25.211847766746089405
0.327000000000000179,-25.128488688085639069
0.328000000000000180,-25.041327392441889543
0.329000000000000181,-24.950432679527267510
0.330000000000000182,-24.855874338611890551
0.331000000000000183,-24.757723126329761243
0.332000000000000184,-24.656050740720257153
0.333000000000000185,-24.550929791727881479
0.334000000000000186,-24.442433768384404402
0.335000000000000187,-24.330637002898356513
0.336000000000000187,-24.215614631876494656
0.337000000000000188,-24.097442554900744938
0.338000000000000189,-23.976197390682337129
0.339000000000000190,-23.851956431012279580
0.340000000000000191,-23.724797592723547268
0.341000000000000192,-23.594799367877421048
0.342000000000000193,-23.462040772380973408
0.343000000000000194,-23.326601293238603319
0.344000000000000195,-23.188560834634408536
0.345000000000000195,-23.047999663037401774
0.346000000000000196,-22.904998351514425536
0.347000000000000197,-22.759637723430081735
0.348000000000000198,-22.611998795706043097
0.349000000000000199,-22.462162721805263743
0.350000000000000200,-22.310210734599802862
0.351000000000000201,-22.156224089273770517
0.352000000000000202,-22.000284006405621540
0.353000000000000203,-21.842471615367077931
0.354000000000000203,-21.682867898168396437
0.355000000000000204,-21.521553633872450462
0.356000000000000205,-21.358609343693068183
0.357000000000000206,-21.194115236885824771
0.358000000000000207,-21.028151157531944193
0.359000000000000208,-20.860796532309727525
0.360000000000000209,-20.692130319340311218
0.361000000000000210,-20.522230958188224292
0.362000000000000210,-20.351176321090264310
0.363000000000000211,-20.179043665480030256
0.364000000000000212,-20.005909587868998756
0.365000000000000213,-19.831849979138826967
0.366000000000000214,-19.656939981293774622
0.367000000000000215,-19.481253945716286324
0.368000000000000216,-19.304865392963328929
0.369000000000000217,-19.127846974135554348
0.370000000000000218,-18.950270433846515772
0.371000000000000218,-18.772206574813846913
0.372000000000000219,-18.593725224089972414
0.373000000000000220,-18.414895200945188947
0.374000000000000221,-18.235784286411821142
0.375000000000000222,-18.056459194493896803
0.376000000000000223,-17.876985545043069692
0.377000000000000224,-17.697427838297901559
0.378000000000000225,-17.517849431079930866
0.379000000000000226,-17.338312514637003403
0.380000000000000226,-17.158878094121156721
0.381000000000000227,-16.979605969685316325
0.382000000000000228,-16.800554719180901486
0.383000000000000229,-16.621781682435351257
0.384000000000000230,-16.443342947086762251
0.385000000000000231,-16.265293335950538278
0.386000000000000232,-16.087686395890987257
0.387000000000000233,-15.910574388169042237
0.388000000000000234,-15.734008280235707744
0.389000000000000234,-15.558037738939418659
0.390000000000000235,-15.382711125113956996
0.391000000000000236,-15.208075489512788536
0.392000000000000237,-15.034176570054166078
0.393000000000000238,-14.861058790341036939
0.394000000000000239,-14.688765259418309128
0.395000000000000240,-14.517337772730124712
0.396000000000000241,-14.346816814238721349
0.397000000000000242,-14.177241559666104109
0.398000000000000242,-14.008649880819749711
0.399000000000000243,-13.841078350963011090
0.400000000000000244,-13.674562251190669926
0.401000000000000245,-13.509135577770621239
0.402000000000000246,-13.344831050411954720
0.403000000000000247,-13.181680121420239260
0.404000000000000248,-13.019712985701053398
0.405000000000000249,-12.858958591572823948
0.406000000000000250,-12.699444652350422302
0.407000000000000250,-12.541197658661438652
0.408000000000000251,-12.384242891457338587
0.409000000000000252,-12.228604435682349560
0.410000000000000253,-12.074305194563185850
0.411000000000000254,-11.921366904483644333
0.412000000000000255,-11.769810150408344995
0.413000000000000256,-11.619654381820835098
0.414000000000000257,-11.470917929141617009
0.415000000000000258,-11.323618020592768119
0.416000000000000258,-11.177770799476125063
0.417000000000000259,-11.033391341833047150
0.418000000000000260,-10.890493674454457818
0.419000000000000261,-10.749090793210433148
0.420000000000000262,-10.609194681669876559
0.421000000000000263,-10.470816329981111892
0.422000000000000264,-10.333965753985328462
0.423000000000000265,-10.198652014535577237
0.424000000000000266,-10.064883236994907278
0.425000000000000266,-9.932666630887899473
0.426000000000000267,-9.802008509680806725
0.427000000000000268,-9.672914310666397952
0.428000000000000269,-9.545388614930226723
0.429000000000000270,-9.419435167376182250
0.430000000000000271,-9.295056896789638756
0.431000000000000272,-9.172255935917657865
0.432000000000000273,-9.051033641546316844
0.433000000000000274,-8.931390614556130814
0.434000000000000274,-8.813326719937229825
0.435000000000000275,-8.696841106746884265
0.436000000000000276,-8.581932227992636442
0.437000000000000277,-8.468597860424981860
0.438000000000000278,-8.356835124224533118
0.439000000000000279,-8.246640502569139386
0.440000000000000280,-8.138009861067111217
0.441000000000000281,-8.030938467043604589
0.442000000000000282,-7.925421008667841605
0.443000000000000282,-7.821451613909284006
0.444000000000000283,-7.719023869311998354
0.445000000000000284,-7.618130838576666619
0.446000000000000285,-7.518765080940458922
0.447000000000000286,-7.420918669345877738
0.448000000000000287,-7.324583208389715772
0.449000000000000288,-7.229749852044473180
0.450000000000000289,-7.136409321144617124
0.451000000000000290,-7.044551920631000996
0.452000000000000290,-6.954167556547046658
0.453000000000000291,-6.865245752780934296
0.454000000000000292,-6.777775667548537442
0.455000000000000293,-6.691746109612211058
0.456000000000000294,-6.607145554231188100
0.457000000000000295,-6.523962158839657022
0.458000000000000296,-6.442183778449036780
0.459000000000000297,-6.361797980771484617
0.460000000000000298,-6.282792061061936550
0.461000000000000298,-6.205153056676506296
0.462000000000000299,-6.128867761345350829
0.463000000000000300,-6.053922739158452693
0.464000000000000301,-5.980304338263239927
0.465000000000000302,-5.907998704273211388
0.466000000000000303,-5.836991793386937744
0.467000000000000304,-5.767269385217344002
0.468000000000000305,-5.698817095331349947
0.469000000000000306,-5.631620387500136715
0.470000000000000306,-5.565664585660771380
0.471000000000000307,-5.500934885589913392
0.472000000000000308,-5.437416366290898750
0.473000000000000309,-5.375094001095328089
0.474000000000000310,-5.313952668480879993
0.475000000000000311,-5.253977162606934037
0.476000000000000312,-5.195152203570204463
0.477000000000000313,-5.137462447382126207
0.478000000000000314,-5.080892495670651599
0.479000000000000314,-5.025426905108713704
0.480000000000000315,-4.971050196571977331
0.481000000000000316,-4.917746864028703868
0.482000000000000317,-4.865501383164518856
0.483000000000000318,-4.814298219745122509
0.484000000000000319,-4.764121837720042052
0.485000000000000320,-4.714956707070699693
0.486000000000000321,-4.666787311406018546
0.487000000000000322,-4.619598155309053489
0.488000000000000322,-4.573373771438057567
0.489000000000000323,-4.528098727385673428
0.490000000000000324,-4.483757632299722573
0.491000000000000325,-4.440335143269433793
0.492000000000000326,-4.397815971480720343
0.493000000000000327,-4.356184888144412071
0.494000000000000328,-4.315426730201233241
0.495000000000000329,-4.275526405807388741
0.496000000000000330,-4.236468899604695970
0.497000000000000330,-4.198239277779166834
0.498000000000000331,-4.160822692911994025
0.499000000000000332,-4.124204388626941054
0.500000000000000333,-4.088369704038081309
0.501000000000000334,-4.053304078001884747
0.502000000000000335,-4.018993053177625896
0.503000000000000336,-3.985422279900161069
0.504000000000000337,-3.952577519868963662
0.505000000000000338,-3.920444649657473413
0.506000000000000338,-3.889009664046708448
0.507000000000000339,-3.858258679187019702
0.508000000000000340,-3.828177935592021353
0.509000000000000341,-3.798753800968546646
0.510000000000000342,-3.769972772886506895
0.511000000000000343,-3.741821481292544327
0.512000000000000344,-3.714286690871281937
0.513000000000000345,-3.687355303257981554
0.514000000000000346,-3.661014359106403937
0.515000000000000346,-3.635251040015526236
0.516000000000000347,-3.610052670318870671
0.517000000000000348,-3.585406718740129062
0.518000000000000349,-3.561300799918581284
0.519000000000000350,-3.537722675807993600
0.520000000000000351,-3.514660256952482520
0.521000000000000352,-3.492101603642820518
0.522000000000000353,-3.470034926956645727
0.523000000000000353,-3.448448589685912502
0.524000000000000354,-3.427331107155032974
0.525000000000000355,-3.406671147932890165
0.526000000000000356,-3.386457534442028905
0.527000000000000357,-3.366679243468249094
0.528000000000000358,-3.347325406573648188
0.529000000000000359,-3.328385310416326348
0.530000000000000360,-3.309848396979702123
0.531000000000000361,-3.291704263714502865
0.532000000000000361,-3.273942663596289382
0.533000000000000362,-3.256553505101492441
0.534000000000000363,-3.239526852104726906
0.535000000000000364,-3.222852923700176397
0.536000000000000365,-3.206522093949806695
0.537000000000000366,-3.190524891561049348
0.538000000000000367,-3.174851999496583144
0.539000000000000368,-3.159494254518826040
0.540000000000000369,-3.144442646671553376
0.541000000000000369,-3.129688318701242977
0.542000000000000370,-3.115222565420443956
0.543000000000000371,-3.101036833015567318
0.544000000000000372,-3.087122718301452018
0.545000000000000373,-3.073471967924890524
0.546000000000000374,-3.060076477519351190
0.547000000000000375,-3.046928290813062379
0.548000000000000376,-3.034019598692574426
0.549000000000000377,-3.021342738223816049
0.550000000000000377,-3.008890191632646260
0.551000000000000378,-2.996654585246945057
0.552000000000000379,-2.984628688402021446
0.553000000000000380,-2.972805412311336770
0.554000000000000381,-2.961177808904218445
0.555000000000000382,-2.949739069632479449
0.556000000000000383,-2.938482524247511218
0.557000000000000384,-2.927401639549669365
0.558000000000000385,-2.916490018111462579
0.559000000000000385,-2.905741396976246893
0.560000000000000386,-2.895149646333831761
0.561000000000000387,-2.884708768174645943
0.562000000000000388,-2.874412894923807027
0.563000000000000389,-2.864256288056575173
0.564000000000000390,-2.854233336696531786
0.565000000000000391,-2.844338556197843815
0.566000000000000392,-2.834566586712890857
0.567000000000000393,-2.824912191746531853
0.568000000000000393,-2.815370256698194851
0.569000000000000394,-2.805935787393022629
0.570000000000000395,-2.796603908603163546
0.571000000000000396,-2.787369862560345801
0.572000000000000397,-2.778229007460834676
0.573000000000000398,-2.769176815963724003
0.574000000000000399,-2.760208873683672515
0.575000000000000400,-2.751320877678962606
0.576000000000000401,-2.742508634935874490
0.577000000000000401,-2.733768060850277237
0.578000000000000402,-2.725095177707278715
0.579000000000000403,-2.716486113159787941
0.580000000000000404,-2.707937098706837187
0.581000000000000405,-2.699444468172401912
0.582000000000000406,-2.691004656185485455
0.583000000000000407,-2.682614196662216788
0.584000000000000408,-2.674269721290621682
0.585000000000000409,-2.665967958018763628
0.586000000000000409,-2.657705729546905982
0.587000000000000410,-2.649479951824287305
0.588000000000000411,-2.641287632551125419
0.589000000000000412,-2.633125869686416376
0.590000000000000413,-2.624991849962062584
0.591000000000000414,-2.616882847403868784
0.592000000000000415,-2.608796221859892572
0.593000000000000416,-2.600729417536628230
0.594000000000000417,-2.592679961543494116
0.595000000000000417,-2.584645462446040654
0.596000000000000418,-2.576623608828286560
0.597000000000000419,-2.568612167864623874
0.598000000000000420,-2.560608983901591973
0.599000000000000421,-2.552611977049951353
0.600000000000000422,-2.544619141787336059
0.601000000000000423,-2.536628545571855131
0.602000000000000424,-2.528638327466883329
0.603000000000000425,-2.520646696777403939
0.604000000000000425,-2.512651931698101748
0.605000000000000426,-2.504652377973479283
0.606000000000000427,-2.496646447570306293
0.607000000000000428,-2.488632617362444677
0.608000000000000429,-2.480609427828520452
