# AlFCC110UCD_Water
# h[nm],U(h)[kJ/mol]
0.149999999999999994,62.181591172112199217
0.150999999999999995,61.093566658627423749
0.151999999999999996,60.304649693414930312
0.152999999999999997,59.532225337925410713
0.153999999999999998,58.695604334099414245
0.154999999999999999,57.799272577838962661
0.156000000000000000,56.873793093165417645
0.157000000000000001,55.949153096388350548
0.158000000000000002,55.045365398124509682
0.159000000000000002,54.171460145610673464
0.160000000000000003,53.327919565267350777
0.161000000000000004,52.509971596268634642
0.162000000000000005,51.710536338405290735
0.163000000000000006,50.922384936279861734
0.164000000000000007,50.139465411916873450
0.165000000000000008,49.357528033448048177
0.166000000000000009,48.574240326860660844
0.167000000000000010,47.788977444951562745
0.168000000000000010,47.002441810547807677
0.169000000000000011,46.216226061901984679
0.170000000000000012,45.432395324833919403
0.171000000000000013,44.653133150703737897
0.172000000000000014,43.880471383010743125
0.173000000000000015,43.116107391123719594
0.174000000000000016,42.361301429105076011
0.175000000000000017,41.616840997929934076
0.176000000000000018,40.883056710586529903
0.177000000000000018,40.159874156058705807
0.178000000000000019,39.446887725247151479
0.179000000000000020,38.743444614452720032
0.180000000000000021,38.048729770398225014
0.181000000000000022,37.361845056670773602
0.182000000000000023,36.681878203115644510
0.183000000000000024,36.007959039544751079
0.184000000000000025,35.339302072461165949
0.185000000000000026,34.675235642459682595
0.186000000000000026,34.015218732385093858
0.187000000000000027,33.358847029151192487
0.188000000000000028,32.705850128395681509
0.189000000000000029,32.056081863992936576
0.190000000000000030,31.409505693252857128
0.191000000000000031,30.766176916902843175
0.192000000000000032,30.126223297345575247
0.193000000000000033,29.489825388871345524
0.194000000000000034,28.857197632525480202
0.195000000000000034,28.228571013268073386
0.196000000000000035,27.604177839869333155
0.197000000000000036,26.984238996339705352
0.198000000000000037,26.368953831854724967
0.199000000000000038,25.758492705699261194
0.200000000000000039,25.152992084346497137
0.201000000000000040,24.552551997626586910
0.202000000000000041,23.957235597333202293
0.203000000000000042,23.367070521330017385
0.204000000000000042,22.782051745779462237
0.205000000000000043,22.202145604036523707
0.206000000000000044,21.627294659683695244
0.207000000000000045,21.057423140039976062
0.208000000000000046,20.492442662483878024
0.209000000000000047,19.932258016671482892
0.210000000000000048,19.376772799150412396
0.211000000000000049,18.825894731276218153
0.212000000000000050,18.279540525361838377
0.213000000000000050,17.737640196586159647
0.214000000000000051,17.200140748566251858
0.215000000000000052,16.667009188121820529
0.216000000000000053,16.138234849286032357
0.217000000000000054,15.613831027873697366
0.218000000000000055,15.093835945868397275
0.219000000000000056,14.578313079609159786
0.220000000000000057,14.067350897393803066
0.221000000000000058,13.561062060889899072
0.222000000000000058,13.059582150900814312
0.223000000000000059,12.563067981859372679
0.224000000000000060,12.071695571197675889
0.225000000000000061,11.585657829762523008
0.226000000000000062,11.105162037991087587
0.227000000000000063,10.630427169900739770
0.228000000000000064,10.161681123330179588
0.229000000000000065,9.699157910524057513
0.230000000000000066,9.243094858289158111
0.231000000000000066,8.793729861745463339
0.232000000000000067,8.351298730313875041
0.233000000000000068,7.916032659155317397
0.234000000000000069,7.488155853921547589
0.235000000000000070,7.067883331487438525
0.236000000000000071,6.655418914384350515
0.237000000000000072,6.250953432000980747
0.238000000000000073,5.854663137305581522
0.239000000000000073,5.466708343901125033
0.240000000000000074,5.087232284667779325
0.241000000000000075,4.716360190086793303
0.242000000000000076,4.354198581571781190
0.243000000000000077,4.000834772751592716
0.244000000000000078,3.656336569639996981
0.245000000000000079,3.320752158972386958
0.246000000000000080,2.994110172669227410
0.247000000000000081,2.676419915373817293
0.248000000000000081,2.367671741285998444
0.249000000000000082,2.067837566045346076
0.250000000000000111,1.776871499181614578
0.251000000000000112,1.494710582621134431
0.252000000000000113,1.221275620888572888
0.253000000000000114,0.956472088951717536
0.254000000000000115,0.700191104096158812
0.255000000000000115,0.452310448768194928
0.256000000000000116,0.212695631964804482
0.257000000000000117,-0.018799022538427489
0.258000000000000118,-0.242329272064285478
0.259000000000000119,-0.458059845154850709
0.260000000000000120,-0.666163335247311195
0.261000000000000121,-0.866819106375588233
0.262000000000000122,-1.060212218528641559
0.263000000000000123,-1.246532379464603268
0.264000000000000123,-1.425972928965804742
0.265000000000000124,-1.598729860729193319
0.266000000000000125,-1.765000886326025364
0.267000000000000126,-1.924984544938262543
0.268000000000000127,-2.078879361890778821
0.269000000000000128,-2.226883058350478173
0.270000000000000129,-2.369191813958249071
0.271000000000000130,-2.505999583598450098
0.272000000000000131,-2.637497468993319494
0.273000000000000131,-2.763873145337311321
0.274000000000000132,-2.885310342757619217
0.275000000000000133,-3.001988382001792743
0.276000000000000134,-3.114081763409851433
0.277000000000000135,-3.221759807925161478
0.278000000000000136,-3.325186348634441735
0.279000000000000137,-3.424519471099915169
0.280000000000000138,-3.519911300554345424
0.281000000000000139,-3.611507833870478912
0.282000000000000139,-3.699448814087649140
0.283000000000000140,-3.783867645178237815
0.284000000000000141,-3.864891344662879646
0.285000000000000142,-3.942640531633770706
0.286000000000000143,-4.017229447717847179
0.287000000000000144,-4.088766008503935012
0.288000000000000145,-4.157351882968666423
0.289000000000000146,-4.223082598461867398
0.290000000000000147,-4.286047668853207426
0.291000000000000147,-4.346330743494457138
0.292000000000000148,-4.404009774715861525
0.293000000000000149,-4.459157201647720115
0.294000000000000150,-4.511840148239248727
0.295000000000000151,-4.562120633433738526
0.296000000000000152,-4.610055791551298299
0.297000000000000153,-4.655698101026674252
0.298000000000000154,-4.699095619748742791
0.299000000000000155,-4.740292225349359789
0.300000000000000155,-4.779327858891411651
0.301000000000000156,-4.816238770508303624
0.302000000000000157,-4.851057765649345654
0.303000000000000158,-4.883814450686228881
0.304000000000000159,-4.914535476735589548
0.305000000000000160,-4.943244780649652448
0.306000000000000161,-4.969963822222169370
0.307000000000000162,-4.994711816748845123
0.308000000000000163,-5.017505962170335287
0.309000000000000163,-5.038361660111638329
0.310000000000000164,-5.057292730213729826
0.311000000000000165,-5.074311617231505700
0.312000000000000166,-5.089429590446831853
0.313000000000000167,-5.102656935015962958
0.314000000000000168,-5.114003134937320283
0.315000000000000169,-5.123477047388376171
0.316000000000000170,-5.131087068239224891
0.317000000000000171,-5.136841288605229927
0.318000000000000171,-5.140747642352228475
0.319000000000000172,-5.142814044515116478
0.320000000000000173,-5.143048520634115661
0.321000000000000174,-5.141459327053103934
0.322000000000000175,-5.138055062260966643
0.323000000000000176,-5.132844769390035644
0.324000000000000177,-5.125838030015764879
0.325000000000000178,-5.117045049428540437
0.326000000000000179,-5.106476733572721471
0.327000000000000179,-5.094144757868860118
0.328000000000000180,-5.080061628153714537
0.329000000000000181,-5.064240733988727428
0.330000000000000182,-5.046696394600894919
0.331000000000000183,-5.027443897731777689
0.332000000000000184,-5.006499531679275528
0.333000000000000185,-4.983880610824355628
0.334000000000000186,-4.959605494940366732
0.335000000000000187,-4.933693602586320281
0.336000000000000187,-4.906165418887949770
0.337000000000000188,-4.877042498010915494
0.338000000000000189,-4.846347460630360260
0.339000000000000190,-4.814103986699073801
0.340000000000000191,-4.780336803813796109
0.341000000000000192,-4.745071671475541208
0.342000000000000193,-4.708335361534965458
0.343000000000000194,-4.670155635108571346
0.344000000000000195,-4.630561216245077105
0.345000000000000195,-4.589581762614917793
0.346000000000000196,-4.547247833488100355
0.347000000000000197,-4.503590855258141623
0.348000000000000198,-4.458643084761575004
0.349000000000000199,-4.412437570633910511
0.350000000000000200,-4.365008112934355644
0.351000000000000201,-4.316389221262407538
0.352000000000000202,-4.266616071580476621
0.353000000000000203,-4.215724461947392143
0.354000000000000203,-4.163750767358296301
0.355000000000000204,-4.110731893877169973
0.356000000000000205,-4.056705232238889458
0.357000000000000206,-4.001708611088542256
0.358000000000000207,-3.945780250016324153
0.359000000000000208,-3.888958712537593954
0.360000000000000209,-3.831282859158454901
0.361000000000000210,-3.772791800658619188
0.362000000000000210,-3.713524851714611774
0.363000000000000211,-3.653521484978021761
0.364000000000000212,-3.592821285715344093
0.365000000000000213,-3.531463907107843081
0.366000000000000214,-3.469489026302304158
0.367000000000000215,-3.406936301295878877
0.368000000000000216,-3.343845328731115618
0.369000000000000217,-3.280255602670153703
0.370000000000000218,-3.216206474410449268
0.371000000000000218,-3.151737113397745649
0.372000000000000219,-3.086886469286040491
0.373000000000000220,-3.021693235188105398
0.374000000000000221,-2.956195812154675195
0.375000000000000222,-2.890432274914767508
0.376000000000000223,-2.824440338904667946
0.377000000000000224,-2.758257328608094916
0.378000000000000225,-2.691920147225408844
0.379000000000000226,-2.625465247685447423
0.380000000000000226,-2.558928605009348711
0.381000000000000227,-2.492345690031798622
0.382000000000000228,-2.425751444481598185
0.383000000000000229,-2.359180257419905224
0.384000000000000230,-2.292665943031273024
0.385000000000000231,-2.226241719759800564
0.386000000000000232,-2.159940190779667368
0.387000000000000233,-2.093793325786976744
0.388000000000000234,-2.027832444097269704
0.389000000000000234,-1.962088199031060798
0.390000000000000235,-1.896590563567527976
0.391000000000000236,-1.831368817244888536
0.392000000000000237,-1.766451534284068314
0.393000000000000238,-1.701866572911040265
0.394000000000000239,-1.637641065851604072
0.395000000000000240,-1.573801411971348818
0.396000000000000241,-1.510373269032432741
0.397000000000000242,-1.447381547537779811
0.398000000000000242,-1.384850405632693349
0.399000000000000243,-1.322803245033011832
0.400000000000000244,-1.261262707948394235
0.401000000000000245,-1.200250674969040698
0.402000000000000246,-1.139788263883512398
0.403000000000000247,-1.079895829395230100
0.404000000000000248,-1.020592963705049927
0.405000000000000249,-0.961898497927135887
0.406000000000000250,-0.903830504305393134
0.407000000000000250,-0.846406299197801082
0.408000000000000251,-0.789642446796017472
0.409000000000000252,-0.733554763547982103
0.410000000000000253,-0.678158323251303097
0.411000000000000254,-0.623467462785675774
0.412000000000000255,-0.569495788452853535
0.413000000000000256,-0.516256182893105819
0.414000000000000257,-0.463760812547535317
0.415000000000000258,-0.412021135636158831
0.416000000000000258,-0.361047910622070978
0.417000000000000259,-0.310851205132667063
0.418000000000000260,-0.261440405309400048
0.419000000000000261,-0.212824225558149976
0.420000000000000262,-0.165010718672975371
0.421000000000000263,-0.118007286306547374
0.422000000000000264,-0.071820689761345147
0.423000000000000265,-0.026457061076191481
0.424000000000000266,0.018078085616343387
0.425000000000000266,0.061779842485785698
0.426000000000000267,0.104643896175960191
0.427000000000000268,0.146666515776171819
0.428000000000000269,0.187844540613170435
0.429000000000000270,0.228175367884989655
0.430000000000000271,0.267656940157158019
0.431000000000000272,0.306287732740902818
0.432000000000000273,0.344066740972409024
0.433000000000000274,0.380993467411384179
0.434000000000000274,0.417067908976600066
0.435000000000000275,0.452290544035254538
0.436000000000000276,0.486662319462423887
0.437000000000000277,0.520184637686183948
0.438000000000000278,0.552859343733243969
0.439000000000000279,0.584688712289362145
0.440000000000000280,0.615675434788137244
0.441000000000000281,0.645822606541132771
0.442000000000000282,0.675133713921634460
0.443000000000000282,0.703612621613854516
0.444000000000000283,0.731263559938599927
0.445000000000000284,0.758091112266016443
0.446000000000000285,0.784100202525425116
0.447000000000000286,0.809296082821521323
0.448000000000000287,0.833684321165973685
0.449000000000000288,0.857270789332635119
0.450000000000000289,0.880061650844269017
0.451000000000000290,0.902063349098075284
0.452000000000000290,0.923282595636857883
0.453000000000000291,0.943726358572211099
0.454000000000000292,0.963401851165592404
0.455000000000000293,0.982316520572786289
0.456000000000000294,1.000478036756739186
0.457000000000000295,1.017894281573411108
0.458000000000000296,1.034573338034828538
0.459000000000000297,1.050523479753175282
0.460000000000000298,1.065753160569360203
0.461000000000000298,1.080271004369135257
0.462000000000000299,1.094085795089511315
0.463000000000000300,1.107206466917890486
0.464000000000000301,1.119642094685955991
0.465000000000000302,1.131401884460111251
0.466000000000000303,1.142495164329969670
0.467000000000000304,1.152931375396062830
0.468000000000000305,1.162720062957669054
0.469000000000000306,1.171870867901482649
0.470000000000000306,1.180393518291486865
0.471000000000000307,1.188297821160245515
0.472000000000000308,1.195593654501537761
0.473000000000000309,1.202290959464116682
0.474000000000000310,1.208399732746080701
0.475000000000000311,1.213930019189256360
0.476000000000000312,1.218891904572684259
0.477000000000000313,1.223295508604283155
0.478000000000000314,1.227150978109440072
0.479000000000000314,1.230468480415233490
0.480000000000000315,1.233258196928814332
0.481000000000000316,1.235530316908311388
0.482000000000000317,1.237295031424552993
0.483000000000000318,1.238562527511702482
0.484000000000000319,1.239342982504888058
0.485000000000000320,1.239646558562677692
0.486000000000000321,1.239483397372300733
0.487000000000000322,1.238863615035291632
0.488000000000000322,1.237797297131244756
0.489000000000000323,1.236294493957223795
0.490000000000000324,1.234365215940362193
0.491000000000000325,1.232019429221064888
0.492000000000000326,1.229267051404216993
0.493000000000000327,1.226117947475719339
0.494000000000000328,1.222581925881617293
0.495000000000000329,1.218668734767106798
0.496000000000000330,1.214388058372557033
0.497000000000000330,1.209749513583791014
0.498000000000000331,1.204762646633708467
0.499000000000000332,1.199436929952414577
0.500000000000000333,1.193781759162922729
0.501000000000000334,1.187806450219548005
0.502000000000000335,1.181520236686041780
0.503000000000000336,1.174932267150554654
0.504000000000000337,1.168051602774482722
0.505000000000000338,1.160887214972259329
0.506000000000000338,1.153447983219159090
0.507000000000000339,1.145742692984198507
0.508000000000000340,1.137780033785184219
0.509000000000000341,1.129568597363032056
0.510000000000000342,1.121116875972429483
0.511000000000000343,1.112433260785993916
0.512000000000000344,1.103526040409022135
0.513000000000000345,1.094403399502033469
0.514000000000000346,1.085073417508242377
0.515000000000000346,1.075544067483199084
0.516000000000000347,1.065823215023809167
0.517000000000000348,1.055918617293975847
0.518000000000000349,1.045837922144172261
0.519000000000000350,1.035588667322257184
0.520000000000000351,1.025178279772842149
0.521000000000000352,1.014614075022640671
0.522000000000000353,1.003903256649166575
0.523000000000000353,0.993052915830255123
0.524000000000000354,0.982070030971875285
0.525000000000000355,0.970961467411739276
0.526000000000000356,0.959733977196302157
0.527000000000000357,0.948394198928690479
0.528000000000000358,0.936948657685233832
0.529000000000000359,0.925403764998245726
0.530000000000000360,0.913765818902768201
0.531000000000000361,0.902041004045027073
0.532000000000000361,0.890235391850390245
0.533000000000000362,0.878354940748637736
0.534000000000000363,0.866405496454446422
0.535000000000000364,0.854392792300963988
0.536000000000000365,0.842322449624439806
0.537000000000000366,0.830199978197904365
0.538000000000000367,0.818030776711917595
0.539000000000000368,0.805820133300466646
0.540000000000000369,0.793573226110123819
0.541000000000000369,0.781295123910619504
0.542000000000000370,0.768990786745015753
0.543000000000000371,0.756665066617735471
0.544000000000000372,0.744322708218686180
0.545000000000000373,0.731968349681835662
0.546000000000000374,0.719606523376555840
0.547000000000000375,0.707241656730151380
0.548000000000000376,0.694878073079990610
0.549000000000000377,0.682519992553723309
0.550000000000000377,0.670171532976084228
0.551000000000000378,0.657836710800821955
0.552000000000000379,0.645519442066372129
0.553000000000000380,0.633223543373842013
0.554000000000000381,0.620952732886014824
0.555000000000000382,0.608710631346043862
0.556000000000000383,0.596500763114562682
0.557000000000000384,0.584326557223997289
0.558000000000000385,0.572191348448855885
0.559000000000000385,0.560098378390844531
0.560000000000000386,0.548050796577685295
0.561000000000000387,0.536051661574514893
0.562000000000000388,0.524103942106822096
0.563000000000000389,0.512210518193864317
0.564000000000000390,0.500374182291597802
0.565000000000000391,0.488597640444109693
0.566000000000000392,0.476883513442644957
0.567000000000000393,0.465234337991300761
0.568000000000000393,0.453652567878516155
0.569000000000000394,0.442140575153485205
0.570000000000000395,0.430700651306719973
0.571000000000000396,0.419335008453905089
0.572000000000000397,0.408045780522317159
0.573000000000000398,0.396835024439064821
0.574000000000000399,0.385704721320417332
0.575000000000000400,0.374656777661551144
0.576000000000000401,0.363693026526037577
0.577000000000000401,0.352815228734444430
0.578000000000000402,0.342025074051415134
0.579000000000000403,0.331324182370672404
0.580000000000000404,0.320714104897333763
0.581000000000000405,0.310196325327023847
0.582000000000000406,0.299772261021251041
0.583000000000000407,0.289443264178533777
0.584000000000000408,0.279210623000821501
0.585000000000000409,0.269075562854733275
0.586000000000000409,0.259039247427153618
0.587000000000000410,0.249102779874813995
0.588000000000000411,0.239267203967410858
0.589000000000000412,0.229533505223893819
0.590000000000000413,0.219902612041569995
0.591000000000000414,0.210375396817656102
0.592000000000000415,0.200952677062958107
0.593000000000000416,0.191635216507366202
0.594000000000000417,0.182423726196852598
0.595000000000000417,0.173318865581718495
0.596000000000000418,0.164321243595780958
0.597000000000000419,0.155431419726297093
0.598000000000000420,0.146649905074338671
0.599000000000000421,0.137977163405437475
0.600000000000000422,0.129413612190255461
0.601000000000000423,0.120959623635110397
0.602000000000000424,0.112615525702161046
0.603000000000000425,0.104381603119067148
0.604000000000000425,0.096258098377998869
0.605000000000000426,0.088245212723824643
0.606000000000000427,0.080343107131327737
0.607000000000000428,0.072551903271383084
0.608000000000000429,0.064871684465884344
0.609000000000000430,0.057302496631444932
0.610000000000000431,0.049844349211643955
0.611000000000000432,0.042497216097835203
0.612000000000000433,0.035261036538406856
0.613000000000000433,0.028135716036396925
0.614000000000000434,0.021121127235465942
0.615000000000000435,0.014217110794141303
0.616000000000000436,0.007423476248285243
0.617000000000000437,0.000740002861781830
0.618000000000000438,-0.005833559534598143
