# AlFCC110UCD_TYR-AC
# h[nm],U(h)[kJ/mol]
0.149999999999999994,142.581577158605966815
0.150999999999999995,139.395822056000355360
0.151999999999999996,135.502539013834422121
0.152999999999999997,131.565397782827972151
0.153999999999999998,127.810785032453196663
0.154999999999999999,124.264777357310919115
0.156000000000000000,120.879337841596523617
0.157000000000000001,117.593889978383316475
0.158000000000000002,114.360861145669019834
0.159000000000000002,111.152445104915130969
0.160000000000000003,107.958628767055799358
0.161000000000000004,104.782047752918330730
0.162000000000000005,101.632522969792191248
0.163000000000000006,98.522547657853209557
0.164000000000000007,95.464118311692345742
0.165000000000000008,92.466857296559993529
0.166000000000000009,89.537182179021897355
0.167000000000000010,86.678224744799223345
0.168000000000000010,83.890222538239655137
0.169000000000000011,81.171156680985561138
0.170000000000000012,78.517468680626535615
0.171000000000000013,75.924743959891216605
0.172000000000000014,73.388295615527269433
0.173000000000000015,70.903616965588440735
0.174000000000000016,68.466696312984623773
0.175000000000000017,66.074203537635014527
0.176000000000000018,63.723567434042777791
0.177000000000000018,61.412966898069427657
0.178000000000000019,59.141259683714885398
0.179000000000000020,56.907870764577488387
0.180000000000000021,54.712659326173039176
0.181000000000000022,52.555779805590418619
0.182000000000000023,50.437548685765797529
0.183000000000000024,48.358325268676246367
0.184000000000000025,46.318411585766362748
0.185000000000000026,44.317974046683765721
0.186000000000000026,42.356987401358118461
0.187000000000000027,40.435200072397506688
0.188000000000000028,38.552118853838024393
0.189000000000000029,36.707010303307498589
0.190000000000000030,34.898915807563639646
0.191000000000000031,33.126677207470436315
0.192000000000000032,31.388969964484221720
0.193000000000000033,29.684341080910989774
0.194000000000000034,28.011249303401559274
0.195000000000000034,26.368105504833220465
0.196000000000000035,24.753311523535465710
0.197000000000000036,23.165296117792109953
0.198000000000000037,21.602547051156015812
0.199000000000000038,20.063638649226412269
0.200000000000000039,18.547254454469548790
0.201000000000000040,17.052204849214170679
0.202000000000000041,15.577439717619176562
0.203000000000000042,14.122056376657425858
0.204000000000000042,12.685303126823875175
0.205000000000000043,11.266578859092238218
0.206000000000000044,9.865429209828100454
0.207000000000000045,8.481539784340672128
0.208000000000000046,7.114726976897363997
0.209000000000000047,5.764926904517580830
0.210000000000000048,4.432182947577611998
0.211000000000000049,3.116632355690525547
0.212000000000000050,1.818492335545893068
0.213000000000000050,0.538045991063398898
0.214000000000000051,-0.724371562445376593
0.215000000000000052,-1.968386637557521412
0.216000000000000053,-3.193599743076919406
0.217000000000000054,-4.399597503090197037
0.218000000000000055,-5.585963591481254653
0.219000000000000056,-6.752288586165649420
0.220000000000000057,-7.898178682900988790
0.221000000000000058,-9.023263239987075579
0.222000000000000058,-10.127201152463365830
0.223000000000000059,-11.209686077590161446
0.224000000000000060,-12.270450552640038921
0.225000000000000061,-13.309269061547700730
0.226000000000000062,-14.325960119047385533
0.227000000000000063,-15.320387449875568109
0.228000000000000064,-16.292460346752598355
0.229000000000000065,-17.242133294515589625
0.230000000000000066,-18.169404949272951910
0.231000000000000066,-19.074316561112226509
0.232000000000000067,-19.956949927007862300
0.233000000000000068,-20.817424957429125243
0.234000000000000069,-21.655896935993158792
0.235000000000000070,-22.472553546579632666
0.236000000000000071,-23.267611736826502522
0.237000000000000072,-24.041314481051397678
0.238000000000000073,-24.793927499544032855
0.239000000000000073,-25.525735984992508065
0.240000000000000074,-26.237041380661672463
0.241000000000000075,-26.928158248922876794
0.242000000000000076,-27.599411262928281730
0.243000000000000077,-28.251132348688976492
0.244000000000000078,-28.883657999601446420
0.245000000000000079,-29.497326780608499774
0.246000000000000080,-30.092477034699253835
0.247000000000000081,-30.669444800365806003
0.248000000000000081,-31.228561944942867967
0.249000000000000082,-31.770154515460841793
0.250000000000000111,-32.294541305735990022
0.251000000000000112,-32.802032635888494383
0.252000000000000113,-33.292929338307509113
0.253000000000000114,-33.767521942246787603
0.254000000000000115,-34.226090047722621534
0.255000000000000115,-34.668901878165584662
0.256000000000000116,-35.096214000333041838
0.257000000000000117,-35.508271199292330778
0.258000000000000118,-35.905306495811785794
0.259000000000000119,-36.287541293226993844
0.260000000000000120,-36.655185640757778742
0.261000000000000121,-37.008438600316402756
0.262000000000000122,-37.347488704049204955
0.263000000000000123,-37.672514490171046475
0.264000000000000123,-37.983685105069000087
0.265000000000000124,-38.281160960148099548
0.266000000000000125,-38.565094432455381934
0.267000000000000126,-38.835630598731860630
0.268000000000000127,-39.092907993195559868
0.269000000000000128,-39.337059380036421885
0.270000000000000129,-39.568212532299554596
0.271000000000000130,-39.786491009536185004
0.272000000000000131,-39.992014927301717364
0.273000000000000131,-40.184901712274090357
0.274000000000000132,-40.365266837444536918
0.275000000000000133,-40.533224532493001391
0.276000000000000134,-40.688888465097022618
0.277000000000000135,-40.832372389532721968
0.278000000000000136,-40.963790759507730854
0.279000000000000137,-41.083259302714353112
0.280000000000000138,-41.190895555107474024
0.281000000000000139,-41.286819353394363930
0.282000000000000139,-41.371153284670270978
0.283000000000000140,-41.444023092547595866
0.284000000000000141,-41.505558039504236945
0.285000000000000142,-41.555891225522103127
0.286000000000000143,-41.595159863397888955
0.287000000000000144,-41.623505511387214995
0.288000000000000145,-41.641074264093013824
0.289000000000000146,-41.648016902725544242
0.290000000000000147,-41.644489006053696301
0.291000000000000147,-41.630651023529168242
0.292000000000000148,-41.606668312204121207
0.293000000000000149,-41.572711139176405482
0.294000000000000150,-41.528954651389199171
0.295000000000000151,-41.475578814682897644
0.296000000000000152,-41.412768324049736179
0.297000000000000153,-41.340712487076466175
0.298000000000000154,-41.259605082579540181
0.299000000000000155,-41.169644196441268491
0.300000000000000155,-41.071032036647359575
0.301000000000000156,-40.963974729504940342
0.302000000000000157,-40.848682098990259703
0.303000000000000158,-40.725367431133982166
0.304000000000000159,-40.594247225305004179
0.305000000000000160,-40.455540934197152581
0.306000000000000161,-40.309470694263190182
0.307000000000000162,-40.156261048273407255
0.308000000000000163,-39.996138661606643439
0.309000000000000163,-39.829332033807105518
0.310000000000000164,-39.656071206865171064
0.311000000000000165,-39.476587471601639834
0.312000000000000166,-39.291113073456514826
0.313000000000000167,-39.099880918902918836
0.314000000000000168,-38.903124283627612101
0.315000000000000169,-38.701076523539370555
0.316000000000000170,-38.493970789588821901
0.317000000000000171,-38.282039747304580146
0.318000000000000171,-38.065515301875578302
0.319000000000000172,-37.844628329534550915
0.320000000000000173,-37.619608415925725353
0.321000000000000174,-37.390683602069472613
0.322000000000000175,-37.158080138469308906
0.323000000000000176,-36.922022247841354670
0.324000000000000177,-36.682731896884028799
0.325000000000000178,-36.440428577445608482
0.326000000000000179,-36.195329097391280015
0.327000000000000179,-35.947647381416388157
0.328000000000000180,-35.697594282001475108
0.329000000000000181,-35.445377400657228861
0.330000000000000182,-35.191200919560507998
0.331000000000000183,-34.935265443641739580
0.332000000000000184,-34.677767853142427157
0.333000000000000185,-34.418901166625701649
0.334000000000000186,-34.158854414387903375
0.335000000000000187,-33.897812522187322770
0.336000000000000187,-33.635956205177301115
0.337000000000000188,-33.373461871903870701
0.338000000000000189,-33.110501538203891414
0.339000000000000190,-32.847242750817692070
0.340000000000000191,-32.583848520509725688
0.341000000000000192,-32.320477264474028800
0.342000000000000193,-32.057282757784406613
0.343000000000000194,-31.794414093636401475
0.344000000000000195,-31.532015652115283899
0.345000000000000195,-31.270227077214837408
0.346000000000000196,-31.009183261822272470
0.347000000000000197,-30.749014340378188592
0.348000000000000198,-30.489845688914378741
0.349000000000000199,-30.231797932168269938
0.350000000000000200,-29.974986957469621274
0.351000000000000201,-29.719523935093320688
0.352000000000000202,-29.465515344771283424
0.353000000000000203,-29.213063008056963099
0.354000000000000203,-28.962264126236874517
0.355000000000000204,-28.713211323485865023
0.356000000000000205,-28.465992694965656540
0.357000000000000206,-28.220691859569683402
0.358000000000000207,-27.977388017021628031
0.359000000000000208,-27.736156009039802939
0.360000000000000209,-27.497066384284959639
0.361000000000000210,-27.260185466814856881
0.362000000000000210,-27.025575427775237358
0.363000000000000211,-26.793294360063448778
0.364000000000000212,-26.563396355708032814
0.365000000000000213,-26.335931585714483560
0.366000000000000214,-26.110946382135335142
0.367000000000000215,-25.888483322129626885
0.368000000000000216,-25.668581313785686859
0.369000000000000217,-25.451275683487686763
0.370000000000000218,-25.236598264615764720
0.371000000000000218,-25.024577487376546969
0.372000000000000219,-24.815238469569486313
0.373000000000000220,-24.608603108102382606
0.374000000000000221,-24.404690171077483285
0.375000000000000222,-24.203515390277452468
0.376000000000000223,-24.005091553888615152
0.377000000000000224,-23.809428599306613705
0.378000000000000225,-23.616533705877387206
0.379000000000000226,-23.426411387433891065
0.380000000000000226,-23.239063584496836512
0.381000000000000227,-23.054489756014490354
0.382000000000000228,-22.872686970524451766
0.383000000000000229,-22.693649996626824361
0.384000000000000230,-22.517371392665332053
0.385000000000000231,-22.343841595519737808
0.386000000000000232,-22.173049008419049244
0.387000000000000233,-22.004980087691837554
0.388000000000000234,-21.839619428375566912
0.389000000000000234,-21.676949848613567440
0.390000000000000235,-21.516952472772917559
0.391000000000000236,-21.359606813223447119
0.392000000000000237,-21.204890850722030393
0.393000000000000238,-21.052781113352665443
0.394000000000000239,-20.903252753977032086
0.395000000000000240,-20.756279626155397011
0.396000000000000241,-20.611834358502143516
0.397000000000000242,-20.469888427444644208
0.398000000000000242,-20.330412228358405002
0.399000000000000243,-20.193375145055373565
0.400000000000000244,-20.058745617606010825
0.401000000000000245,-19.926491208479841788
0.402000000000000246,-19.796578666991941020
0.403000000000000247,-19.668973992046620225
0.404000000000000248,-19.543642493172676211
0.405000000000000249,-19.420548849847200756
0.406000000000000250,-19.299657169107991450
0.407000000000000250,-19.180931041457263575
0.408000000000000251,-19.064333595061540905
0.409000000000000252,-18.949827548255409937
0.410000000000000253,-18.837375260358406592
0.411000000000000254,-18.726938780817004471
0.412000000000000255,-18.618479896684931418
0.413000000000000256,-18.511960178457378845
0.414000000000000257,-18.407341024275936547
0.415000000000000258,-18.304583702522748467
0.416000000000000258,-18.203649392823862740
0.417000000000000259,-18.104499225482911129
0.418000000000000260,-18.007094319367521251
0.419000000000000261,-17.911395818271991232
0.420000000000000262,-17.817364925780513119
0.421000000000000263,-17.724962938656652511
0.422000000000000264,-17.634151278784763406
0.423000000000000265,-17.544891523690544943
0.424000000000000266,-17.457145435668156352
0.425000000000000266,-17.370874989541846389
0.426000000000000267,-17.286042399090625565
0.427000000000000268,-17.202610142165045914
0.428000000000000269,-17.120540984525113970
0.429000000000000270,-17.039798002428998558
0.430000000000000271,-16.960344604002258961
0.431000000000000272,-16.882144549417454016
0.432000000000000273,-16.805161969914042430
0.433000000000000274,-16.729361385688712005
0.434000000000000274,-16.654707722686097782
0.435000000000000275,-16.581166328319874026
0.436000000000000276,-16.508702986154098369
0.437000000000000277,-16.437283929574537211
0.438000000000000278,-16.366875854479609131
0.439000000000000279,-16.297445931020320131
0.440000000000000280,-16.228961814418262577
0.441000000000000281,-16.161391654890618241
0.442000000000000282,-16.094704106710874925
0.443000000000000282,-16.028868336433209407
0.444000000000000283,-15.963854030308837650
0.445000000000000284,-15.899631400921659719
0.446000000000000285,-15.836171193070404328
0.447000000000000286,-15.773444688924229240
0.448000000000000287,-15.711423712477898817
0.449000000000000288,-15.650080633332688507
0.450000000000000289,-15.589388369828373726
0.451000000000000290,-15.529320391551388880
0.452000000000000290,-15.469850721243759040
0.453000000000000291,-15.410953936136786879
0.454000000000000292,-15.352605168733290952
0.455000000000000293,-15.294780107061304975
0.456000000000000294,-15.237454994422046539
0.457000000000000295,-15.180606628654208734
0.458000000000000296,-15.124212360936180488
0.459000000000000297,-15.068250094147376927
0.460000000000000298,-15.012698280809289031
0.461000000000000298,-14.957535920626344961
0.462000000000000299,-14.902742557646243782
0.463000000000000300,-14.848298277058782801
0.464000000000000301,-14.794183701651897778
0.465000000000000302,-14.740379987942926476
0.466000000000000303,-14.686868822002802304
0.467000000000000304,-14.633632414990120907
0.468000000000000305,-14.580653498411967561
0.469000000000000306,-14.527915319127378879
0.470000000000000306,-14.475401634109346105
0.471000000000000307,-14.423096704980263638
0.472000000000000308,-14.370985292335888062
0.473000000000000309,-14.319052649871778726
0.474000000000000310,-14.267284518326121656
0.475000000000000311,-14.215667119252326955
0.476000000000000312,-14.164187148634301394
0.477000000000000313,-14.112831770356757843
0.478000000000000314,-14.061588609542756245
0.479000000000000314,-14.010445745770038428
0.480000000000000315,-13.959391706177305181
0.481000000000000316,-13.908415458471377946
0.482000000000000317,-13.857506403845547993
0.483000000000000318,-13.806654369819117534
0.484000000000000319,-13.755849603007879622
0.485000000000000320,-13.705082761834731286
0.486000000000000321,-13.654344909189305213
0.487000000000000322,-13.603627505045206902
0.488000000000000322,-13.552922399042987678
0.489000000000000323,-13.502221823046838267
0.490000000000000324,-13.451518383682341096
0.491000000000000325,-13.400805054862711785
0.492000000000000326,-13.350075170310111261
0.493000000000000327,-13.299322416078945608
0.494000000000000328,-13.248540823087106233
0.495000000000000329,-13.197724759661431548
0.496000000000000330,-13.146868924102829368
0.497000000000000330,-13.095968337276701732
0.498000000000000331,-13.045018335233601547
0.499000000000000332,-12.994014561865284918
0.500000000000000333,-12.942952961600607154
0.501000000000000334,-12.891829772145673161
0.502000000000000335,-12.840641517272498362
0.503000000000000336,-12.789384999660073916
0.504000000000000337,-12.738057293791470670
0.505000000000000338,-12.686655738910593172
0.506000000000000338,-12.635177932041724347
0.507000000000000339,-12.583621721075097355
0.508000000000000340,-12.531985197921203579
0.509000000000000341,-12.480266691736714435
0.510000000000000342,-12.428464762224354700
0.511000000000000343,-12.376578193009173390
0.512000000000000344,-12.324605985093301186
0.513000000000000345,-12.272547350391253218
0.514000000000000346,-12.220401705347612165
0.515000000000000346,-12.168168664638693954
0.516000000000000347,-12.115848034959807222
0.517000000000000348,-12.063439808899582673
0.518000000000000349,-12.010944158902379542
0.519000000000000350,-11.958361431320216894
0.520000000000000351,-11.905692140554974046
0.521000000000000352,-11.852936963291927697
0.522000000000000353,-11.800096732825252843
0.523000000000000353,-11.747172433476185560
0.524000000000000354,-11.694165195104554655
0.525000000000000355,-11.641076287713815418
0.526000000000000356,-11.587907116150223175
0.527000000000000357,-11.534659214896286983
0.528000000000000358,-11.481334242958620706
0.529000000000000359,-11.427933978850401076
0.530000000000000360,-11.374460315668315502
0.531000000000000361,-11.320915256264004967
0.532000000000000361,-11.267300908509811919
0.533000000000000362,-11.213619480658584493
0.534000000000000363,-11.159873276797384278
0.535000000000000364,-11.106064692394543414
0.536000000000000365,-11.052196209939836535
0.537000000000000366,-10.998270394677248873
0.538000000000000367,-10.944289890429704570
0.539000000000000368,-10.890257415515449679
0.540000000000000369,-10.836175758755139498
0.541000000000000369,-10.782047775569257198
0.542000000000000370,-10.727876384164961365
0.543000000000000371,-10.673664561811724738
0.544000000000000372,-10.619415341204909708
0.545000000000000373,-10.565131806916538082
0.546000000000000374,-10.510817091932311840
0.547000000000000375,-10.456474374274037586
0.548000000000000376,-10.402106873706626899
0.549000000000000377,-10.347717848528613871
0.550000000000000377,-10.293310592445235940
0.551000000000000378,-10.238888431523186284
0.552000000000000379,-10.184454721225989715
0.553000000000000380,-10.130012843528927391
0.554000000000000381,-10.075566204112480051
0.555000000000000382,-10.021118229633426466
0.556000000000000383,-9.966672365072088979
0.557000000000000384,-9.912232071155219870
0.558000000000000385,-9.857800821852887196
0.559000000000000385,-9.803382101948670879
0.560000000000000386,-9.748979404681781702
0.561000000000000387,-9.694596229460183068
0.562000000000000388,-9.640236079643429434
0.563000000000000389,-9.585902460394228441
0.564000000000000390,-9.531598876597481507
0.565000000000000391,-9.477328830845767271
0.566000000000000392,-9.423095821490052870
0.567000000000000393,-9.368903340754588527
0.568000000000000393,-9.314754872914729589
0.569000000000000394,-9.260653892536620191
0.570000000000000395,-9.206603862777708258
0.571000000000000396,-9.152608233746697408
0.572000000000000397,-9.098670440922136393
0.573000000000000398,-9.044793903628249865
0.574000000000000399,-8.990982023567077874
0.575000000000000400,-8.937238183405700198
0.576000000000000401,-8.883565745417515203
0.577000000000000401,-8.829968050176510985
0.578000000000000402,-8.776448415303253370
0.579000000000000403,-8.723010134261752313
0.580000000000000404,-8.669656475206002355
0.581000000000000405,-8.616390679875118863
0.582000000000000406,-8.563215962536116166
0.583000000000000407,-8.510135508973139196
0.584000000000000408,-8.457152475522306645
0.585000000000000409,-8.404269988150947057
0.586000000000000409,-8.351491141580339672
0.587000000000000410,-8.298818998450935069
0.588000000000000411,-8.246256588529028875
0.589000000000000412,-8.193806907953980811
0.590000000000000413,-8.141472918524899072
0.591000000000000414,-8.089257547025949791
0.592000000000000415,-8.037163684589348378
0.593000000000000416,-7.985194186094942026
0.594000000000000417,-7.933351869605667517
0.595000000000000417,-7.881639515837936649
0.596000000000000418,-7.830059867665831064
0.597000000000000419,-7.778615629658666819
0.598000000000000420,-7.727309467650565367
0.599000000000000421,-7.676144008341590386
0.600000000000000422,-7.625121838929324269
0.601000000000000423,-7.574245506770249214
0.602000000000000424,-7.523517519069963910
0.603000000000000425,-7.472940342601580355
0.604000000000000425,-7.422516403451385081
0.605000000000000426,-7.372248086791050703
