# ZnS-NP_BGLC-AC
# h[nm],U(h)[kJ/mol]
0.149999999999999994,187.921896749364748302
0.150999999999999995,185.890864595386574365
0.151999999999999996,184.173204403295102338
0.152999999999999997,182.545148083498190772
0.153999999999999998,180.902319262413584511
0.154999999999999999,179.209376460928552888
0.156000000000000000,177.467090327958089802
0.157000000000000001,175.691885158960758417
0.158000000000000002,173.903978635468860148
0.159000000000000002,172.121218917771471979
0.160000000000000003,170.356514531575953697
0.161000000000000004,168.617381635053419586
0.162000000000000005,166.906612820158983368
0.163000000000000006,165.223425422255729700
0.164000000000000007,163.564700049532376624
0.165000000000000008,161.926094394049727043
0.166000000000000009,160.302932844710653626
0.167000000000000010,158.690844960217049220
0.168000000000000010,157.086168090667285924
0.169000000000000011,155.486151016202114761
0.170000000000000012,153.889003582961692018
0.171000000000000013,152.293837152219566633
0.172000000000000014,150.700535875783003803
0.173000000000000015,149.109591828093641652
0.174000000000000016,147.521929449717333682
0.175000000000000017,145.938737547829674668
0.176000000000000018,144.361320779071235165
0.177000000000000018,142.790977336375192408
0.178000000000000019,141.228905512455952476
0.179000000000000020,139.676138843418812030
0.180000000000000021,138.133507510392462336
0.181000000000000022,136.601622433864378081
0.182000000000000023,135.080877870678961017
0.183000000000000024,133.571468164842855231
0.184000000000000025,132.073414476347892332
0.185000000000000026,130.586597704784566076
0.186000000000000026,129.110794346118353815
0.187000000000000027,127.645712601662353336
0.188000000000000028,126.191026646214666584
0.189000000000000029,124.746407521176706723
0.190000000000000030,123.311549624542820425
0.191000000000000031,121.886192209275691312
0.192000000000000032,120.470135668769060544
0.193000000000000033,119.063252682476928612
0.194000000000000034,117.665494519942356533
0.195000000000000034,116.276892963530002589
0.196000000000000035,114.897558416782160862
0.197000000000000036,113.527674824785734131
0.198000000000000037,112.167492053606196123
0.199000000000000038,110.817316365723669946
0.200000000000000039,109.477499594852062614
0.201000000000000040,108.148427573092973830
0.202000000000000041,106.830508301746434086
0.203000000000000042,105.524160289045738637
0.204000000000000042,104.229801407509398814
0.205000000000000043,102.947838553612541546
0.206000000000000044,101.678658325436799714
0.207000000000000045,100.422618871589207856
0.208000000000000046,99.180043008167004359
0.209000000000000047,97.951212650591259035
0.210000000000000048,96.736364564080474793
0.211000000000000049,95.535687400414815329
0.212000000000000050,94.349319959255325330
0.213000000000000050,93.177350589261394020
0.214000000000000051,92.019817627096728074
0.215000000000000052,90.876710760565558189
0.216000000000000053,89.747973194960025012
0.217000000000000054,88.633504498598824739
0.218000000000000055,87.533164003883072724
0.219000000000000056,86.446774643384927117
0.220000000000000057,85.374127105965754936
0.221000000000000058,84.314984205179229093
0.222000000000000058,83.269085360782625571
0.223000000000000059,82.236151103653128303
0.224000000000000060,81.215887524418093335
0.225000000000000061,80.207990596358285984
0.226000000000000062,79.212150313368937304
0.227000000000000063,78.228054593754819734
0.228000000000000064,77.255392910221573288
0.229000000000000065,76.293859615475327018
0.230000000000000066,75.343156941257490189
0.231000000000000066,74.402997656354699529
0.232000000000000067,73.473107376094233700
0.233000000000000068,72.553226522038926305
0.234000000000000069,71.643111936038437193
0.235000000000000070,70.742538157480765904
0.236000000000000071,69.851298376553160097
0.237000000000000072,68.969205079594843255
0.238000000000000073,68.096090405248290267
0.239000000000000073,67.231806232143753732
0.240000000000000074,66.376224020324102071
0.241000000000000075,65.529234429597281064
0.242000000000000076,64.690746738535352733
0.243000000000000077,63.860688087979497141
0.244000000000000078,63.039002572709350147
0.245000000000000079,62.225650204438167634
0.246000000000000080,61.420605768554636938
0.247000000000000081,60.623857596083681187
0.248000000000000081,59.835406271227000730
0.249000000000000082,59.055263293605946728
0.250000000000000111,58.283449712993196101
0.251000000000000112,57.519994752921455472
0.252000000000000113,56.764934438118586968
0.253000000000000114,56.018310239265609596
0.254000000000000115,55.280167747124835387
0.255000000000000115,54.550555386659297596
0.256000000000000116,53.829523180374586389
0.257000000000000117,53.117121568772631690
0.258000000000000118,52.413400294525771983
0.259000000000000119,51.718407355762543887
0.260000000000000120,51.032188032713186487
0.261000000000000121,50.354783990895825241
0.262000000000000122,49.686232463036056117
0.263000000000000123,49.026565511005173903
0.264000000000000123,48.375809368235465513
0.265000000000000124,47.733983862324592451
0.266000000000000125,47.101101916872664788
0.267000000000000126,46.477169131004451685
0.268000000000000127,45.862183434510036761
0.269000000000000128,45.256134816090387574
0.270000000000000129,44.659005121812597849
0.271000000000000130,44.070767920561081610
0.272000000000000131,43.491388433012438952
0.273000000000000131,42.920823520456110600
0.274000000000000132,42.359021729629603215
0.275000000000000133,41.805923389629299436
0.276000000000000134,41.261460756891828794
0.277000000000000135,40.725558204215481339
0.278000000000000136,40.198132449796688093
0.279000000000000137,39.679092822295672249
0.280000000000000138,39.168341558010027370
0.281000000000000139,38.665774126323633197
0.282000000000000139,38.171279579706734353
0.283000000000000140,37.684740924670123263
0.284000000000000141,37.206035510216366902
0.285000000000000142,36.735035430484131780
0.286000000000000143,36.271607938443601427
0.287000000000000144,35.815615867670288708
0.288000000000000145,35.366918059399353069
0.289000000000000146,34.925369792240175570
0.290000000000000147,34.490823212110697682
0.291000000000000147,34.063127760130967658
0.292000000000000148,33.642130596393819530
0.293000000000000149,33.227677017707499374
0.294000000000000150,32.819610867577850399
0.295000000000000151,32.417774936867040481
0.296000000000000152,32.022011353729517680
0.297000000000000153,31.632161961585246956
0.298000000000000154,31.248068684041793830
0.299000000000000155,30.869573875823839160
0.300000000000000155,30.496520658907151358
0.301000000000000156,30.128753243187059496
0.302000000000000157,29.766117231135545751
0.303000000000000158,29.408459906019515984
0.304000000000000159,29.055630503362692707
0.305000000000000160,28.707480465436749029
0.306000000000000161,28.363863678662777801
0.307000000000000162,28.024636693893029360
0.308000000000000163,27.689658929624108907
0.309000000000000163,27.358792858267644732
0.310000000000000164,27.031904175672433865
0.311000000000000165,26.708861954153469753
0.312000000000000166,26.389538779339069663
0.313000000000000167,26.073810871196201333
0.314000000000000168,25.761558189638513738
0.315000000000000169,25.452664525159502062
0.316000000000000170,25.147017574966671560
0.317000000000000171,24.844509005121118150
0.318000000000000171,24.545034499210604650
0.319000000000000172,24.248493794103882948
0.320000000000000173,23.954790703349676306
0.321000000000000174,23.663833128795467076
0.322000000000000175,23.375533061009704738
0.323000000000000176,23.089806569096221978
0.324000000000000177,22.806573780491785186
0.325000000000000178,22.525758851337496225
0.326000000000000179,22.247289928011344529
0.327000000000000179,21.971099100404593685
0.328000000000000180,21.697122347516945240
0.329000000000000181,21.425299475936693483
0.330000000000000182,21.155574051761288246
0.331000000000000183,20.887893326501547620
0.332000000000000184,20.622208157499475334
0.333000000000000185,20.358472923375227737
0.334000000000000186,20.096645435002944424
0.335000000000000187,19.836686842499513972
0.336000000000000187,19.578561538692802912
0.337000000000000188,19.322237059519199676
0.338000000000000189,19.067683981781613056
0.339000000000000190,18.814875818681574771
0.340000000000000191,18.563788913520504309
0.341000000000000192,18.314402331946681102
0.342000000000000193,18.066697753105906088
0.343000000000000194,17.820659360035399743
0.344000000000000195,17.576273729622553077
0.345000000000000195,17.333529722430917275
0.346000000000000196,17.092418372679212268
0.347000000000000197,16.852932778640408173
0.348000000000000198,16.615067993711200245
0.349000000000000199,16.378820918385024186
0.350000000000000200,16.144190193345330897
0.351000000000000201,15.911176093879550564
0.352000000000000202,15.679780425798801602
0.353000000000000203,15.450006423032965230
0.354000000000000203,15.221858647056247804
0.355000000000000204,14.995342888284147520
0.356000000000000205,14.770466069569229361
0.357000000000000206,14.547236151909610058
0.358000000000000207,14.325662042472155022
0.359000000000000208,14.105753505019890781
0.360000000000000209,13.887521072821533252
0.361000000000000210,13.670975964110827050
0.362000000000000210,13.456130000151983239
0.363000000000000211,13.242995525958530578
0.364000000000000212,13.031585333702887297
0.365000000000000213,12.821912588845483683
0.366000000000000214,12.613990759003790743
0.367000000000000215,12.407833545573785372
0.368000000000000216,12.203454818108854241
0.369000000000000217,12.000868551454678013
0.370000000000000218,11.800088765631588927
0.371000000000000218,11.601129468450448456
0.372000000000000219,11.404004600842084116
0.373000000000000220,11.208727984875425321
0.374000000000000221,11.015313274434660684
0.375000000000000222,10.823773908521420850
0.376000000000000223,10.634123067143612218
0.377000000000000224,10.446373629749512446
0.378000000000000225,10.260538136161866163
0.379000000000000226,10.076628749964102738
0.380000000000000226,9.894657224287762176
0.381000000000000227,9.714634869948298501
0.382000000000000228,9.536572525873841855
0.383000000000000229,9.360480531770109636
0.384000000000000230,9.186368702962710131
0.385000000000000231,9.014246307357034027
0.386000000000000232,8.844122044454666209
0.387000000000000233,8.676004026364314115
0.388000000000000234,8.509899760744795927
0.389000000000000234,8.345816135616818343
0.390000000000000235,8.183759405980143953
0.391000000000000236,8.023735182172600844
0.392000000000000237,7.865748419907211186
0.393000000000000238,7.709803411924076144
0.394000000000000239,7.555903781193745949
0.395000000000000240,7.404052475609290696
0.396000000000000241,7.254251764104838074
0.397000000000000242,7.106503234138815905
0.398000000000000242,6.960807790481017499
0.399000000000000243,6.817165655243380584
0.400000000000000244,6.675576369095052698
0.401000000000000245,6.536038793603594854
0.402000000000000246,6.398551114645068871
0.403000000000000247,6.263110846826574374
0.404000000000000248,6.129714838866440196
0.405000000000000249,5.998359279878021866
0.406000000000000250,5.869039706504518783
0.407000000000000250,5.741751010853352710
0.408000000000000251,5.616487449179999203
0.409000000000000252,5.493242651272523425
0.410000000000000253,5.372009630489205989
0.411000000000000254,5.252780794403259179
0.412000000000000255,5.135547956009832937
0.413000000000000256,5.020302345451782777
0.414000000000000257,4.907034622222353981
0.415000000000000258,4.795734887803902780
0.416000000000000258,4.686392698703578219
0.417000000000000259,4.578997079847820117
0.418000000000000260,4.473536538299287102
0.419000000000000261,4.369999077260782627
0.420000000000000262,4.268372210332535666
0.421000000000000263,4.168642975989985899
0.422000000000000264,4.070797952251082208
0.423000000000000265,3.974823271502897715
0.424000000000000266,3.880704635458946505
0.425000000000000266,3.788427330219801270
0.426000000000000267,3.697976241410613429
0.427000000000000268,3.609335869370656091
0.428000000000000269,3.522490344370987625
0.429000000000000270,3.437423441837466953
0.430000000000000271,3.354118597557701698
0.431000000000000272,3.272558922851281693
0.432000000000000273,3.192727219684084794
0.433000000000000274,3.114605995708174646
0.434000000000000274,3.038177479210038001
0.435000000000000275,2.963423633950849734
0.436000000000000276,2.890326173883367655
0.437000000000000277,2.818866577731030887
0.438000000000000278,2.749026103415828093
0.439000000000000279,2.680785802322201761
0.440000000000000280,2.614126533385282336
0.441000000000000281,2.549028976992537388
0.442000000000000282,2.485473648688547144
0.443000000000000282,2.423440912673724412
0.444000000000000283,2.362910995088169930
0.445000000000000284,2.303863997072881808
0.446000000000000285,2.246279907601020032
0.447000000000000286,2.190138616072664579
0.448000000000000287,2.135419924667217639
0.449000000000000288,2.082103560448054669
0.450000000000000289,2.030169187214792448
0.451000000000000290,1.979596417098973493
0.452000000000000290,1.930364821899517525
0.453000000000000291,1.882453944154980574
0.454000000000000292,1.835843307949863945
0.455000000000000293,1.790512429452949306
0.456000000000000294,1.746440827185973266
0.457000000000000295,1.703608032021300733
0.458000000000000296,1.661993596907928694
0.459000000000000297,1.621577106325169382
0.460000000000000298,1.582338185464103875
0.461000000000000298,1.544256509136932687
0.462000000000000299,1.507311810414904141
0.463000000000000300,1.471483888995712919
0.464000000000000301,1.436752619301515210
0.465000000000000302,1.403097958309110105
0.466000000000000303,1.370499953114004299
0.467000000000000304,1.338938748230277254
0.468000000000000305,1.308394592628603137
0.469000000000000306,1.278847846514730380
0.470000000000000306,1.250278987851065615
0.471000000000000307,1.222668618624278780
0.472000000000000308,1.195997470861819512
0.473000000000000309,1.170246412400494762
0.474000000000000310,1.145396452410492927
0.475000000000000311,1.121428746678202470
0.476000000000000312,1.098324602651457038
0.477000000000000313,1.076065484250782189
0.478000000000000314,1.054633016450575722
0.479000000000000314,1.034008989633930398
0.480000000000000315,1.014175363725184464
0.481000000000000316,0.995114272104132724
0.482000000000000317,0.976808025306093342
0.483000000000000318,0.959239114511879820
0.484000000000000319,0.942390214831959283
0.485000000000000320,0.926244188389036105
0.486000000000000321,0.910784087203276416
0.487000000000000322,0.895993155884525549
0.488000000000000322,0.881854834135932797
0.489000000000000323,0.868352759073101610
0.490000000000000324,0.855470767363353479
0.491000000000000325,0.843192897189311452
0.492000000000000326,0.831503390041235968
0.493000000000000327,0.820386692342356616
0.494000000000000328,0.809827456911672905
0.495000000000000329,0.799810544268379386
0.496000000000000330,0.790321023782390997
0.497000000000000330,0.781344174674975300
0.498000000000000331,0.772865486874100283
0.499000000000000332,0.764870661728304979
0.500000000000000333,0.757345612583525507
0.501000000000000334,0.750276465226999534
0.502000000000000335,0.743649558202171490
0.503000000000000336,0.737451442998839135
0.504000000000000337,0.731668884122390950
0.505000000000000338,0.726288859046223978
0.506000000000000338,0.721298558051113758
0.507000000000000339,0.716685383955466881
0.508000000000000340,0.712436951740278657
0.509000000000000341,0.708541088072373704
0.510000000000000342,0.704985830729858320
0.511000000000000343,0.701759427933151381
0.512000000000000344,0.698850337585375847
0.513000000000000345,0.696247226425474319
0.514000000000000346,0.693938969097499081
0.515000000000000346,0.691914647139555194
0.516000000000000347,0.690163547895606078
0.517000000000000348,0.688675163353417275
0.518000000000000349,0.687439188911890930
0.519000000000000350,0.686445522080784132
0.520000000000000351,0.685684261116068283
0.521000000000000352,0.685145703593652455
0.522000000000000353,0.684820344924695901
0.523000000000000353,0.684698876815139856
0.524000000000000354,0.684772185672370526
0.525000000000000355,0.685031350961732843
0.526000000000000356,0.685467643515571323
0.527000000000000357,0.686072523797339628
0.528000000000000358,0.686837640123451054
0.529000000000000359,0.687754826845165868
0.530000000000000360,0.688816102493156945
0.531000000000000361,0.690013667886881454
0.532000000000000361,0.691339904211216050
0.533000000000000362,0.692787371062494328
0.534000000000000363,0.694348804466177860
0.535000000000000364,0.696017114868185072
0.536000000000000365,0.697785385102047462
0.537000000000000366,0.699646868333744343
0.538000000000000367,0.701594985986318975
0.539000000000000368,0.703623325645929887
0.540000000000000369,0.705725638951416268
0.541000000000000369,0.707895839468869026
0.542000000000000370,0.710128000553195471
0.543000000000000371,0.712416353198078833
0.544000000000000372,0.714755283876106207
0.545000000000000373,0.717139332370536287
0.546000000000000374,0.719563189600217035
0.547000000000000375,0.722021695439138744
0.548000000000000376,0.724509836531951334
0.549000000000000377,0.727022744106863961
0.550000000000000377,0.729555691787158178
0.551000000000000378,0.732104093402682343
0.552000000000000379,0.734663500802372527
0.553000000000000380,0.737229601669117329
0.554000000000000381,0.739798217338029529
0.555000000000000382,0.742365300619120427
0.556000000000000383,0.744926933625599585
0.557000000000000384,0.747479325608551015
0.558000000000000385,0.750018810799191193
0.559000000000000385,0.752541846259415559
0.560000000000000386,0.755045009741605488
0.561000000000000387,0.757524997558532198
0.562000000000000388,0.759978622464165587
0.563000000000000389,0.762402811546047721
0.564000000000000390,0.764794604130136557
0.565000000000000391,0.767151149698651058
0.566000000000000392,0.769469705821700822
0.567000000000000393,0.771747636103207735
0.568000000000000393,0.773982408141854261
0.569000000000000394,0.776171591507525127
0.570000000000000395,0.778312855733785725
0.571000000000000396,0.780403968326996322
0.572000000000000397,0.782442792792380160
0.573000000000000398,0.784427286677681024
0.574000000000000399,0.786355499634664334
0.575000000000000400,0.788225571499006405
0.576000000000000401,0.790035730388852553
0.577000000000000401,0.791784290822376446
0.578000000000000402,0.793469651854772140
0.579000000000000403,0.795090295234911926
0.580000000000000404,0.796644783581873406
0.581000000000000405,0.798131758581790529
0.582000000000000406,0.799549939205040361
0.583000000000000407,0.800898119944172704
0.584000000000000408,0.802175169072645078
0.585000000000000409,0.803380026924600754
0.586000000000000409,0.804511704195876476
0.587000000000000410,0.805569280266269727
0.588000000000000411,0.806551901543363647
0.589000000000000412,0.807458779827804563
0.590000000000000413,0.808289190700342552
0.591000000000000414,0.809042471930538243
0.592000000000000415,0.809718021907272933
0.593000000000000416,0.810315298091122238
0.594000000000000417,0.810833815488612664
0.595000000000000417,0.811273145148279751
0.596000000000000418,0.811632912678776464
0.597000000000000419,0.811912796788722302
0.598000000000000420,0.812112527848552146
0.599000000000000421,0.812231886474119924
0.600000000000000422,0.812270702132158240
0.601000000000000423,0.812228851767501481
0.602000000000000424,0.812106258451970264
0.603000000000000425,0.811902890054884585
0.604000000000000425,0.811618757935173463
0.605000000000000426,0.811253915654894464
0.606000000000000427,0.810808457714095376
0.607000000000000428,0.810282518307046118
0.608000000000000429,0.809676270099441098
0.609000000000000430,0.808989923026821933
0.610000000000000431,0.808223723113731807
0.611000000000000432,0.807377951313742570
0.612000000000000433,0.806452922370085146
0.613000000000000433,0.805448983696738119
0.614000000000000434,0.804366514279866274
0.615000000000000435,0.803205923599440985
0.616000000000000436,0.801967650570906465
0.617000000000000437,0.800652162506597875
