# ZnS-NP_ARGSCA-AC
# h[nm],U(h)[kJ/mol]
0.149999999999999994,147.340780287065229004
0.150999999999999995,146.377660619428780819
0.151999999999999996,145.316748384223103585
0.152999999999999997,144.281020434954655229
0.153999999999999998,143.295308405272464825
0.154999999999999999,142.345461577115372620
0.156000000000000000,141.407902700257125161
0.157000000000000001,140.462513761641417886
0.158000000000000002,139.496690051806069732
0.159000000000000002,138.505157240287928744
0.160000000000000003,137.488123496735198614
0.161000000000000004,136.449109322620529383
0.162000000000000005,135.393075754718609005
0.163000000000000006,134.325067753094117506
0.164000000000000007,133.249380228327936493
0.165000000000000008,132.169159686924416519
0.166000000000000009,131.086324596885162919
0.167000000000000010,130.001691305956171618
0.168000000000000010,128.915211203641803195
0.169000000000000011,127.826248296415400318
0.170000000000000012,126.733848918214818013
0.171000000000000013,125.636974375953556660
0.172000000000000014,124.534682114231856076
0.173000000000000015,123.426251591094612081
0.174000000000000016,122.311258050684159571
0.175000000000000017,121.189601481554660722
0.176000000000000018,120.061499983828525728
0.177000000000000018,118.927457176887372725
0.178000000000000019,117.788212692345794608
0.179000000000000020,116.644683628013041243
0.180000000000000021,115.497903393218479096
0.181000000000000022,114.348962868414403715
0.182000000000000023,113.198957372693755019
0.183000000000000024,112.048941665182979932
0.184000000000000025,110.899894141682736404
0.185000000000000026,109.752690538448263169
0.186000000000000026,108.608086813054072195
0.187000000000000027,107.466710418362822566
0.188000000000000028,106.329058893833376942
0.189000000000000029,105.195504540531302951
0.190000000000000030,104.066303894340691727
0.191000000000000031,102.941610740140049529
0.192000000000000032,101.821491495221067680
0.193000000000000033,100.705941913523304265
0.194000000000000034,99.594904207376089289
0.195000000000000034,98.488283837728005210
0.196000000000000035,97.385965377685209887
0.197000000000000036,96.287827000575049397
0.198000000000000037,95.193753277933780055
0.199000000000000038,94.103646091839252108
0.200000000000000039,93.017433568376461039
0.201000000000000040,91.935077024354001196
0.202000000000000041,90.856575988128085442
0.203000000000000042,89.781971408565368620
0.204000000000000042,88.711347205191628973
0.205000000000000043,87.644830339060860069
0.206000000000000044,86.582589599558218652
0.207000000000000045,85.524833308947648902
0.208000000000000046,84.471806145646127106
0.209000000000000047,83.423785280494740846
0.210000000000000048,82.381076009101107616
0.211000000000000049,81.344007048891256773
0.212000000000000050,80.312925652898613293
0.213000000000000050,79.288192674454393227
0.214000000000000051,78.270177698574343594
0.215000000000000052,77.259254337575413274
0.216000000000000053,76.255795770783294074
0.217000000000000054,75.260170591467371537
0.218000000000000055,74.272739008628533952
0.219000000000000056,73.293849437140167424
0.220000000000000057,72.323835497105079639
0.221000000000000058,71.363013432186917839
0.222000000000000058,70.411679947090576093
0.223000000000000059,69.470110456267818222
0.224000000000000060,68.538557729230674909
0.225000000000000061,67.617250912479477165
0.226000000000000062,66.706394903885538383
0.227000000000000063,65.806170052293836648
0.228000000000000064,64.916732153016283746
0.229000000000000065,64.038212708640870119
0.230000000000000066,63.170719424085575611
0.231000000000000066,62.314336904950778262
0.232000000000000067,61.469127528881209344
0.233000000000000068,60.635132460728378589
0.234000000000000069,59.812372783728264380
0.235000000000000070,59.000850720590541698
0.236000000000000071,58.200550920268128152
0.237000000000000072,57.411441788174442991
0.238000000000000073,56.633476839685727100
0.239000000000000073,55.866596058866321073
0.240000000000000074,55.110727246436930216
0.241000000000000075,54.365787343048303626
0.242000000000000076,53.631683715891753650
0.243000000000000077,52.908315398555409104
0.244000000000000078,52.195574275807231857
0.245000000000000079,51.493346206637077955
0.246000000000000080,50.801512080417865036
0.247000000000000081,50.119948802441840030
0.248000000000000081,49.448530206352359073
0.249000000000000082,48.787127892126498807
0.250000000000000111,48.135611989268262789
0.251000000000000112,47.493851845754534224
0.252000000000000113,46.861716644038430957
0.253000000000000114,46.239075946065987921
0.254000000000000115,45.625800169806971951
0.255000000000000115,45.021761000249348683
0.256000000000000116,44.426831738163002683
0.257000000000000117,43.840887590215416481
0.258000000000000118,43.263805904220625109
0.259000000000000119,42.695466353439016416
0.260000000000000120,42.135751073916750897
0.261000000000000121,41.584544758877896697
0.262000000000000122,41.041734714156149266
0.263000000000000123,40.507210878590669267
0.264000000000000123,39.980865813212794535
0.265000000000000124,39.462594662924736610
0.266000000000000125,38.952295094224211880
0.267000000000000126,38.449867212361056090
0.268000000000000127,37.955213461131513952
0.269000000000000128,37.468238508324404279
0.270000000000000129,36.988849119634934937
0.271000000000000130,36.516954023658811934
0.272000000000000131,36.052463770375744900
0.273000000000000131,35.595290585327347799
0.274000000000000132,35.145348221494280949
0.275000000000000133,34.702551810680617450
0.276000000000000134,34.266817716022856644
0.277000000000000135,33.838063387057765397
0.278000000000000136,33.416207218606537310
0.279000000000000137,33.001168414565782427
0.280000000000000138,32.592866857537828196
0.281000000000000139,32.191222985083150832
0.282000000000000139,31.796157673239491714
0.283000000000000140,31.407592127821857275
0.284000000000000141,31.025447783898886911
0.285000000000000142,30.649646213730399325
0.286000000000000143,30.280109043350911691
0.287000000000000144,29.916757877892553807
0.288000000000000145,29.559514235658717496
0.289000000000000146,29.208299490886378891
0.290000000000000147,28.863034825069224354
0.291000000000000147,28.523641186656970348
0.292000000000000148,28.190039258895637886
0.293000000000000149,27.862149435530909614
0.294000000000000150,27.539891804060072644
0.295000000000000151,27.223186136187838002
0.296000000000000152,26.911951885116302208
0.297000000000000153,26.606108189280440968
0.298000000000000154,26.305573882125230512
0.299000000000000155,26.010267507510700824
0.300000000000000155,25.720107340324780409
0.301000000000000156,25.435011411881106369
0.302000000000000157,25.154897539679581087
0.303000000000000158,24.879683361110870976
0.304000000000000159,24.609286370692114332
0.305000000000000160,24.343623960429344066
0.306000000000000161,24.082613462912178193
0.307000000000000162,23.826172196758413691
0.308000000000000163,23.574217514039297328
0.309000000000000163,23.326666849330660369
0.310000000000000164,23.083437770050764470
0.311000000000000165,22.844448027761533382
0.312000000000000166,22.609615610126891028
0.313000000000000167,22.378858793238997293
0.314000000000000168,22.152096194040463928
0.315000000000000169,21.929246822588403631
0.316000000000000170,21.710230133923502649
0.317000000000000171,21.494966079324836272
0.318000000000000171,21.283375156748334689
0.319000000000000172,21.075378460263756608
0.320000000000000173,20.870897728321445186
0.321000000000000174,20.669855390696600494
0.322000000000000175,20.472174613973997737
0.323000000000000176,20.277779345451563131
0.324000000000000177,20.086594355355607888
0.325000000000000178,19.898545277274411802
0.326000000000000179,19.713558646730497514
0.327000000000000179,19.531561937823965991
0.328000000000000180,19.352483597892270240
0.329000000000000181,19.176253080142270591
0.330000000000000182,19.002800874221755123
0.331000000000000183,18.832058534707424968
0.332000000000000184,18.663958707495947209
0.333000000000000185,18.498435154093254340
0.334000000000000186,18.335422773805795771
0.335000000000000187,18.174857623844527410
0.336000000000000187,18.016676937359871857
0.337000000000000188,17.860819139431985292
0.338000000000000189,17.707223861046522018
0.339000000000000190,17.555831951091420251
0.340000000000000191,17.406585486414961395
0.341000000000000192,17.259427779989721330
0.342000000000000193,17.114303387230638265
0.343000000000000194,16.971158110518789641
0.344000000000000195,16.829939001985678715
0.345000000000000195,16.690594364614813827
0.346000000000000196,16.553073751719889373
0.347000000000000197,16.417327964860483291
0.348000000000000198,16.283309050257500417
0.349000000000000199,16.150970293771855779
0.350000000000000200,16.020266214510545666
0.351000000000000201,15.891152557124787137
0.352000000000000202,15.763586282865222898
0.353000000000000203,15.637525559459163560
0.354000000000000203,15.512929749874539098
0.355000000000000204,15.389759400035028847
0.356000000000000205,15.267976225550103919
0.357000000000000206,15.147543097522889965
0.358000000000000207,15.028424027498052951
0.359000000000000208,14.910584151610768444
0.360000000000000209,14.793989713996470670
0.361000000000000210,14.678608049520201817
0.362000000000000210,14.564407565882609319
0.363000000000000211,14.451357725158450407
0.364000000000000212,14.339429024821729541
0.365000000000000213,14.228592978310208750
0.366000000000000214,14.118822095180215470
0.367000000000000215,14.010089860901052461
0.368000000000000216,13.902370716336587719
0.369000000000000217,13.795640036959849084
0.370000000000000218,13.689874111844755333
0.371000000000000218,13.585050122477213108
0.372000000000000219,13.481146121426087703
0.373000000000000220,13.378141010912880660
0.374000000000000221,13.276014521316955808
0.375000000000000222,13.174747189651750290
0.376000000000000223,13.074320338045158252
0.377000000000000224,12.974716052256122012
0.378000000000000225,12.875917160257353444
0.379000000000000226,12.777907210912667679
0.380000000000000226,12.680670452775615331
0.381000000000000227,12.584191813034719232
0.382000000000000228,12.488456876628815095
0.383000000000000229,12.393451865554641955
0.384000000000000230,12.299163618387288111
0.385000000000000231,12.205579570032591974
0.386000000000000232,12.112687731729348428
0.387000000000000233,12.020476671317595674
0.388000000000000234,11.928935493788205946
0.389000000000000234,11.838053822127436732
0.390000000000000235,11.747821778469134557
0.391000000000000236,11.658229965565988451
0.392000000000000237,11.569269448589983185
0.393000000000000238,11.480931737271411919
0.394000000000000239,11.393208768384408103
0.395000000000000240,11.306092888586212197
0.396000000000000241,11.219576837616344278
0.397000000000000242,11.133653731860880143
0.398000000000000242,11.048317048286255826
0.399000000000000243,10.963560608746181657
0.400000000000000244,10.879378564664351714
0.401000000000000245,10.795765382094998586
0.402000000000000246,10.712715827162689664
0.403000000000000247,10.630224951881837470
0.404000000000000248,10.548288080356032381
0.405000000000000249,10.466900795356648857
0.406000000000000250,10.386058925279460396
0.407000000000000250,10.305758531477689388
0.408000000000000251,10.225995895969244742
0.409000000000000252,10.146767509515619565
0.410000000000000253,10.068070060069263860
0.411000000000000254,9.989900421586133561
0.412000000000000255,9.912255643199470612
0.413000000000000256,9.835132938750700049
0.414000000000000257,9.758529676673017406
0.415000000000000258,9.682443370222792112
0.416000000000000258,9.606871668053907243
0.417000000000000259,9.531812345129633712
0.418000000000000260,9.457263293966672535
0.419000000000000261,9.383222516205616870
0.420000000000000262,9.309688114502041145
0.421000000000000263,9.236658284732168767
0.422000000000000264,9.164131308507052154
0.423000000000000265,9.092105545988946602
0.424000000000000266,9.020579429003566574
0.425000000000000266,8.949551454441815324
0.426000000000000267,8.879020177944408232
0.427000000000000268,8.808984207862945226
0.428000000000000269,8.739442199490754959
0.429000000000000270,8.670392849556934678
0.430000000000000271,8.601834890976949310
0.431000000000000272,8.533767087853124877
0.432000000000000273,8.466188230718469043
0.433000000000000274,8.399097132017148581
0.434000000000000274,8.332492621815049461
0.435000000000000275,8.266373543733934071
0.436000000000000276,8.200738751102635504
0.437000000000000277,8.135587103318805191
0.438000000000000278,8.070917462414936239
0.439000000000000279,8.006728689822251610
0.440000000000000280,7.943019643326175938
0.441000000000000281,7.879789174207331826
0.442000000000000282,7.817036124561822064
0.443000000000000282,7.754759324794912700
0.444000000000000283,7.692957591282095109
0.445000000000000284,7.631629724191760999
0.446000000000000285,7.570774505463783832
0.447000000000000286,7.510390696938275212
0.448000000000000287,7.450477038629104598
0.449000000000000288,7.391032247136716471
0.450000000000000289,7.332055014194909681
0.451000000000000290,7.273544005346430197
0.452000000000000290,7.215497858742194737
0.453000000000000291,7.157915184059298497
0.454000000000000292,7.100794561532794091
0.455000000000000293,7.044134541096573443
0.456000000000000294,6.987933641628716330
0.457000000000000295,6.932190350296664860
0.458000000000000296,6.876903121997972157
0.459000000000000297,6.822070378892190590
0.460000000000000298,6.767690510019752637
0.461000000000000298,6.713761871003799619
0.462000000000000299,6.660282783830917097
0.463000000000000300,6.607251536707020811
0.464000000000000301,6.554666383984539380
0.465000000000000302,6.502525546157336578
0.466000000000000303,6.450827209919850702
0.467000000000000304,6.399569528286934705
0.468000000000000305,6.348750620771199671
0.469000000000000306,6.298368573614597565
0.470000000000000306,6.248421440071086685
0.471000000000000307,6.198907240737475455
0.472000000000000308,6.149823963929462067
0.473000000000000309,6.101169566100059782
0.474000000000000310,6.052941972297739781
0.475000000000000311,6.005139076661604847
0.476000000000000312,5.957758742951183351
0.477000000000000313,5.910798805108205656
0.478000000000000314,5.864257067848265947
0.479000000000000314,5.818131307279893250
0.480000000000000315,5.772419271548976383
0.481000000000000316,5.727118681506416564
0.482000000000000317,5.682227231396990597
0.483000000000000318,5.637742589567514173
0.484000000000000319,5.593662399192406376
0.485000000000000320,5.549984279014964272
0.486000000000000321,5.506705824102536617
0.487000000000000322,5.463824606614019253
0.488000000000000322,5.421338176578166745
0.489000000000000323,5.379244062681090455
0.490000000000000324,5.337539773061630299
0.491000000000000325,5.296222796113211118
0.492000000000000326,5.255290601290851349
0.493000000000000327,5.214740639922104570
0.494000000000000328,5.174570346020764156
0.495000000000000329,5.134777137102195077
0.496000000000000330,5.095358414999246577
0.497000000000000330,5.056311566677657687
0.498000000000000331,5.017633965050149136
0.499000000000000332,4.979322969788102071
0.500000000000000333,4.941375928130097961
0.501000000000000334,4.903790175686482122
0.502000000000000335,4.866563037239098222
0.503000000000000336,4.829691827535629756
0.504000000000000337,4.793173852077675434
0.505000000000000338,4.757006407902095724
0.506000000000000338,4.721186784354900468
0.507000000000000339,4.685712263857194415
0.508000000000000340,4.650580122662625548
0.509000000000000341,4.615787631605829056
0.510000000000000342,4.581332056841489475
0.511000000000000343,4.547210660573460572
0.512000000000000344,4.513420701773728005
0.513000000000000345,4.479959436890718294
0.514000000000000346,4.446824120546660097
0.515000000000000346,4.414012006223740237
0.516000000000000347,4.381520346938748034
0.517000000000000348,4.349346395905940632
0.518000000000000349,4.317487407187925896
0.519000000000000350,4.285940636334378162
0.520000000000000351,4.254703341008413631
0.521000000000000352,4.223772781600374060
0.522000000000000353,4.193146221829078257
0.523000000000000353,4.162820929330200315
0.524000000000000354,4.132794176231867844
0.525000000000000355,4.103063239717276822
0.526000000000000356,4.073625402574351462
0.527000000000000357,4.044477953732337205
0.528000000000000358,4.015618188785348153
0.529000000000000359,3.987043410502800533
0.530000000000000360,3.958750929326830370
0.531000000000000361,3.930738063856595854
0.532000000000000361,3.903002141319562579
0.533000000000000362,3.875540498029787617
0.534000000000000363,3.848350479833293925
0.535000000000000364,3.821429442540487109
0.536000000000000365,3.794774752345847268
0.537000000000000366,3.768383786234809296
0.538000000000000367,3.742253932378085235
0.539000000000000368,3.716382590513357620
0.540000000000000369,3.690767172314612932
0.541000000000000369,3.665405101749086292
0.542000000000000370,3.640293815422070534
0.543000000000000371,3.615430762909594087
0.544000000000000372,3.590813407079192388
0.545000000000000373,3.566439224398865182
0.546000000000000374,3.542305705234357838
0.547000000000000375,3.518410354134970497
0.548000000000000376,3.494750690107959024
0.549000000000000377,3.471324246881795972
0.550000000000000377,3.448128573158306232
0.551000000000000378,3.425161232854014859
0.552000000000000379,3.402419805330714642
0.553000000000000380,3.379901885615522072
0.554000000000000381,3.357605084610565171
0.555000000000000382,3.335527029292445267
0.556000000000000383,3.313665362901720535
0.557000000000000384,3.292017745122478800
0.558000000000000385,3.270581852252318900
0.559000000000000385,3.249355377362789454
0.560000000000000386,3.228336030450516425
0.561000000000000387,3.207521538579236164
0.562000000000000388,3.186909646012869413
0.563000000000000389,3.166498114339798775
0.564000000000000390,3.146284722588592153
0.565000000000000391,3.126267267335310684
0.566000000000000392,3.106443562802600589
0.567000000000000393,3.086811440950708363
0.568000000000000393,3.067368751560682671
0.569000000000000394,3.048113362309836649
0.570000000000000395,3.029043158839737515
0.571000000000000396,3.010156044816867826
0.572000000000000397,2.991449941986080940
0.573000000000000398,2.972922790217146005
0.574000000000000399,2.954572547544418448
0.575000000000000400,2.936397190199926399
0.576000000000000401,2.918394712639966748
0.577000000000000401,2.900563127565388477
0.578000000000000402,2.882900465935763101
0.579000000000000403,2.865404776977617196
0.580000000000000404,2.848074128186782961
0.581000000000000405,2.830906605325206105
0.582000000000000406,2.813900312412180860
0.583000000000000407,2.797053371710330527
0.584000000000000408,2.780363923706379747
0.585000000000000409,2.763830127086922328
0.586000000000000409,2.747450158709335177
0.587000000000000410,2.731222213567948476
0.588000000000000411,2.715144504755696797
0.589000000000000412,2.699215263421282263
0.590000000000000413,2.683432738722117072
0.591000000000000414,2.667795197773095595
0.592000000000000415,2.652300925591356773
0.593000000000000416,2.636948225037200721
0.594000000000000417,2.621735416751272751
0.595000000000000417,2.606660839088102755
0.596000000000000418,2.591722848046238425
0.597000000000000419,2.576919817194968765
0.598000000000000420,2.562250137597867905
0.599000000000000421,2.547712217733206330
0.600000000000000422,2.533304483411394692
0.601000000000000423,2.519025377689581013
0.602000000000000424,2.504873360783462122
0.603000000000000425,2.490846909976464740
0.604000000000000425,2.476944519526432575
0.605000000000000426,2.463164700569863363
0.606000000000000427,2.449505981023812673
0.607000000000000428,2.435966905485674072
0.608000000000000429,2.422546035130711761
0.609000000000000430,2.409241947607740908
0.610000000000000431,2.396053236932762509
0.611000000000000432,2.382978513380846763
0.612000000000000433,2.370016403376304925
0.613000000000000433,2.357165549381154968
0.614000000000000434,2.344424609782112423
0.615000000000000435,2.331792258776081095
0.616000000000000436,2.319267186254290181
