# ZnS-NP_CS-218-AC
# h[nm],U(h)[kJ/mol]
0.149999999999999994,63.427218960341484433
0.150999999999999995,62.973126390395691487
0.151999999999999996,62.213336213065907998
0.152999999999999997,61.417054258236156272
0.153999999999999998,60.665035171378733025
0.154999999999999999,59.958092210818641377
0.156000000000000000,59.272183302481323608
0.157000000000000001,58.583325521887942955
0.158000000000000002,57.876407746749542582
0.159000000000000002,57.146146414323219176
0.160000000000000003,56.394806973265907857
0.161000000000000004,55.629117313516658783
0.162000000000000005,54.857511941673031686
0.163000000000000006,54.088125960108207835
0.164000000000000007,53.327584035756750325
0.165000000000000008,52.580459220744216964
0.166000000000000009,51.849220241635350703
0.167000000000000010,51.134488831015055155
0.168000000000000010,50.435458287145770839
0.169000000000000011,49.750362317834074588
0.170000000000000012,49.076919714971538156
0.171000000000000013,48.412711129385627373
0.172000000000000014,47.755467793546316102
0.173000000000000015,47.103268700552966664
0.174000000000000016,46.454653474062560292
0.175000000000000017,45.808664195150633702
0.176000000000000018,45.164832013615082928
0.177000000000000018,44.523124540048989672
0.178000000000000019,43.883868669251206995
0.179000000000000020,43.247661299776794408
0.180000000000000021,42.615277878920664989
0.181000000000000022,41.987586152624054137
0.182000000000000023,41.365470148092470026
0.183000000000000024,40.749767382467616983
0.184000000000000025,40.141220625432751490
0.185000000000000026,39.540444252631651523
0.186000000000000026,38.947904286100992977
0.187000000000000027,38.363910586311334328
0.188000000000000028,37.788619288620530767
0.189000000000000029,37.222043413963440628
0.190000000000000030,36.664069580783475999
0.191000000000000031,36.114478858716438481
0.192000000000000032,35.572969996581505825
0.193000000000000033,35.039183496505977189
0.194000000000000034,34.512725267526448647
0.195000000000000034,33.993188856611467941
0.196000000000000035,33.480175508735541712
0.197000000000000036,32.973311540773678985
0.198000000000000037,32.472262720560628679
0.199000000000000038,31.976745519329995204
0.200000000000000039,31.486535251991021767
0.201000000000000040,31.001471236030756273
0.202000000000000041,30.521459188120360295
0.203000000000000042,30.046471140378059772
0.204000000000000042,29.576543198756247932
0.205000000000000043,29.111771487418668158
0.206000000000000044,28.652306628491697182
0.207000000000000045,28.198347099315657971
0.208000000000000046,27.750131792158157396
0.209000000000000047,27.307932076870876870
0.210000000000000048,26.872043637444448905
0.211000000000000049,26.442778320792690749
0.212000000000000050,26.020456202005920687
0.213000000000000050,25.605398036083830249
0.214000000000000051,25.197918232842202002
0.215000000000000052,24.798318460087521942
0.216000000000000053,24.406881950854032226
0.217000000000000054,24.023868563892939676
0.218000000000000055,23.649510622930993264
0.219000000000000056,23.284009539579638925
0.220000000000000057,22.927533207175638807
0.221000000000000058,22.580214138186239126
0.222000000000000058,22.242148305968573396
0.223000000000000059,21.913394642443712712
0.224000000000000060,21.593975136405951787
0.225000000000000061,21.283875472498326786
0.226000000000000062,20.983046148095827022
0.227000000000000063,20.691404004199988265
0.228000000000000064,20.408834106720593837
0.229000000000000065,20.135191915969052445
0.230000000000000066,19.870305684599777862
0.231000000000000066,19.613979027408248612
0.232000000000000067,19.365993610148738213
0.233000000000000068,19.126111908706953102
0.234000000000000069,18.894079994411633550
0.235000000000000070,18.669630305869358011
0.236000000000000071,18.452484372352728315
0.237000000000000072,18.242355458374245103
0.238000000000000073,18.038951103562322231
0.239000000000000073,17.841975536263809943
0.240000000000000074,17.651131943381177081
0.241000000000000075,17.466124582778881802
0.242000000000000076,17.286660728136006071
0.243000000000000077,17.112452439366968804
0.244000000000000078,16.943218154669231978
0.245000000000000079,16.778684102885755181
0.246000000000000080,16.618585537193485635
0.247000000000000081,16.462667793155901563
0.248000000000000081,16.310687175918506142
0.249000000000000082,16.162411682796040679
0.250000000000000111,16.017621568714954350
0.251000000000000112,15.876109762951989168
0.252000000000000113,15.737682146368365821
0.253000000000000114,15.602157698898063032
0.254000000000000115,15.469368527426889059
0.255000000000000115,15.339159784415622667
0.256000000000000116,15.211389487693612210
0.257000000000000117,15.085928251796749677
0.258000000000000118,14.962658941062594309
0.259000000000000119,14.841476254440866711
0.260000000000000120,14.722286251645673616
0.261000000000000121,14.605005829879067036
0.262000000000000122,14.489562159907503514
0.263000000000000123,14.375892089784688466
0.264000000000000123,14.263941523996416905
0.265000000000000124,14.153664785265160475
0.266000000000000125,14.045023965702162272
0.267000000000000126,13.937988273440387488
0.268000000000000127,13.832533380329071093
0.269000000000000128,13.728640775725315493
0.270000000000000129,13.626297130884939435
0.271000000000000130,13.525493677937612702
0.272000000000000131,13.426225606933286372
0.273000000000000131,13.328491483970708487
0.274000000000000132,13.232292692966728609
0.275000000000000133,13.137632903197925316
0.276000000000000134,13.044517564345920135
0.277000000000000135,12.952953430404278379
0.278000000000000136,12.862948113458994470
0.279000000000000137,12.774509668036023058
0.280000000000000138,12.687646206417793948
0.281000000000000139,12.602365545065818964
0.282000000000000139,12.518674882047537977
0.283000000000000140,12.436580505151315634
0.284000000000000141,12.356087530183847534
0.285000000000000142,12.277199668776912489
0.286000000000000143,12.199919024885181429
0.287000000000000144,12.124245919032205165
0.288000000000000145,12.050178739255947846
0.289000000000000146,11.977713817618171888
0.290000000000000147,11.906845331070899263
0.291000000000000147,11.837565225418268611
0.292000000000000148,11.769863161070983182
0.293000000000000149,11.703726479262524407
0.294000000000000150,11.639140187380272451
0.295000000000000151,11.576086962059152441
0.296000000000000152,11.514547168689531986
0.297000000000000153,11.454498896003823205
0.298000000000000154,11.395918004426517811
0.299000000000000155,11.338778186899121536
0.300000000000000155,11.283051040924245711
0.301000000000000156,11.228706150610591408
0.302000000000000157,11.175711177542137165
0.303000000000000158,11.124031959340301867
0.304000000000000159,11.073632614835442922
0.305000000000000160,11.024475654814532177
0.306000000000000161,10.976522097363362818
0.307000000000000162,10.929731586874732230
0.308000000000000163,10.884062515847602981
0.309000000000000163,10.839472148656119188
0.310000000000000164,10.795916746521172058
0.311000000000000165,10.753351692970545272
0.312000000000000166,10.711731619126444670
0.313000000000000167,10.671010528210819857
0.314000000000000168,10.631141918709555938
0.315000000000000169,10.592078905685678336
0.316000000000000170,10.553774339779582903
0.317000000000000171,10.516180923480087372
0.318000000000000171,10.479251324294612147
0.319000000000000172,10.442938284489105882
0.320000000000000173,10.407194727108812771
0.321000000000000174,10.371973858029774007
0.322000000000000175,10.337229263827243386
0.323000000000000176,10.302915005282116567
0.324000000000000177,10.268985706378852996
0.325000000000000178,10.235396638679086223
0.326000000000000179,10.202103800983799431
0.327000000000000179,10.169063994223588310
0.328000000000000180,10.136234891541485936
0.329000000000000181,10.103575103555657577
0.330000000000000182,10.071044238810603844
0.331000000000000183,10.038602959444878238
0.332000000000000184,10.006213032121047846
0.333000000000000185,9.973837374279913348
0.334000000000000186,9.941440095795424980
0.335000000000000187,9.908986536119972044
0.336000000000000187,9.876443297021292977
0.337000000000000188,9.843778271022740611
0.338000000000000189,9.810960665667590064
0.339000000000000190,9.777961023735903368
0.340000000000000191,9.744751239549387378
0.341000000000000192,9.711304571505060323
0.342000000000000193,9.677595650983429110
0.343000000000000194,9.643600487780359387
0.344000000000000195,9.609296472214934326
0.345000000000000195,9.574662374067319348
0.346000000000000196,9.539678338502122656
0.347000000000000197,9.504325879133283195
0.348000000000000198,9.468587868386405759
0.349000000000000199,9.432448525313812837
0.350000000000000200,9.395893401016461866
0.351000000000000201,9.358909361825286766
0.352000000000000202,9.321484570392122748
0.353000000000000203,9.283608464838248864
0.354000000000000203,9.245271736105591387
0.355000000000000204,9.206466303652321770
0.356000000000000205,9.167185289631500922
0.357000000000000206,9.127422991687407006
0.358000000000000207,9.087174854500606358
0.359000000000000208,9.046437440208620728
0.360000000000000209,9.005208397824880251
0.361000000000000210,8.963486431774471797
0.362000000000000210,8.921271269660653758
0.363000000000000211,8.878563629371765131
0.364000000000000212,8.835365185633595075
0.365000000000000213,8.791678536107752961
0.366000000000000214,8.747507167132152262
0.367000000000000215,8.702855419194959197
0.368000000000000216,8.657728452229147109
0.369000000000000217,8.612132210810072408
0.370000000000000218,8.566073389334279753
0.371000000000000218,8.519559397253216204
0.372000000000000219,8.472598324431411143
0.373000000000000220,8.425198906694308931
0.374000000000000221,8.377370491627031512
0.375000000000000222,8.329123004681125764
0.376000000000000223,8.280466915642552550
0.377000000000000224,8.231413205510374809
0.378000000000000225,8.181973333831795259
0.379000000000000226,8.132159206535748197
0.380000000000000226,8.081983144303643840
0.381000000000000227,8.031457851512614710
0.382000000000000228,7.980596385783334412
0.383000000000000229,7.929412128161385631
0.384000000000000230,7.877918753958157438
0.385000000000000231,7.826130204274382329
0.386000000000000232,7.774060658226735754
0.387000000000000233,7.721724505895180002
0.388000000000000234,7.669136322006397499
0.389000000000000234,7.616310840366099733
0.390000000000000235,7.563262929050912575
0.391000000000000236,7.510007566368190446
0.392000000000000237,7.456559817590289185
0.393000000000000238,7.402934812467703907
0.394000000000000239,7.349147723523797637
0.395000000000000240,7.295213745132080874
0.396000000000000241,7.241148073375375027
0.397000000000000242,7.186965886684721916
0.398000000000000242,7.132682327254483923
0.399000000000000243,7.078312483228718754
0.400000000000000244,7.023871371652766982
0.401000000000000245,6.969373922182739989
0.402000000000000246,6.914834961544674918
0.403000000000000247,6.860269198734030738
0.404000000000000248,6.805691210945385983
0.405000000000000249,6.751115430221332758
0.406000000000000250,6.696556130808876794
0.407000000000000250,6.642027417210902840
0.408000000000000251,6.587543212919685587
0.409000000000000252,6.533117249818952033
0.410000000000000253,6.478763058240362582
0.411000000000000254,6.424493957660023291
0.412000000000000255,6.370323048020145151
0.413000000000000256,6.316263201660677673
0.414000000000000257,6.262327055845546830
0.415000000000000258,6.208527005867747306
0.416000000000000258,6.154875198717554063
0.417000000000000259,6.101383527297802090
0.418000000000000260,6.048063625170208013
0.419000000000000261,5.994926861816571417
0.420000000000000262,5.941984338398724752
0.421000000000000263,5.889246884001030580
0.422000000000000264,5.836725052339379438
0.423000000000000265,5.784429118920536794
0.424000000000000266,5.732369078635967341
0.425000000000000266,5.680554643774223145
0.426000000000000267,5.628995242436203306
0.427000000000000268,5.577700017337743787
0.428000000000000269,5.526677824984126630
0.429000000000000270,5.475937235201376652
0.430000000000000271,5.425486531009329205
0.431000000000000272,5.375333708821736778
0.432000000000000273,5.325486478958943337
0.433000000000000274,5.275952266458827644
0.434000000000000274,5.226738212172027609
0.435000000000000275,5.177851174127796163
0.436000000000000276,5.129297729156943042
0.437000000000000277,5.081084174758785821
0.438000000000000278,5.033216531199227184
0.439000000000000279,4.985700543827411124
0.440000000000000280,4.938541685598658582
0.441000000000000281,4.891745159791817343
0.442000000000000282,4.845315902909278272
0.443000000000000282,4.799258587748432170
0.444000000000000283,4.753577626633470388
0.445000000000000284,4.708277174796897668
0.446000000000000285,4.663361133900290056
0.447000000000000286,4.618833155684307634
0.448000000000000287,4.574696645738127287
0.449000000000000288,4.530954767378881698
0.450000000000000289,4.487610445631949219
0.451000000000000290,4.444666371303258146
0.452000000000000290,4.402125005135047786
0.453000000000000291,4.359988582036883109
0.454000000000000292,4.318259115383967561
0.455000000000000293,4.276938401375079302
0.456000000000000294,4.236028023442814039
0.457000000000000295,4.195529356709028157
0.458000000000000296,4.155443572478682235
0.459000000000000297,4.115771642765587046
0.460000000000000298,4.076514344843739757
0.461000000000000298,4.037672265818347483
0.462000000000000299,3.999245807210703330
0.463000000000000300,3.961235189551515212
0.464000000000000301,3.923640456977401048
0.465000000000000302,3.886461481825610242
0.466000000000000303,3.849697969222162897
0.467000000000000304,3.813349461658912531
0.468000000000000305,3.777415343555246885
0.469000000000000306,3.741894845800307401
0.470000000000000306,3.706787050271908690
0.471000000000000307,3.672090894328442268
0.472000000000000308,3.637805175270373503
0.473000000000000309,3.603928554768002446
0.474000000000000310,3.570459563252485147
0.475000000000000311,3.537396604267144085
0.476000000000000312,3.504737958776484419
0.477000000000000313,3.472481789430213350
0.478000000000000314,3.440626144780076778
0.479000000000000314,3.409168963447152034
0.480000000000000315,3.378108078237658241
0.481000000000000316,3.347441220205322310
0.482000000000000317,3.317166022658576630
0.483000000000000318,3.287280025110983050
0.484000000000000319,3.257780677173375494
0.485000000000000320,3.228665342386437320
0.486000000000000321,3.199931301992412269
0.487000000000000322,3.171575758644942233
0.488000000000000322,3.143595840055977142
0.489000000000000323,3.115988602578932731
0.490000000000000324,3.088751034727316380
0.491000000000000325,3.061880060628165534
0.492000000000000326,3.035372543409730284
0.493000000000000327,3.009225288522945796
0.494000000000000328,2.983435046996311790
0.495000000000000329,2.957998518623877526
0.496000000000000330,2.932912355086152445
0.497000000000000330,2.908173163003759054
0.498000000000000331,2.883777506923833833
0.499000000000000332,2.859721912239154396
0.500000000000000333,2.836002868040055080
0.501000000000000334,2.812616829899341919
0.502000000000000335,2.789560222590336647
0.503000000000000336,2.766829442738372613
0.504000000000000337,2.744420861406019707
0.505000000000000338,2.722330826612441079
0.506000000000000338,2.700555665787274240
0.507000000000000339,2.679091688159492612
0.508000000000000340,2.657935187081803541
0.509000000000000341,2.637082442291055706
0.510000000000000342,2.616529722105304767
0.511000000000000343,2.596273285558107879
0.512000000000000344,2.576309384470730546
0.513000000000000345,2.556634265462940370
0.514000000000000346,2.537244171903068501
0.515000000000000346,2.518135345798132363
0.516000000000000347,2.499304029624722645
0.517000000000000348,2.480746468101477475
0.518000000000000349,2.462458909903917359
0.519000000000000350,2.444437609322486438
0.520000000000000351,2.426678827864631405
0.521000000000000352,2.409178835801744079
0.522000000000000353,2.391933913661896671
0.523000000000000353,2.374940353669162008
0.524000000000000354,2.358194461130497466
0.525000000000000355,2.341692555771012874
0.526000000000000356,2.325430973018590919
0.527000000000000357,2.309406065238725159
0.528000000000000358,2.293614202920510881
0.529000000000000359,2.278051775814719626
0.530000000000000360,2.262715194024873089
0.531000000000000361,2.247600889052225881
0.532000000000000361,2.232705314795619955
0.533000000000000362,2.218024948507095750
0.534000000000000363,2.203556291704225956
0.535000000000000364,2.189295871040060515
0.536000000000000365,2.175240239131631448
0.537000000000000366,2.161385975347916766
0.538000000000000367,2.147729686558190743
0.539000000000000368,2.134268007841650494
0.540000000000000369,2.120997603159250566
0.541000000000000369,2.107915165988602624
0.542000000000000370,2.095017419922886148
0.543000000000000371,2.082301119234587716
0.544000000000000372,2.069763049405003663
0.545000000000000373,2.057400027620334360
0.546000000000000374,2.045208903235237408
0.547000000000000375,2.033186558204716832
0.548000000000000376,2.021329907485136079
0.549000000000000377,2.009635899405249226
0.550000000000000377,1.998101516007994460
0.551000000000000378,1.986723773363953116
0.552000000000000379,1.975499721857181701
0.553000000000000380,1.964426446444268448
0.554000000000000381,1.953501066887376680
0.555000000000000382,1.942720737962013944
0.556000000000000383,1.932082649640335603
0.557000000000000384,1.921584027250666349
0.558000000000000385,1.911222131614021880
0.559000000000000385,1.900994259158323318
0.560000000000000386,1.890897742011012905
0.561000000000000387,1.880929948070781732
0.562000000000000388,1.871088281059088754
0.563000000000000389,1.861370180552121667
0.564000000000000390,1.851773121993897764
0.565000000000000391,1.842294616691114273
0.566000000000000392,1.832932211790421206
0.567000000000000393,1.823683490238691807
0.568000000000000393,1.814546070726960725
0.569000000000000394,1.805517607618564835
0.570000000000000395,1.796595790862131725
0.571000000000000396,1.787778345889957876
0.572000000000000397,1.779063033502327640
0.573000000000000398,1.770447649738367435
0.574000000000000399,1.761930025733925875
0.575000000000000400,1.753508027567043159
0.576000000000000401,1.745179556091501327
0.577000000000000401,1.736942546758968531
0.578000000000000402,1.728794969430222483
0.579000000000000403,1.720734828175955355
0.580000000000000404,1.712760161067587550
0.581000000000000405,1.704869039958595067
0.582000000000000406,1.697059570256756356
0.583000000000000407,1.689329890687787827
0.584000000000000408,1.681678173050762837
0.585000000000000409,1.674102621965757098
0.586000000000000409,1.666601474614099798
0.587000000000000410,1.659173000471633186
0.588000000000000411,1.651815501035372780
0.589000000000000412,1.644527309543915239
0.590000000000000413,1.637306790691989367
0.591000000000000414,1.630152340339476869
0.592000000000000415,1.623062385215249481
0.593000000000000416,1.616035382616174632
0.594000000000000417,1.609069820101590720
0.595000000000000417,1.602164215183574214
0.596000000000000418,1.595317115013311415
0.597000000000000419,1.588527096063860222
0.598000000000000420,1.581792763809602764
0.599000000000000421,1.575112752402648253
0.600000000000000422,1.568485724346474708
0.601000000000000423,1.561910370167074236
0.602000000000000424,1.555385408081831011
0.603000000000000425,1.548909583666397527
0.604000000000000425,1.542481669519816689
0.605000000000000426,1.536100464928095377
0.606000000000000427,1.529764795526461496
0.607000000000000428,1.523473512960537679
0.608000000000000429,1.517225494546599496
0.609000000000000430,1.511019642931178630
0.610000000000000431,1.504854885750135818
0.611000000000000432,1.498730175287450228
0.612000000000000433,1.492644488133871405
0.613000000000000433,1.486596824845614728
0.614000000000000434,1.480586209603280246
0.615000000000000435,1.474611689871141440
0.616000000000000436,1.468672336056968231
0.617000000000000437,1.462767241172523658
0.618000000000000438,1.456895520494890350
0.619000000000000439,1.451056311228761775
