# ZnS-NP_CS-271-AC
# h[nm],U(h)[kJ/mol]
0.149999999999999994,81.269168742727146082
0.150999999999999995,80.464173937074846776
0.151999999999999996,79.150724355604097582
0.152999999999999997,77.738246139958462777
0.153999999999999998,76.377692142902333217
0.154999999999999999,75.098213106265191641
0.156000000000000000,73.881078304383052568
0.157000000000000001,72.696609388039121313
0.158000000000000002,71.520208696055505015
0.159000000000000002,70.337273743749875621
0.160000000000000003,69.142767953657227054
0.161000000000000004,67.938696101919589410
0.162000000000000005,66.731191106949509617
0.163000000000000006,65.528007102180765742
0.164000000000000007,64.336699675321256109
0.165000000000000008,63.163504887653552089
0.166000000000000009,62.012805216216655424
0.167000000000000010,60.887029930407962297
0.168000000000000010,59.786840509985701431
0.169000000000000011,58.711474987486212740
0.170000000000000012,57.659154999010411302
0.171000000000000013,56.627488571217895696
0.172000000000000014,55.613826804486471644
0.173000000000000015,54.615552419513349491
0.174000000000000016,53.630292638312525355
0.175000000000000017,52.656058702177745090
0.176000000000000018,51.691320358160716353
0.177000000000000018,50.735026768271708875
0.178000000000000019,49.786586325719738966
0.179000000000000020,48.845817483831680761
0.180000000000000021,47.912881458166012294
0.181000000000000022,46.988205959879394413
0.182000000000000023,46.072407252080623152
0.183000000000000024,45.166215989297327837
0.184000000000000025,44.270410627519460434
0.185000000000000026,43.385760746914471042
0.186000000000000026,42.512981439339881717
0.187000000000000027,41.652698978762302318
0.188000000000000028,40.805427297514249574
0.189000000000000029,39.971554307656425920
0.190000000000000030,39.151336802421795369
0.191000000000000031,38.344902514607902333
0.192000000000000032,37.552257865084108346
0.193000000000000033,36.773299976439744796
0.194000000000000034,36.007831629088236980
0.195000000000000034,35.255577978726485355
0.196000000000000035,34.516204017755185873
0.197000000000000036,33.789331935598902135
0.198000000000000037,33.074557703630418359
0.199000000000000038,32.371466372249841470
0.200000000000000039,31.679645715633348857
0.201000000000000040,30.998697990725922580
0.202000000000000041,30.328249689724696481
0.203000000000000042,29.667959259275903605
0.204000000000000042,29.017522835448222196
0.205000000000000043,28.376678102414452098
0.206000000000000044,27.745206426230659247
0.207000000000000045,27.122933444932975533
0.208000000000000046,26.509728314253766968
0.209000000000000047,25.905501816463544884
0.210000000000000048,25.310203539966931174
0.211000000000000049,24.723818330990873449
0.212000000000000050,24.146362207511366194
0.213000000000000050,23.577877910813530349
0.214000000000000051,23.018430252926908253
0.215000000000000052,22.468101399610596047
0.216000000000000053,21.926986209396268634
0.217000000000000054,21.395187730094164635
0.218000000000000055,20.872812935646344101
0.219000000000000056,20.359968768669631345
0.220000000000000057,19.856758537750526017
0.221000000000000058,19.363278703731452879
0.222000000000000058,18.879616075971227929
0.223000000000000059,18.405845427925434876
0.224000000000000060,17.942027531367489956
0.225000000000000061,17.488207600116574270
0.226000000000000062,17.044414127177844875
0.227000000000000063,16.610658093635798593
0.228000000000000064,16.186932523360866298
0.229000000000000065,15.773212354468366669
0.230000000000000066,15.369454596383686606
0.231000000000000066,14.975598740188093672
0.232000000000000067,14.591567389525092580
0.233000000000000068,14.217267079615615089
0.234000000000000069,13.852589252752400384
0.235000000000000070,13.497411359914304185
0.236000000000000071,13.151598059765849058
0.237000000000000072,12.815002488200068598
0.238000000000000073,12.487467573667961673
0.239000000000000073,12.168827375749096120
0.240000000000000074,11.858908426695041527
0.241000000000000075,11.557531057974269828
0.242000000000000076,11.264510696118978927
0.243000000000000077,10.979659114388667263
0.244000000000000078,10.702785628893892067
0.245000000000000079,10.433698229844655003
0.246000000000000080,10.172204640485599469
0.247000000000000081,9.918113298041676629
0.248000000000000081,9.671234252617370686
0.249000000000000082,9.431379981464534268
0.250000000000000111,9.198366117357824834
0.251000000000000112,8.972012090994251565
0.252000000000000113,8.752141688367592209
0.253000000000000114,8.538583524965131843
0.254000000000000115,8.331171439398875833
0.255000000000000115,8.129744809724623877
0.256000000000000116,7.934148796227067812
0.257000000000000117,7.744234514866780827
0.258000000000000118,7.559859145904229472
0.259000000000000119,7.380885982445295035
0.260000000000000120,7.207184423801389350
0.261000000000000121,7.038629918634057958
0.262000000000000122,6.875103862866308368
0.263000000000000123,6.716493457300259706
0.264000000000000123,6.562691529789080214
0.265000000000000124,6.413596326679154913
0.266000000000000125,6.269111278071465065
0.267000000000000126,6.129144741256435935
0.268000000000000127,5.993609726458627662
0.269000000000000128,5.862423608792901142
0.270000000000000129,5.735507830085685654
0.271000000000000130,5.612787593958479704
0.272000000000000131,5.494191557309450857
0.273000000000000131,5.379651521065854425
0.274000000000000132,5.269102122818267731
0.275000000000000133,5.162480533689405959
0.276000000000000134,5.059726161537964728
0.277000000000000135,4.960780362353274242
0.278000000000000136,4.865586161460571546
0.279000000000000137,4.774087985931279476
0.280000000000000138,4.686231409378288859
0.281000000000000139,4.601962910113488903
0.282000000000000139,4.521229643454683256
0.283000000000000140,4.443979228791278935
0.284000000000000141,4.370159551853294744
0.285000000000000142,4.299718582476188544
0.286000000000000143,4.232604208014526748
0.287000000000000144,4.168764082430701734
0.288000000000000145,4.108145490969890901
0.289000000000000146,4.050695230229728772
0.290000000000000147,3.996359503341154529
0.291000000000000147,3.945083829896388838
0.292000000000000148,3.896812970189191816
0.293000000000000149,3.851490863272075238
0.294000000000000150,3.809060578283550935
0.295000000000000151,3.769464278455539663
0.296000000000000152,3.732643197176472860
0.297000000000000153,3.698537625458017342
0.298000000000000154,3.667086910133175337
0.299000000000000155,3.638229462099208611
0.300000000000000155,3.611902773910641518
0.301000000000000156,3.588043446024522520
0.302000000000000157,3.566587221001785046
0.303000000000000158,3.547469024974557072
0.304000000000000159,3.530623015698890477
0.305000000000000160,3.515982636525650573
0.306000000000000161,3.503480675638098063
0.307000000000000162,3.493049329923349156
0.308000000000000163,3.484620272865615043
0.309000000000000163,3.478124725871546641
0.310000000000000164,3.473493532462063715
0.311000000000000165,3.470657234790286871
0.312000000000000166,3.469546151971295789
0.313000000000000167,3.470090459736227650
0.314000000000000168,3.472220270950609144
0.315000000000000169,3.475865716564245478
0.316000000000000170,3.480957026587574887
0.317000000000000171,3.487424610716950646
0.318000000000000171,3.495199138258462845
0.319000000000000172,3.504211617026803172
0.320000000000000173,3.514393470921918894
0.321000000000000174,3.525676615912095802
0.322000000000000175,3.537993534176978816
0.323000000000000176,3.551277346188405737
0.324000000000000177,3.565461880530397032
0.325000000000000178,3.580481741282172781
0.326000000000000179,3.596272372809730111
0.327000000000000179,3.612770121832222348
0.328000000000000180,3.629912296649257630
0.329000000000000181,3.647637223433631615
0.330000000000000182,3.665884299512284006
0.331000000000000183,3.684594043574513478
0.332000000000000184,3.703708142762645927
0.333000000000000185,3.723169496614946894
0.334000000000000186,3.742922257844429446
0.335000000000000187,3.762911869950123389
0.336000000000000187,3.783085101669223516
0.337000000000000188,3.803390078289703435
0.338000000000000189,3.823776309852972677
0.339000000000000190,3.844194716285532998
0.340000000000000191,3.864597649507143906
0.341000000000000192,3.884938912570440550
0.342000000000000193,3.905173775894193788
0.343000000000000194,3.925258990658238467
0.344000000000000195,3.945152799433931712
0.345000000000000195,3.964814944128517205
0.346000000000000196,3.984206671326216309
0.347000000000000197,4.003290735112332577
0.348000000000000198,4.022031397469733704
0.349000000000000199,4.040394426339637413
0.350000000000000200,4.058347091440507093
0.351000000000000201,4.075858157940638549
0.352000000000000202,4.092897878080876239
0.353000000000000203,4.109437980844797167
0.354000000000000203,4.125451659773951008
0.355000000000000204,4.140913559025753088
0.356000000000000205,4.155799757771275083
0.357000000000000206,4.170087753029543265
0.358000000000000207,4.183756441034103268
0.359000000000000208,4.196786097226416601
0.360000000000000209,4.209158354969244620
0.361000000000000210,4.220856183071759915
0.362000000000000210,4.231863862216171057
0.363000000000000211,4.242166960373908502
0.364000000000000212,4.251752307297255840
0.365000000000000213,4.260607968170218030
0.366000000000000214,4.268723216500052153
0.367000000000000215,4.276088506328599159
0.368000000000000216,4.282695443840003335
0.369000000000000217,4.288536758439013497
0.370000000000000218,4.293606273371368687
0.371000000000000218,4.297898875955295850
0.372000000000000219,4.301410487490373136
0.373000000000000220,4.304138032907512290
0.374000000000000221,4.306079410221039794
0.375000000000000222,4.307233459841310896
0.376000000000000223,4.307599933803518688
0.377000000000000224,4.307179464965892990
0.378000000000000225,4.305973536227702070
0.379000000000000226,4.303984449815102309
0.380000000000000226,4.301215296680119593
0.381000000000000227,4.297669926055752931
0.382000000000000228,4.293352915207615972
0.383000000000000229,4.288269539420140219
0.384000000000000230,4.282425742253091805
0.385000000000000231,4.275828106101736026
0.386000000000000232,4.268483823091861140
0.387000000000000233,4.260400666338605369
0.388000000000000234,4.251586961595993586
0.389000000000000234,4.242051559321939891
0.390000000000000235,4.231803807181595545
0.391000000000000236,4.220853523009894026
0.392000000000000237,4.209210968252361518
0.393000000000000238,4.196886821901436804
0.394000000000000239,4.183892154943814390
0.395000000000000240,4.170238405332685971
0.396000000000000241,4.155937353497181519
0.397000000000000242,4.141001098399692992
0.398000000000000242,4.125442034150435866
0.399000000000000243,4.109272827187107957
0.400000000000000244,4.092506394026246497
0.401000000000000245,4.075155879591467745
0.402000000000000246,4.057234636122840854
0.403000000000000247,4.038756202670173323
0.404000000000000248,4.019734285172177124
0.405000000000000249,4.000182737122230492
0.406000000000000250,3.980115540820695852
0.407000000000000250,3.959546789212614382
0.408000000000000251,3.938490668308934683
0.409000000000000252,3.916961440188445387
0.410000000000000253,3.894973426576980646
0.411000000000000254,3.872540992999618403
0.412000000000000255,3.849678533501037947
0.413000000000000256,3.826400455928477662
0.414000000000000257,3.802721167771288435
0.415000000000000258,3.778655062550380528
0.416000000000000258,3.754216506750591265
0.417000000000000259,3.729419827288294353
0.418000000000000260,3.704279299506391787
0.419000000000000261,3.678809135688309251
0.420000000000000262,3.653023474082327304
0.421000000000000263,3.626936368427250645
0.422000000000000264,3.600561777970216149
0.423000000000000265,3.573913557967077104
0.424000000000000266,3.547005450655677627
0.425000000000000266,3.519851076692121161
0.426000000000000267,3.492463927039968663
0.427000000000000268,3.464857355302172870
0.428000000000000269,3.437044570485426220
0.429000000000000270,3.409038630186575602
0.430000000000000271,3.380852434190586564
0.431000000000000272,3.352498718469589356
0.432000000000000273,3.323990049572453920
0.433000000000000274,3.295338819394390661
0.434000000000000274,3.266557240315956623
0.435000000000000275,3.237657340701065145
0.436000000000000276,3.208650960743450131
0.437000000000000277,3.179549748651182561
0.438000000000000278,3.150365157158911522
0.439000000000000279,3.121108440357525549
0.440000000000000280,3.091790650831049536
0.441000000000000281,3.062422637090725708
0.442000000000000282,3.033015041296229786
0.443000000000000282,3.003578297254260399
0.444000000000000283,2.974122628684659819
0.445000000000000284,2.944658047744558971
0.446000000000000285,2.915194353801037863
0.447000000000000286,2.885741132442986689
0.448000000000000287,2.856307754723035330
0.449000000000000288,2.826903376620527375
0.450000000000000289,2.797536938716688404
0.451000000000000290,2.768217166073343893
0.452000000000000290,2.738952568306641133
0.453000000000000291,2.709751439847458698
0.454000000000000292,2.680621860380353105
0.455000000000000293,2.651571695453013966
0.456000000000000294,2.622608597248470286
0.457000000000000295,2.593740005512385149
0.458000000000000296,2.564973148627998079
0.459000000000000297,2.536315044831458643
0.460000000000000298,2.507772503560425026
0.461000000000000298,2.479352126929091682
0.462000000000000299,2.451060311322835972
0.463000000000000300,2.422903249106000523
0.464000000000000301,2.394886930436406658
0.465000000000000302,2.367017145180450477
0.466000000000000303,2.339299484922710448
0.467000000000000304,2.311739345064288020
0.468000000000000305,2.284341927004186701
0.469000000000000306,2.257112240398242431
0.470000000000000306,2.230055105490296619
0.471000000000000307,2.203175155510448846
0.472000000000000308,2.176476839135410124
0.473000000000000309,2.149964423006119674
0.474000000000000310,2.123641994298005820
0.475000000000000311,2.097513463339304884
0.476000000000000312,2.071582566273219239
0.477000000000000313,2.045852867759570426
0.478000000000000314,2.020327763712047364
0.479000000000000314,1.995010484067054390
0.480000000000000315,1.969904095580465198
0.481000000000000316,1.945011504648650469
0.482000000000000317,1.920335460150331075
0.483000000000000318,1.895878556305906404
0.484000000000000319,1.871643235551082141
0.485000000000000320,1.847631791421716185
0.486000000000000321,1.823846371446943504
0.487000000000000322,1.800288980047774601
0.488000000000000322,1.776961481438475543
0.489000000000000323,1.753865602528145162
0.490000000000000324,1.731002935820033839
0.491000000000000325,1.708374942306269961
0.492000000000000326,1.685982954355733643
0.493000000000000327,1.663828178592982709
0.494000000000000328,1.641911698766165717
0.495000000000000329,1.620234478602029071
0.496000000000000330,1.598797364646180608
0.497000000000000330,1.577601089086856589
0.498000000000000331,1.556646272560601618
0.499000000000000332,1.535933426938270951
0.500000000000000333,1.515462958089893952
0.501000000000000334,1.495235168627053968
0.502000000000000335,1.475250260621445708
0.503000000000000336,1.455508338298433735
0.504000000000000337,1.436009410704426115
0.505000000000000338,1.416753394347046946
0.506000000000000338,1.397740115807068140
0.507000000000000339,1.378969314321191186
0.508000000000000340,1.360440644334835358
0.509000000000000341,1.342153678024103458
0.510000000000000342,1.324107907786223892
0.511000000000000343,1.306302748697763638
0.512000000000000344,1.288737540940037896
0.513000000000000345,1.271411552191114458
0.514000000000000346,1.254323979983920534
0.515000000000000346,1.237473954030012369
0.516000000000000347,1.220860538508585780
0.517000000000000348,1.204482734320359238
0.518000000000000349,1.188339481306038392
0.519000000000000350,1.172429660429082698
0.520000000000000351,1.156752095922540580
0.521000000000000352,1.141305557399766801
0.522000000000000353,1.126088761928894622
0.523000000000000353,1.111100376070903062
0.524000000000000354,1.096339017881260869
0.525000000000000355,1.081803258875041918
0.526000000000000356,1.067491625955561130
0.527000000000000357,1.053402603306499374
0.528000000000000358,1.039534634247581524
0.529000000000000359,1.025886123053900700
0.530000000000000360,1.012455436738967984
0.531000000000000361,0.999240906801614814
0.532000000000000361,0.986240830936912616
0.533000000000000362,0.973453474711267974
0.534000000000000363,0.960877073201899301
0.535000000000000364,0.948509832600890057
0.536000000000000365,0.936349931784081102
0.537000000000000366,0.924395523845014333
0.538000000000000367,0.912644737594241029
0.539000000000000368,0.901095679024224827
0.540000000000000369,0.889746432740194271
0.541000000000000369,0.878595063357197281
0.542000000000000370,0.867639616863748131
0.543000000000000371,0.856878121952341365
0.544000000000000372,0.846308591317222914
0.545000000000000373,0.835929022919764675
0.546000000000000374,0.825737401221796397
0.547000000000000375,0.815731698387309301
0.548000000000000376,0.805909875452863522
0.549000000000000377,0.796269883467152773
0.550000000000000377,0.786809664600066294
0.551000000000000378,0.777527153221707179
0.552000000000000379,0.768420276951739423
0.553000000000000380,0.759486957679497587
0.554000000000000381,0.750725112555287510
0.555000000000000382,0.742132654953267745
0.556000000000000383,0.733707495406396126
0.557000000000000384,0.725447542513809829
0.558000000000000385,0.717350703821121316
0.559000000000000385,0.709414886674037293
0.560000000000000386,0.701637999045744865
0.561000000000000387,0.694017950338500111
0.562000000000000388,0.686552652159873267
0.563000000000000389,0.679240019074043966
0.564000000000000390,0.672077969328646829
0.565000000000000391,0.665064425557548633
0.566000000000000392,0.658197315460029353
0.567000000000000393,0.651474572456782197
0.568000000000000393,0.644894136323181710
0.569000000000000394,0.638453953800235396
0.570000000000000395,0.632151979183665835
0.571000000000000396,0.625986174891547398
0.572000000000000397,0.619954512010900460
0.573000000000000398,0.614054970823709856
0.574000000000000399,0.608285541312742373
0.575000000000000400,0.602644223647615607
0.576000000000000401,0.597129028651511740
0.577000000000000401,0.591737978248941143
0.578000000000000402,0.586469105894988907
0.579000000000000403,0.581320456986427425
0.580000000000000404,0.576290089255084181
0.581000000000000405,0.571376073143894936
0.582000000000000406,0.566576492165987933
0.583000000000000407,0.561889443247233111
0.584000000000000408,0.557313037052590610
0.585000000000000409,0.552845398296679447
0.586000000000000409,0.548484666038912883
0.587000000000000410,0.544228993963565055
0.588000000000000411,0.540076550645172349
0.589000000000000412,0.536025519799562256
0.590000000000000413,0.532074100520934512
0.591000000000000414,0.528220507505301362
0.592000000000000415,0.524462971260624355
0.593000000000000416,0.520799738304030813
0.594000000000000417,0.517229071346405611
0.595000000000000417,0.513749249464688362
0.596000000000000418,0.510358568262239354
0.597000000000000419,0.507055340017538492
0.598000000000000420,0.503837893821579397
0.599000000000000421,0.500704575704237209
0.600000000000000422,0.497653748749930458
0.601000000000000423,0.494683793202872313
0.602000000000000424,0.491793106562203430
0.603000000000000425,0.488980103667283117
0.604000000000000425,0.486243216773463716
0.605000000000000426,0.483580895618575091
0.606000000000000427,0.480991607480419692
0.607000000000000428,0.478473837225571519
0.608000000000000429,0.476026087349665228
0.609000000000000430,0.473646878009553074
0.610000000000000431,0.471334747047450542
0.611000000000000432,0.469088250007429763
0.612000000000000433,0.466905960144453291
0.613000000000000433,0.464786468426177213
0.614000000000000434,0.462728383527798659
0.615000000000000435,0.460730331820152994
0.616000000000000436,0.458790957351287942
0.617000000000000437,0.456908921821724157
0.618000000000000438,0.455082904553656520
0.619000000000000439,0.453311602454269269
0.620000000000000440,0.451593729973390423
0.621000000000000441,0.449928019055680584
