# ZnS-NP_BGALNA-JS
# h[nm],U(h)[kJ/mol]
0.149999999999999994,171.960224895008508383
0.150999999999999995,172.283850445218575942
0.151999999999999996,170.320635882119233884
0.152999999999999997,167.925557213490918684
0.153999999999999998,165.749712819267699615
0.154999999999999999,163.893227136440145841
0.156000000000000000,162.251486088876106351
0.157000000000000001,160.683160367566472360
0.158000000000000002,159.079344444574104500
0.159000000000000002,157.381492703121523391
0.160000000000000003,155.575793529553720873
0.161000000000000004,153.679199958010485716
0.162000000000000005,151.724846183164402191
0.163000000000000006,149.750231121429408176
0.164000000000000007,147.789160446545281502
0.165000000000000008,145.867236569653130118
0.166000000000000009,144.000177837724407937
0.167000000000000010,142.194123404915416131
0.168000000000000010,140.447148885424383025
0.169000000000000011,138.751367969913474099
0.170000000000000012,137.095163983767548643
0.171000000000000013,135.465250716047478363
0.172000000000000014,133.848389842748758838
0.173000000000000015,132.232689396868153153
0.174000000000000016,130.608475970745587347
0.175000000000000017,128.968777134214235502
0.176000000000000018,127.309475128453001957
0.177000000000000018,125.629203269243888030
0.178000000000000019,123.929057033157761225
0.179000000000000020,122.212186058676252287
0.180000000000000021,120.483324006817994700
0.181000000000000022,118.748302393195700688
0.182000000000000023,117.013583509474500488
0.183000000000000024,115.285837288844234649
0.184000000000000025,113.571577953888692036
0.185000000000000026,111.876868758400320303
0.186000000000000026,110.207097148532213282
0.187000000000000027,108.566818149313647268
0.188000000000000028,106.959660581008321856
0.189000000000000029,105.388288638759121341
0.190000000000000030,103.854410228677167538
0.191000000000000031,102.358823049046961273
0.192000000000000032,100.901489557318114976
0.193000000000000033,99.481632514241525200
0.194000000000000034,98.097843612180327000
0.195000000000000034,96.748198665785849926
0.196000000000000035,95.430373883251945699
0.197000000000000036,94.141758779268741364
0.198000000000000037,92.879562288523771940
0.199000000000000038,91.640909558216264941
0.200000000000000039,90.422927718996305657
0.201000000000000040,89.222819645269481725
0.202000000000000041,88.037925314753437078
0.203000000000000042,86.865770865961863478
0.204000000000000042,85.704105837312027916
0.205000000000000043,84.550929361801152595
0.206000000000000044,83.404506297196931541
0.207000000000000045,82.263374404653291094
0.208000000000000046,81.126343759860873206
0.209000000000000047,79.992489601136995248
0.210000000000000048,78.861139798401922008
0.211000000000000049,77.731858074997518315
0.212000000000000050,76.604424038978322642
0.213000000000000050,75.478810988966870354
0.214000000000000051,74.355162357971622100
0.215000000000000052,73.233767551767627424
0.216000000000000053,72.115037830634804550
0.217000000000000054,70.999482777684960411
0.218000000000000055,69.887687796170936849
0.219000000000000056,68.780292983877444613
0.220000000000000057,67.677973646194530488
0.221000000000000058,66.581422631547710012
0.222000000000000058,65.491334603871294462
0.223000000000000059,64.408392306837612296
0.224000000000000060,63.333254823389594890
0.225000000000000061,62.266547791399091238
0.226000000000000062,61.208855501460583071
0.227000000000000063,60.160714775319334535
0.228000000000000064,59.122610502549413525
0.229000000000000065,58.094972698134711209
0.230000000000000066,57.078174933861916429
0.231000000000000066,56.072533991207002657
0.232000000000000067,55.078310582025302722
0.233000000000000068,54.095710985204654264
0.234000000000000069,53.124889451932936879
0.235000000000000070,52.165951238828242253
0.236000000000000071,51.218956136402866264
0.237000000000000072,50.283922369751032022
0.238000000000000073,49.360830758589415268
0.239000000000000073,48.449629034513705506
0.240000000000000074,47.550236224280794772
0.241000000000000075,46.662547018857281955
0.242000000000000076,45.786436058690796358
0.243000000000000077,44.921762076009549958
0.244000000000000078,44.068371844811963456
0.245000000000000079,43.226103898482612919
0.246000000000000080,42.394791983592021722
0.247000000000000081,41.574268226365418855
0.248000000000000081,40.764365995512832797
0.249000000000000082,39.964922451592727271
0.250000000000000111,39.175780778837285823
0.251000000000000112,38.396792100419006033
0.252000000000000113,37.627817082506211932
0.253000000000000114,36.868727236179246631
0.254000000000000115,36.119405929387582432
0.255000000000000115,35.379749123671892619
0.256000000000000116,34.649665852390064913
0.257000000000000117,33.929078458722230494
0.258000000000000118,33.217922612831117135
0.259000000000000119,32.516147128262979038
0.260000000000000120,31.823713598038654737
0.261000000000000121,31.140595870943258205
0.262000000000000122,30.466779388317725363
0.263000000000000123,29.802260401224565101
0.264000000000000123,29.147045087237994920
0.265000000000000124,28.501148585329083573
0.266000000000000125,27.864593966409820780
0.267000000000000126,27.237411156093241260
0.268000000000000127,26.619635825144644770
0.269000000000000128,26.011308261966330946
0.270000000000000129,25.412472240291378967
0.271000000000000130,24.823173894080788671
0.272000000000000131,24.243460610438933855
0.273000000000000131,23.673379950194476606
0.274000000000000132,23.112978604653044101
0.275000000000000133,22.562301395920549396
0.276000000000000134,22.021390327130397679
0.277000000000000135,21.490283687892713260
0.278000000000000136,20.969015219319032894
0.279000000000000137,20.457613342070295914
0.280000000000000138,19.956100450029868654
0.281000000000000139,19.464492271416574454
0.282000000000000139,18.982797298430050148
0.283000000000000140,18.511016285857966324
0.284000000000000141,18.049141818474446097
0.285000000000000142,17.597157946517512528
0.286000000000000143,17.155039888051181407
0.287000000000000144,16.722753796591270259
0.288000000000000145,16.300256592001097999
0.289000000000000146,15.887495852342848224
0.290000000000000147,15.484409764096824347
0.291000000000000147,15.090927127934630647
0.292000000000000148,14.706967417047646762
0.293000000000000149,14.332440884888290711
0.294000000000000150,13.967248719073378282
0.295000000000000151,13.611283238125647443
0.296000000000000152,13.264428127686031189
0.297000000000000153,12.926558712814969709
0.298000000000000154,12.597542263010895525
0.299000000000000155,12.277238326607402996
0.300000000000000155,11.965499091263431808
0.301000000000000156,11.662169767332008163
0.302000000000000157,11.367088990978500007
0.303000000000000158,11.080089244019450945
0.304000000000000159,10.800997287563106397
0.305000000000000160,10.529634606652882312
0.306000000000000161,10.265817863242407526
0.307000000000000162,10.009359354964127320
0.308000000000000163,9.760067477291539007
0.309000000000000163,9.517747186835986639
0.310000000000000164,9.282200463661968826
0.311000000000000165,9.053226770648560517
0.312000000000000166,8.830623508068098815
0.313000000000000167,8.614186461695616970
0.314000000000000168,8.403710242903077443
0.315000000000000169,8.198988719330206010
0.316000000000000170,7.999815434858516205
0.317000000000000171,7.805984017746095738
0.318000000000000171,7.617288575907551262
0.319000000000000172,7.433524078445597816
0.320000000000000173,7.254486722658489484
0.321000000000000174,7.079974285859819361
0.322000000000000175,6.909786461454109130
0.323000000000000176,6.743725178813673615
0.324000000000000177,6.581594906598224881
0.325000000000000178,6.423202939249707200
0.326000000000000179,6.268359666479744519
0.327000000000000179,6.116878825647093620
0.328000000000000180,5.968577736996681260
0.329000000000000181,5.823277521800603651
0.330000000000000182,5.680803303505463475
0.331000000000000183,5.540984392048525109
0.332000000000000184,5.403654451559175342
0.333000000000000185,5.268651651710677619
0.334000000000000186,5.135818803031318325
0.335000000000000187,5.005003476523745221
0.336000000000000187,4.876058107976374956
0.337000000000000188,4.748840087382448338
0.338000000000000189,4.623211833908944968
0.339000000000000190,4.499040856881620698
0.340000000000000191,4.376199803272415423
0.341000000000000192,4.254566492192092042
0.342000000000000193,4.134023936904652530
0.343000000000000194,4.014460354890704963
0.344000000000000195,3.895769166495173685
0.345000000000000195,3.777848982699590685
0.346000000000000196,3.660603582562838021
0.347000000000000197,3.543941880874497574
0.348000000000000198,3.427777886564146392
0.349000000000000199,3.312030652406592335
0.350000000000000200,3.196624216558422216
0.351000000000000201,3.081487536454818432
0.352000000000000202,2.966554415587983495
0.353000000000000203,2.851763423679396503
0.354000000000000203,2.737057810747993702
0.355000000000000204,2.622385415565485545
0.356000000000000205,2.507698568977704490
0.357000000000000206,2.392953992558143561
0.358000000000000207,2.278112693046696169
0.359000000000000208,2.163139853012293390
0.360000000000000209,2.048004718163610072
0.361000000000000210,1.932680481717629295
0.362000000000000210,1.817144166220017398
0.363000000000000211,1.701376503196522449
0.364000000000000212,1.585361810998617393
0.365000000000000213,1.469087871191292027
0.366000000000000214,1.352545803815045300
0.367000000000000215,1.235729941838764390
0.368000000000000216,1.118637705104249536
0.369000000000000217,1.001269474048313679
0.370000000000000218,0.883628463472520109
0.371000000000000218,0.765720596616159099
0.372000000000000219,0.647554379772853350
0.373000000000000220,0.529140777676851082
0.374000000000000221,0.410493089870903272
0.375000000000000222,0.291626828253703396
0.376000000000000223,0.172559595990960324
0.377000000000000224,0.053310967961665900
0.378000000000000225,-0.066097627102390616
0.379000000000000226,-0.185643022637763444
0.380000000000000226,-0.305300428297428095
0.381000000000000227,-0.425043541903414035
0.382000000000000228,-0.544844659193092218
0.383000000000000229,-0.664674781258842939
0.384000000000000230,-0.784503719591305715
0.385000000000000231,-0.904300198646424191
0.386000000000000232,-1.024031955865890797
0.387000000000000233,-1.143665839090007408
0.388000000000000234,-1.263167901310372709
0.389000000000000234,-1.382503492718465621
0.390000000000000235,-1.501637350013825811
0.391000000000000236,-1.620533682943253950
0.392000000000000237,-1.739156258049468162
0.393000000000000238,-1.857468479614467594
0.394000000000000239,-1.975433467789160957
0.395000000000000240,-2.093014133906924812
0.396000000000000241,-2.210173252984255043
0.397000000000000242,-2.326873533417179285
0.398000000000000242,-2.443077683886878848
0.399000000000000243,-2.558748477492629902
0.400000000000000244,-2.673848813134715563
0.401000000000000245,-2.788341774173668242
0.402000000000000246,-2.902190684395961728
0.403000000000000247,-3.015359161320104064
0.404000000000000248,-3.127811166879580718
0.405000000000000249,-3.239511055522577010
0.406000000000000250,-3.350423619770650951
0.407000000000000250,-3.460514133281157090
0.408000000000000251,-3.569748391460293213
0.409000000000000252,-3.678092749675494932
0.410000000000000253,-3.785514159117846056
0.411000000000000254,-3.891980200366435660
0.412000000000000255,-3.997459114708038719
0.413000000000000256,-4.101919833266786775
0.414000000000000257,-4.205332003999093793
0.415000000000000258,-4.307666016610359527
0.416000000000000258,-4.408893025450122849
0.417000000000000259,-4.508984970443380647
0.418000000000000260,-4.607914596115572969
0.419000000000000261,-4.705655468769523786
0.420000000000000262,-4.802181991872176425
0.421000000000000263,-4.897469419709560512
0.422000000000000264,-4.991493869367562120
0.423000000000000265,-5.084232331096650626
0.424000000000000266,-5.175662677117800037
0.425000000000000266,-5.265763668926620511
0.426000000000000267,-5.354514963152396945
0.427000000000000268,-5.441897116027936576
0.428000000000000269,-5.527891586525579548
0.429000000000000270,-5.612480738214099318
0.430000000000000271,-5.695647839890365383
0.431000000000000272,-5.777377065038962201
0.432000000000000273,-5.857653490171905730
0.433000000000000274,-5.936463092099916850
0.434000000000000274,-6.013792744185709971
0.435000000000000275,-6.089630211628636047
0.436000000000000276,-6.163964145829252672
0.437000000000000277,-6.236784077881246446
0.438000000000000278,-6.308080411237008356
0.439000000000000279,-6.377844413592295147
0.440000000000000280,-6.446068208034108515
0.441000000000000281,-6.512744763494947797
0.442000000000000282,-6.577867884555521627
0.443000000000000282,-6.641432200636667282
0.444000000000000283,-6.703433154620436873
0.445000000000000284,-6.763866990938806723
0.446000000000000285,-6.822730743167694456
0.447000000000000286,-6.880022221162602314
0.448000000000000287,-6.935739997771119825
0.449000000000000288,-6.989883395156550883
0.450000000000000289,-7.042452470765598882
0.451000000000000290,-7.093448002972067457
0.452000000000000290,-7.142871476427574251
0.453000000000000291,-7.190725067148770577
0.454000000000000292,-7.237011627370049105
0.455000000000000293,-7.281734670189203840
0.456000000000000294,-7.324898354032673531
0.457000000000000295,-7.366507466966088380
0.458000000000000296,-7.406567410874418833
0.459000000000000297,-7.445084185535617571
0.460000000000000298,-7.482064372610102154
0.461000000000000298,-7.517515119567906190
0.462000000000000299,-7.551444123574112766
0.463000000000000300,-7.583859615352369410
0.464000000000000301,-7.614770343045471179
0.465000000000000302,-7.644185556090919320
0.466000000000000303,-7.672114989128655971
0.467000000000000304,-7.698568845957424855
0.468000000000000305,-7.723557783554976020
0.469000000000000306,-7.747092896177166566
0.470000000000000306,-7.769185699549680635
0.471000000000000307,-7.789848115165564302
0.472000000000000308,-7.809092454701148434
0.473000000000000309,-7.826931404562001759
0.474000000000000310,-7.843378010569932890
0.475000000000000311,-7.858445662801540443
0.476000000000000312,-7.872148080587888508
0.477000000000000313,-7.884499297684554264
0.478000000000000314,-7.895513647620373554
0.479000000000000314,-7.905205749232917078
0.480000000000000315,-7.913590492397912790
0.481000000000000316,-7.920683023959480984
0.482000000000000317,-7.926498733867321178
0.483000000000000318,-7.931053241526649700
0.484000000000000319,-7.934362382366098032
0.485000000000000320,-7.936442194628294367
0.486000000000000321,-7.937308906387468888
0.487000000000000322,-7.936978922797926828
0.488000000000000322,-7.935468813576727953
0.489000000000000323,-7.932795300723745058
0.490000000000000324,-7.928975246481632766
0.491000000000000325,-7.924025641537953746
0.492000000000000326,-7.917963593471381678
0.493000000000000327,-7.910806315443602799
0.494000000000000328,-7.902571115137949853
0.495000000000000329,-7.893275383945956847
0.496000000000000330,-7.882936586402084167
0.497000000000000330,-7.871572249867409887
0.498000000000000331,-7.859199954461755233
0.499000000000000332,-7.845837323244620798
0.500000000000000333,-7.831502012644115496
0.501000000000000334,-7.816211703133218336
0.502000000000000335,-7.799984090152667804
0.503000000000000336,-7.782836875279135924
0.504000000000000337,-7.764787757637551024
0.505000000000000338,-7.745854425555902090
0.506000000000000338,-7.726054548460993487
0.507000000000000339,-7.705405769013256467
0.508000000000000340,-7.683925695478467155
0.509000000000000341,-7.661631894334608894
0.510000000000000342,-7.638541883111090058
0.511000000000000343,-7.614673123458350901
0.512000000000000344,-7.590043014445042147
0.513000000000000345,-7.564668886080236021
0.514000000000000346,-7.538567993058011396
0.515000000000000346,-7.511757508721387921
0.516000000000000347,-7.484254519242807824
0.517000000000000348,-7.456076018018185536
0.518000000000000349,-7.427238900271291300
0.519000000000000350,-7.397759957865571501
0.520000000000000351,-7.367655874319846809
0.521000000000000352,-7.336943220025086809
0.522000000000000353,-7.305638447658476586
0.523000000000000353,-7.273757887791761689
0.524000000000000354,-7.241317744690394242
0.525000000000000355,-7.208334092299969242
0.526000000000000356,-7.174822870416610598
0.527000000000000357,-7.140799881037838581
0.528000000000000358,-7.106280784890318891
0.529000000000000359,-7.071281098131223075
0.530000000000000360,-7.035816189219365135
0.531000000000000361,-6.999901275952945312
0.532000000000000361,-6.963551422670160029
0.533000000000000362,-6.926781537609232764
0.534000000000000363,-6.889606370424384174
0.535000000000000364,-6.852040509854232297
0.536000000000000365,-6.814098381539078098
0.537000000000000366,-6.775794245983765229
0.538000000000000367,-6.737142196662365912
0.539000000000000368,-6.698156158261680204
0.540000000000000369,-6.658849885059668239
0.541000000000000369,-6.619236959435871981
0.542000000000000370,-6.579330790510050875
0.543000000000000371,-6.539144612906065746
0.544000000000000372,-6.498691485637422716
0.545000000000000373,-6.457984291111424469
0.546000000000000374,-6.417035734248505818
0.547000000000000375,-6.375858341713668054
0.548000000000000376,-6.334464461256841261
0.549000000000000377,-6.292866261158986951
0.550000000000000377,-6.251075729780914969
0.551000000000000378,-6.209104675211648328
0.552000000000000379,-6.166964725013565740
0.553000000000000380,-6.124667326061063122
0.554000000000000381,-6.082223744469964721
0.555000000000000382,-6.039645065614921648
0.556000000000000383,-5.996942194231597689
0.557000000000000384,-5.954125854601317158
0.558000000000000385,-5.911206590814982675
0.559000000000000385,-5.868194767113895871
0.560000000000000386,-5.825100568304646842
0.561000000000000387,-5.781934000245523286
0.562000000000000388,-5.738704890401810310
0.563000000000000389,-5.695422888467602363
0.564000000000000390,-5.652097467051504509
0.565000000000000391,-5.608737922423863154
0.566000000000000392,-5.565353375323168095
0.567000000000000393,-5.521952771819309547
0.568000000000000393,-5.478544884231307144
0.569000000000000394,-5.435138312097341995
0.570000000000000395,-5.391741483195007234
0.571000000000000396,-5.348362654609359446
0.572000000000000397,-5.305009913846986613
0.573000000000000398,-5.261691179993800205
0.574000000000000399,-5.218414204914688881
0.575000000000000400,-5.175186574492980363
0.576000000000000401,-5.132015709907835621
0.577000000000000401,-5.088908868947790154
0.578000000000000402,-5.045873147358383548
0.579000000000000403,-5.002915480222325684
0.580000000000000404,-4.960042643370406346
0.581000000000000405,-4.917261254821297278
0.582000000000000406,-4.874577776248845140
0.583000000000000407,-4.831998514474962647
0.584000000000000408,-4.789529622986827384
0.585000000000000409,-4.747177103476646565
0.586000000000000409,-4.704946807402540898
0.587000000000000410,-4.662844437569242828
0.588000000000000411,-4.620875549726926934
0.589000000000000412,-4.579045554187126221
0.590000000000000413,-4.537359717454080510
0.591000000000000414,-4.495823163870449335
0.592000000000000415,-4.454440877276087285
0.593000000000000416,-4.413217702678524645
0.594000000000000417,-4.372158347934102629
0.595000000000000417,-4.331267385438708928
0.596000000000000418,-4.290549253826595688
0.597000000000000419,-4.250008259676773648
0.598000000000000420,-4.209648579225368614
0.599000000000000421,-4.169474260083368300
0.600000000000000422,-4.129489222958495631
0.601000000000000423,-4.089697263380375425
0.602000000000000424,-4.050102053428085824
0.603000000000000425,-4.010707143459140589
0.604000000000000425,-3.971515963839077124
0.605000000000000426,-3.932531826670837116
0.606000000000000427,-3.893757927523167073
0.607000000000000428,-3.855197347157054644
0.608000000000000429,-3.816853053249880556
0.609000000000000430,-3.778727902116044923
0.610000000000000431,-3.740824640423858760
0.611000000000000432,-3.703145906907687301
0.612000000000000433,-3.665694234074868607
0.613000000000000433,-3.628472049906786623
