# ZnS-NP_HUMICACID-NEUTRAL-AC
# h[nm],U(h)[kJ/mol]
0.149999999999999994,194.510476733981391817
0.150999999999999995,193.551543847317617519
0.151999999999999996,191.602254925642426997
0.152999999999999997,189.430985488997890798
0.153999999999999998,187.306019687279047048
0.154999999999999999,185.272322786441748121
0.156000000000000000,183.294945092865248171
0.157000000000000001,181.326416143363701394
0.158000000000000002,179.332990813528709850
0.159000000000000002,177.300305020965282665
0.160000000000000003,175.230075957169987078
0.161000000000000004,173.134048882855125839
0.162000000000000005,171.028188319727661337
0.163000000000000006,168.928303655210868328
0.164000000000000007,166.847345159579646179
0.165000000000000008,164.794157737872183134
0.166000000000000009,162.773316746456856663
0.167000000000000010,160.785657708405267385
0.168000000000000010,158.829169182388170611
0.169000000000000011,156.899999477355180488
0.170000000000000012,154.993408989643512541
0.171000000000000013,153.104569263906000742
0.172000000000000014,151.229163514904655585
0.173000000000000015,149.363781400680693423
0.174000000000000016,147.506125354363348379
0.175000000000000017,145.655059516407703768
0.176000000000000018,143.810538045682221764
0.177000000000000018,141.973449801957571026
0.178000000000000019,140.145413114728825121
0.179000000000000020,138.328549149517868955
0.180000000000000021,136.525256392774480219
0.181000000000000022,134.738002780340622166
0.182000000000000023,132.969146485321488171
0.183000000000000024,131.220791634314849716
0.184000000000000025,129.494681353770005217
0.185000000000000026,127.792127570076402776
0.186000000000000026,126.113974837932985906
0.187000000000000027,124.460594051968740814
0.188000000000000028,122.831901088407491329
0.189000000000000029,121.227395105036492851
0.190000000000000030,119.646211283040472040
0.191000000000000031,118.087183119253239738
0.192000000000000032,116.548909882489667211
0.193000000000000033,115.029825458774936919
0.194000000000000034,113.528265468533433591
0.195000000000000034,112.042530199078754549
0.196000000000000035,110.570941525259286209
0.197000000000000036,109.111892567478733440
0.198000000000000037,107.663889345698407851
0.199000000000000038,106.225584123435993433
0.200000000000000039,104.795800495434491495
0.201000000000000040,103.373550558684456746
0.202000000000000041,101.958044723652591301
0.203000000000000042,100.548694877458345331
0.204000000000000042,99.145111710904757274
0.205000000000000043,97.747097074672964823
0.206000000000000044,96.354632244544873743
0.207000000000000045,94.967862958799827311
0.208000000000000046,93.587082049930998551
0.209000000000000047,92.212710433838182666
0.210000000000000048,90.845277148201930117
0.211000000000000049,89.485399052563764144
0.212000000000000050,88.133760719686350171
0.213000000000000050,86.791094964287893276
0.214000000000000051,85.458164373785621137
0.215000000000000052,84.135744128216387594
0.216000000000000053,82.824606324446705230
0.217000000000000054,81.525505954122735375
0.218000000000000055,80.239168626127096218
0.219000000000000056,78.966280072880081775
0.220000000000000057,77.707477435659114917
0.221000000000000058,76.463342287035601430
0.222000000000000058,75.234395318192611057
0.223000000000000059,74.021092594856838787
0.224000000000000060,72.823823267316228680
0.225000000000000061,71.642908606945781003
0.226000000000000062,70.478602233227746865
0.227000000000000063,69.331091390848868627
0.228000000000000064,68.200499135503932280
0.229000000000000065,67.086887288984542010
0.230000000000000066,65.990260028469904796
0.231000000000000066,64.910567981183135089
0.232000000000000067,63.847712703304338788
0.233000000000000068,62.801551430847645463
0.234000000000000069,61.771901999775401748
0.235000000000000070,60.758547842636879466
0.236000000000000071,59.761242979228072159
0.237000000000000072,58.779716928954634625
0.238000000000000073,57.813679482564864998
0.239000000000000073,56.862825280558389807
0.240000000000000074,55.926838154752452681
0.241000000000000075,55.005395198118755218
0.242000000000000076,54.098170536022870181
0.243000000000000077,53.204838779365822177
0.244000000000000078,52.325078146820352742
0.245000000000000079,51.458573249363425361
0.246000000000000080,50.605017535637649928
0.247000000000000081,49.764115401342309042
0.248000000000000081,48.935583969883069244
0.249000000000000082,48.119154554929892242
0.250000000000000111,47.314573818379400905
0.251000000000000112,46.521604639529883229
0.252000000000000113,45.740026713095701894
0.253000000000000114,44.969636895056680714
0.254000000000000115,44.210249316296788891
0.255000000000000115,43.461695284580656562
0.256000000000000116,42.723822995685196702
0.257000000000000117,41.996497074488004841
0.258000000000000118,41.279597966551506261
0.259000000000000119,40.573021200268470920
0.260000000000000120,39.876676538982756881
0.261000000000000121,39.190487041702553483
0.262000000000000122,38.514388050107179140
0.263000000000000123,37.848326118542374275
0.264000000000000123,37.192257902623175880
0.265000000000000124,36.546149020941371077
0.266000000000000125,35.909972903224407048
0.267000000000000126,35.283709637129753389
0.268000000000000127,34.667344824699469541
0.269000000000000128,34.060868458354967458
0.270000000000000129,33.464273825193352252
0.271000000000000130,32.877556447261376604
0.272000000000000131,32.300713064440969902
0.273000000000000131,31.733740665584168283
0.274000000000000132,31.176635572592413581
0.275000000000000133,30.629392581246577265
0.276000000000000134,30.092004161763629355
0.277000000000000135,29.564459721285270888
0.278000000000000136,29.046744929790897061
0.279000000000000137,28.538841110275818380
0.280000000000000138,28.040724693442506066
0.281000000000000139,27.552366736616185960
0.282000000000000139,27.073732506117153207
0.283000000000000140,26.604781121896177609
0.284000000000000141,26.145465262865560163
0.285000000000000142,25.695730931034027833
0.286000000000000143,25.255517272275476159
0.287000000000000144,24.824756451328042317
0.288000000000000145,24.403373578426418078
0.289000000000000146,23.991286684816813590
0.290000000000000147,23.588406744283243910
0.291000000000000147,23.194637737728761806
0.292000000000000148,22.809876757796715196
0.293000000000000149,22.434014150488742700
0.294000000000000150,22.066933690729658935
0.295000000000000151,21.708512788846597630
0.296000000000000152,21.358622724965467654
0.297000000000000153,21.017128908381323527
0.298000000000000154,20.683891159027279372
0.299000000000000155,20.358764008248002142
0.300000000000000155,20.041597016176471158
0.301000000000000156,19.732235103114145858
0.302000000000000157,19.430518892424167632
0.303000000000000158,19.136285062562926385
0.304000000000000159,18.849366705995315385
0.305000000000000160,18.569593692862991219
0.306000000000000161,18.296793037400817639
0.307000000000000162,18.030789265223777562
0.308000000000000163,17.771404779734393031
0.309000000000000163,17.518460226027489313
0.310000000000000164,17.271774850794525236
0.311000000000000165,17.031166856853769076
0.312000000000000166,16.796453751053096681
0.313000000000000167,16.567452684410564956
0.314000000000000168,16.343980783472222384
0.315000000000000169,16.125855471977182276
0.316000000000000170,15.912894782026473450
0.317000000000000171,15.704917654054394660
0.318000000000000171,15.501744224998500243
0.319000000000000172,15.303196104157091639
0.320000000000000173,15.109096636311244666
0.321000000000000174,14.919271151771610562
0.322000000000000175,14.733547203088193100
0.323000000000000176,14.551754788235211180
0.324000000000000177,14.373726560151345311
0.325000000000000178,14.199298022579961653
0.326000000000000179,14.028307712212576774
0.327000000000000179,13.860597367194111840
0.328000000000000180,13.696012082098178553
0.329000000000000181,13.534400449526822641
0.330000000000000182,13.375614688530870211
0.331000000000000183,13.219510760084606460
0.332000000000000184,13.065948469882702199
0.333000000000000185,12.914791558757338308
0.334000000000000186,12.765907781040210622
0.335000000000000187,12.619168971217591846
0.336000000000000187,12.474451099246673280
0.337000000000000188,12.331634314919030615
0.338000000000000189,12.190602981670959792
0.339000000000000190,12.051245700252600557
0.340000000000000191,11.913455322677057424
0.341000000000000192,11.777128956877495725
0.342000000000000193,11.642167962505309831
0.343000000000000194,11.508477938304972454
0.344000000000000195,11.375968701502825908
0.345000000000000195,11.244554259645415328
0.346000000000000196,11.114152775321795019
0.347000000000000197,10.984686524199732460
0.348000000000000198,10.856081846801302504
0.349000000000000199,10.728269094436971187
0.350000000000000200,10.601182569710315917
0.351000000000000201,10.474760461997190575
0.352000000000000202,10.348944778294502100
0.353000000000000203,10.223681269823885032
0.354000000000000203,10.098919354765316214
0.355000000000000204,9.974612037485048432
0.356000000000000205,9.850715824610754012
0.357000000000000206,9.727190638295065028
0.358000000000000207,9.603999726996999442
0.359000000000000208,9.481109574098280035
0.360000000000000209,9.358489804659081202
0.361000000000000210,9.236113090605675424
0.362000000000000210,9.113955054629197861
0.363000000000000211,8.991994173062781925
0.364000000000000212,8.870211677991285626
0.365000000000000213,8.748591458835580426
0.366000000000000214,8.627119963640890177
0.367000000000000215,8.505786100286465867
0.368000000000000216,8.384581137821607300
0.369000000000000217,8.263498608121546241
0.370000000000000218,8.142534208044631683
0.371000000000000218,8.021685702261210693
0.372000000000000219,7.900952826913126614
0.373000000000000220,7.780337194252124000
0.374000000000000221,7.659842198394832380
0.375000000000000222,7.539472922321773574
0.376000000000000223,7.419236046237605464
0.377000000000000224,7.299139757400712192
0.378000000000000225,7.179193661520466563
0.379000000000000226,7.059408695811884904
0.380000000000000226,6.939797043788493269
0.381000000000000227,6.820372051866175234
0.382000000000000228,6.701148147842701519
0.383000000000000229,6.582140761310081523
0.384000000000000230,6.463366246049583097
0.385000000000000231,6.344841804452303613
0.386000000000000232,6.226585414001749363
0.387000000000000233,6.108615755848229689
0.388000000000000234,5.990952145499382375
0.389000000000000234,5.873614465645064620
0.390000000000000235,5.756623101129802578
0.391000000000000236,5.639998876080772661
0.392000000000000237,5.523762993194642590
0.393000000000000238,5.407936975182077610
0.394000000000000239,5.292542608364560586
0.395000000000000240,5.177601888414242737
0.396000000000000241,5.063136968223896694
0.397000000000000242,4.949170107890628501
0.398000000000000242,4.835723626793837937
0.399000000000000243,4.722819857745109928
0.400000000000000244,4.610481103184737250
0.401000000000000245,4.498729593397401416
0.402000000000000246,4.387587446717269302
0.403000000000000247,4.277076631690235331
0.404000000000000248,4.167218931159874629
0.405000000000000249,4.058035908241348189
0.406000000000000250,3.949548874146434851
0.407000000000000250,3.841778857821188886
0.408000000000000251,3.734746577356761854
0.409000000000000252,3.628472413132806995
0.410000000000000253,3.522976382651931804
0.411000000000000254,3.418278117023061835
0.412000000000000255,3.314396839050834931
0.413000000000000256,3.211351342887593940
0.414000000000000257,3.109159975204413229
0.415000000000000258,3.007840617836909480
0.416000000000000258,2.907410671861908380
0.417000000000000259,2.807887043060426357
0.418000000000000260,2.709286128722960374
0.419000000000000261,2.611623805752639083
0.420000000000000262,2.514915420022567627
0.421000000000000263,2.419175776943216505
0.422000000000000264,2.324419133196848897
0.423000000000000265,2.230659189595541658
0.424000000000000266,2.137909085020376132
0.425000000000000266,2.046181391399630733
0.426000000000000267,1.955488109684305087
0.427000000000000268,1.865840666779947643
0.428000000000000269,1.777249913394464809
0.429000000000000270,1.689726122762044369
0.430000000000000271,1.603278990204187293
0.431000000000000272,1.517917633489469065
0.432000000000000273,1.433650593954484354
0.433000000000000274,1.350485838349080980
0.434000000000000274,1.268430761369830018
0.435000000000000275,1.187492188846580365
0.436000000000000276,1.107676381547580302
0.437000000000000277,1.028989039569615960
0.438000000000000278,0.951435307280448783
0.439000000000000279,0.875019778781606306
0.440000000000000280,0.799746503860503055
0.441000000000000281,0.725618994401767359
0.442000000000000282,0.652640231228304613
0.443000000000000282,0.580812671343842624
0.444000000000000283,0.510138255549128061
0.445000000000000284,0.440618416405237912
0.446000000000000285,0.372254086517951333
0.447000000000000286,0.305045707118186349
0.448000000000000287,0.238993236914324753
0.449000000000000288,0.174096161192951404
0.450000000000000289,0.110353501145534466
0.451000000000000290,0.047763823399251358
0.452000000000000290,-0.013674750269046410
0.453000000000000291,-0.073964533055763490
0.454000000000000292,-0.133108263109896485
0.455000000000000293,-0.191109093387359735
0.456000000000000294,-0.247970581398120699
0.457000000000000295,-0.303696678863420833
0.458000000000000296,-0.358291721299311861
0.459000000000000297,-0.411760417542382129
0.460000000000000298,-0.464107839232607677
0.461000000000000298,-0.515339410267677267
0.462000000000000299,-0.565460896242488076
0.463000000000000300,-0.614478393886810026
0.464000000000000301,-0.662398320513588490
0.465000000000000302,-0.709227403489576469
0.466000000000000303,-0.754972669739561342
0.467000000000000304,-0.799641435294818792
0.468000000000000305,-0.843241294895690885
0.469000000000000306,-0.885780111657944458
0.470000000000000306,-0.927266006811814036
0.471000000000000307,-0.967707349522079374
0.472000000000000308,-1.007112746797230507
0.473000000000000309,-1.045491033495150379
0.474000000000000310,-1.082851262432177997
0.475000000000000311,-1.119202694602263737
0.476000000000000312,-1.154554789512059809
0.477000000000000313,-1.188917195637869684
0.478000000000000314,-1.222299741009415630
0.479000000000000314,-1.254712423925500975
0.480000000000000315,-1.286165403805855867
0.481000000000000316,-1.316668992183390952
0.482000000000000317,-1.346233643840472949
0.483000000000000318,-1.374869948092705352
0.484000000000000319,-1.402588620223248927
0.485000000000000320,-1.429400493070388967
0.486000000000000321,-1.455316508770884809
0.487000000000000322,-1.480347710661188199
0.488000000000000322,-1.504505235338381874
0.489000000000000323,-1.527800304882551696
0.490000000000000324,-1.550244219241877275
0.491000000000000325,-1.571848348781532012
0.492000000000000326,-1.592624126997320255
0.493000000000000327,-1.612583043394722582
0.494000000000000328,-1.631736636533708928
0.495000000000000329,-1.650096487239694820
0.496000000000000330,-1.667674211980512577
0.497000000000000330,-1.684481456409542943
0.498000000000000331,-1.700529889074340106
0.499000000000000332,-1.715831195290639100
0.500000000000000333,-1.730397071180942437
0.501000000000000334,-1.744239217876871972
0.502000000000000335,-1.757369335884565675
0.503000000000000336,-1.769799119611893179
0.504000000000000337,-1.781540252056494467
0.505000000000000338,-1.792604399653240588
0.506000000000000338,-1.803003207279804343
0.507000000000000339,-1.812748293418883438
0.508000000000000340,-1.821851245475375691
0.509000000000000341,-1.830323615247072322
0.510000000000000342,-1.838176914546827190
0.511000000000000343,-1.845422610974680300
0.512000000000000344,-1.852072123837794182
0.513000000000000345,-1.858136820216402807
0.514000000000000346,-1.863628011173762200
0.515000000000000346,-1.868556948107896076
0.516000000000000347,-1.872934819243148752
0.517000000000000348,-1.876772746259390612
0.518000000000000349,-1.880081781056546664
0.519000000000000350,-1.882872902652377389
0.520000000000000351,-1.885157014211059856
0.521000000000000352,-1.886944940200511622
0.522000000000000353,-1.888247423675844860
0.523000000000000353,-1.889075123686882351
0.524000000000000354,-1.889438612807215367
0.525000000000000355,-1.889348374782487294
0.526000000000000356,-1.888814802295497586
0.527000000000000357,-1.887848194845797023
0.528000000000000358,-1.886458756741293374
0.529000000000000359,-1.884656595199598161
0.530000000000000360,-1.882451718556535258
0.531000000000000361,-1.879854034579644617
0.532000000000000361,-1.876873348884121828
0.533000000000000362,-1.873519363448898911
0.534000000000000363,-1.869801675230468252
0.535000000000000364,-1.865729774872150415
0.536000000000000365,-1.861313045506355790
0.537000000000000366,-1.856560761647658042
0.538000000000000367,-1.851482088174185803
0.539000000000000368,-1.846086079395284019
0.540000000000000369,-1.840381678202889670
0.541000000000000369,-1.834377715304667644
0.542000000000000370,-1.828082908536371010
0.543000000000000371,-1.821505862251504571
0.544000000000000372,-1.814655066785911375
0.545000000000000373,-1.807538897995235150
0.546000000000000374,-1.800165616863074636
0.547000000000000375,-1.792543369177733936
0.548000000000000376,-1.784680185275541842
0.549000000000000377,-1.776583979848624706
0.550000000000000377,-1.768262551815189765
0.551000000000000378,-1.759723584250219686
0.552000000000000379,-1.750974644374798661
0.553000000000000380,-1.742023183601952185
0.554000000000000381,-1.732876537637207948
0.555000000000000382,-1.723541926632075061
0.556000000000000383,-1.714026455388404147
0.557000000000000384,-1.704337113612099941
0.558000000000000385,-1.694480776214150497
0.559000000000000385,-1.684464203657451531
0.560000000000000386,-1.674294042347601819
0.561000000000000387,-1.663976825066041609
0.562000000000000388,-1.653518971443849184
0.563000000000000389,-1.642926788474709188
0.564000000000000390,-1.632206471065311248
0.565000000000000391,-1.621364102621778880
0.566000000000000392,-1.610405655670533509
0.567000000000000393,-1.599336992512201183
0.568000000000000393,-1.588163865907005645
0.569000000000000394,-1.576891919790319507
0.570000000000000395,-1.565526690017021272
0.571000000000000396,-1.554073605133154956
0.572000000000000397,-1.542537987173799863
0.573000000000000398,-1.530925052485647253
0.574000000000000399,-1.519239912573189688
0.575000000000000400,-1.507487574967195654
0.576000000000000401,-1.495672944114303515
0.577000000000000401,-1.483800822286659216
0.578000000000000402,-1.471875910510277663
0.579000000000000403,-1.459902809511170352
0.580000000000000404,-1.447886020678174068
0.581000000000000405,-1.435829947041261878
0.582000000000000406,-1.423738894264556132
0.583000000000000407,-1.411617071652812694
0.584000000000000408,-1.399468593170615893
0.585000000000000409,-1.387297478473206391
0.586000000000000409,-1.375107653948065112
0.587000000000000410,-1.362902953766462089
0.588000000000000411,-1.350687120943902197
0.589000000000000412,-1.338463808408913547
0.590000000000000413,-1.326236580079090288
0.591000000000000414,-1.314008911943784330
0.592000000000000415,-1.301784193152687674
0.593000000000000416,-1.289565727109413640
0.594000000000000417,-1.277356732569512987
0.595000000000000417,-1.265160344742270571
0.596000000000000418,-1.252979616395349938
0.597000000000000419,-1.240817518962032961
0.598000000000000420,-1.228676943650040654
0.599000000000000421,-1.216560702551636952
0.600000000000000422,-1.204471529754248538
0.601000000000000423,-1.192412082451096422
0.602000000000000424,-1.180384942051337038
0.603000000000000425,-1.168392615289139735
0.604000000000000425,-1.156437535331177546
0.605000000000000426,-1.144522062882119329
0.606000000000000427,-1.132648487287647443
0.607000000000000428,-1.120819027634393228
0.608000000000000429,-1.109035833846698793
0.609000000000000430,-1.097300987779354475
0.610000000000000431,-1.085616504306335717
0.611000000000000432,-1.073984332404851916
0.612000000000000433,-1.062406356234480764
0.613000000000000433,-1.050884396211040128
