# ZnS-NP_ASP-AC
# h[nm],U(h)[kJ/mol]
0.149999999999999994,156.576571242473562506
0.150999999999999995,154.308490246321184713
0.151999999999999996,151.270237335402555345
0.152999999999999997,148.039623205956274887
0.153999999999999998,144.857547062744458799
0.154999999999999999,141.794969054579041767
0.156000000000000000,138.847212803898088396
0.157000000000000001,135.984110491790659125
0.158000000000000002,133.174203514839376794
0.159000000000000002,130.394395848637714153
0.160000000000000003,127.632006559300180015
0.161000000000000004,124.883308620334588568
0.162000000000000005,122.150841309862741468
0.163000000000000006,119.440679851574799386
0.164000000000000007,116.760192856802632377
0.165000000000000008,114.116450852540950223
0.166000000000000009,111.515258723784683070
0.167000000000000010,108.960700138028457218
0.168000000000000010,106.455057402237684983
0.169000000000000011,103.998977233488830052
0.170000000000000012,101.591774337874142020
0.171000000000000013,99.231790490288716455
0.172000000000000014,96.916751596805923441
0.173000000000000015,94.644086442465976461
0.174000000000000016,92.411187597763657209
0.175000000000000017,90.215607326952550693
0.176000000000000018,88.055189827618249865
0.177000000000000018,85.928146436432996325
0.178000000000000019,83.833083286774325416
0.179000000000000020,81.768991963986238147
0.180000000000000021,79.735213536839708581
0.181000000000000022,77.731385401283915826
0.182000000000000023,75.757379000727752327
0.183000000000000024,73.813234938227552107
0.184000000000000025,71.899100444700550838
0.185000000000000026,70.015172726389394597
0.186000000000000026,68.161650449730785795
0.187000000000000027,66.338694563241844548
0.188000000000000028,64.546398810352854980
0.189000000000000029,62.784769644413344736
0.190000000000000030,61.053714797633503508
0.191000000000000031,59.353039454536045127
0.192000000000000032,57.682448810758828017
0.193000000000000033,56.041555733343116685
0.194000000000000034,54.429892254412663988
0.195000000000000034,52.846923704537175581
0.196000000000000035,51.292064406325778236
0.197000000000000036,49.764693987340855585
0.198000000000000037,48.264173521734861083
0.199000000000000038,46.789860862383036988
0.200000000000000039,45.341124672465412004
0.201000000000000040,43.917356802328768595
0.202000000000000041,42.517982780680945609
0.203000000000000042,41.142470296823695719
0.204000000000000042,39.790335641927995880
0.205000000000000043,38.461148152376189557
0.206000000000000044,37.154532757637923623
0.207000000000000045,35.870170780158886714
0.208000000000000046,34.607799166736718632
0.209000000000000047,33.367208351411463241
0.210000000000000048,32.148238960629768712
0.211000000000000049,30.950777573960795763
0.212000000000000050,29.774751749469466233
0.213000000000000050,28.620124513417959378
0.214000000000000051,27.486888500543226854
0.215000000000000052,26.375059914892926116
0.216000000000000053,25.284672463079342464
0.217000000000000054,24.215771392670358608
0.218000000000000055,23.168407748978886218
0.219000000000000056,22.142632944306008369
0.220000000000000057,21.138493715180239008
0.221000000000000058,20.156027525669635736
0.222000000000000058,19.195258458655736433
0.223000000000000059,18.256193622232483875
0.224000000000000060,17.338820085214344147
0.225000000000000061,16.443102344155725802
0.226000000000000062,15.568980314289166955
0.227000000000000063,14.716367828343772217
0.228000000000000064,13.885151620237939696
0.229000000000000065,13.075190765058010811
0.230000000000000066,12.286316542437377919
0.231000000000000066,11.518332687317840879
0.232000000000000067,10.771015989992440254
0.233000000000000068,10.044117206172554546
0.234000000000000069,9.337362237474703619
0.235000000000000070,8.650453543068454820
0.236000000000000071,7.983071744158048766
0.237000000000000072,7.334877384382240351
0.238000000000000073,6.705512811017827701
0.239000000000000073,6.094604143975436372
0.240000000000000074,5.501763301900631120
0.241000000000000075,4.926590057175714854
0.242000000000000076,4.368674094192381396
0.243000000000000077,3.827597047880863190
0.244000000000000078,3.302934502093843427
0.245000000000000079,2.794257930012524760
0.246000000000000080,2.301136561238789291
0.247000000000000081,1.823139162632676946
0.248000000000000081,1.359835722231725885
0.249000000000000082,0.910799027730357147
0.250000000000000111,0.475606132992711761
0.251000000000000112,0.053839707915651402
0.252000000000000113,-0.354910731357461984
0.253000000000000114,-0.751047713342376966
0.254000000000000115,-1.134964823341209073
0.255000000000000115,-1.507045835675493439
0.256000000000000116,-1.867663963842942865
0.257000000000000117,-2.217181225490970853
0.258000000000000118,-2.555947918310681022
0.259000000000000119,-2.884302202294318995
0.260000000000000120,-3.202569783257668057
0.261000000000000121,-3.511063692097100564
0.262000000000000122,-3.810084153922553618
0.263000000000000123,-4.099918540970543646
0.264000000000000123,-4.380841403049862137
0.265000000000000124,-4.653114569195143879
0.266000000000000125,-4.916987314194620318
0.267000000000000126,-5.172696583707606877
0.268000000000000127,-5.420467271789371821
0.269000000000000128,-5.660512544786460154
0.270000000000000129,-5.893034205749893673
0.271000000000000130,-6.118223093729274531
0.272000000000000131,-6.336259512552251394
0.273000000000000131,-6.547313683956113906
0.274000000000000132,-6.751546220216274818
0.275000000000000133,-6.949108611706090066
0.276000000000000134,-7.140143725119654228
0.277000000000000135,-7.324786308390052625
0.278000000000000136,-7.503163498638397932
0.279000000000000137,-7.675395329788969434
0.280000000000000138,-7.841595236782320733
0.281000000000000139,-8.001870553608583236
0.282000000000000139,-8.156323002665374133
0.283000000000000140,-8.305049173218041147
0.284000000000000141,-8.448140987002304314
0.285000000000000142,-8.585686149260734368
0.286000000000000143,-8.717768583743394473
0.287000000000000144,-8.844468850428970796
0.288000000000000145,-8.965864544936504643
0.289000000000000146,-9.082030678796789047
0.290000000000000147,-9.193040039939859298
0.291000000000000147,-9.298963532927285058
0.292000000000000148,-9.399870498618756898
0.293000000000000149,-9.495829013108487260
0.294000000000000150,-9.586906165901915244
0.295000000000000151,-9.673168317424934770
0.296000000000000152,-9.754681336067859476
0.297000000000000153,-9.831510815065325204
0.298000000000000154,-9.903722269600905292
0.299000000000000155,-9.971381314602766111
0.300000000000000155,-10.034553823764378322
0.301000000000000156,-10.093306070382219275
0.302000000000000157,-10.147704850652598196
0.303000000000000158,-10.197817590110474839
0.304000000000000159,-10.243712433927607108
0.305000000000000160,-10.285458321813344185
0.306000000000000161,-10.323125048282310701
0.307000000000000162,-10.356783309066852183
0.308000000000000163,-10.386504734460975996
0.309000000000000163,-10.412361910386136898
0.310000000000000164,-10.434428387968308627
0.311000000000000165,-10.452778682410574618
0.312000000000000166,-10.467488261937052840
0.313000000000000167,-10.478633527571618700
0.314000000000000168,-10.486291784500176405
0.315000000000000169,-10.490541205747740960
0.316000000000000170,-10.491460788881939337
0.317000000000000171,-10.489130306433001039
0.318000000000000171,-10.483630250697061115
0.319000000000000172,-10.475041773565417103
0.320000000000000173,-10.463446621996618902
0.321000000000000174,-10.448927069721957395
0.322000000000000175,-10.431565845748099974
0.323000000000000176,-10.411446060193140895
0.324000000000000177,-10.388651127964653398
0.325000000000000178,-10.363264690760667364
0.326000000000000179,-10.335370537847012429
0.327000000000000179,-10.305052526036771354
0.328000000000000180,-10.272394499270461665
0.329000000000000181,-10.237480208169362328
0.330000000000000182,-10.200393229907222192
0.331000000000000183,-10.161216888721131824
0.332000000000000184,-10.120034177356398430
0.333000000000000185,-10.076927679716632724
0.334000000000000186,-10.031979494966540400
0.335000000000000187,-9.985271163312230414
0.336000000000000187,-9.936883593662255265
0.337000000000000188,-9.886896993351182772
0.338000000000000189,-9.835390800087974839
0.339000000000000190,-9.782443616271816467
0.340000000000000191,-9.728133145799908732
0.341000000000000192,-9.672536133474505249
0.342000000000000193,-9.615728307099612238
0.343000000000000194,-9.557784322342808281
0.344000000000000195,-9.498777710422000808
0.345000000000000195,-9.438780828664306455
0.346000000000000196,-9.377864813970091973
0.347000000000000197,-9.316099539203914759
0.348000000000000198,-9.253553572522440263
0.349000000000000199,-9.190294139638798043
0.350000000000000200,-9.126387089013430653
0.351000000000000201,-9.061896859952145888
0.352000000000000202,-8.996886453583888610
0.353000000000000203,-8.931417406683380023
0.354000000000000203,-8.865549768296492772
0.355000000000000204,-8.799342079120169302
0.356000000000000205,-8.732851353582987031
0.357000000000000206,-8.666133064567411282
0.358000000000000207,-8.599241130710016279
0.359000000000000208,-8.532227906212289881
0.360000000000000209,-8.465144173090950019
0.361000000000000210,-8.398039135793533561
0.362000000000000210,-8.330960418102772991
0.363000000000000211,-8.263954062250741472
0.364000000000000212,-8.197064530162311513
0.365000000000000213,-8.130334706745776074
0.366000000000000214,-8.063805905147731323
0.367000000000000215,-7.997517873888216222
0.368000000000000216,-7.931508805792200079
0.369000000000000217,-7.865815348632793302
0.370000000000000218,-7.800472617402166797
0.371000000000000218,-7.735514208126133440
0.372000000000000219,-7.670972213139251039
0.373000000000000220,-7.606877237737810660
0.374000000000000221,-7.543258418129300757
0.375000000000000222,-7.480143440597703197
0.376000000000000223,-7.417558561805736694
0.377000000000000224,-7.355528630156146441
0.378000000000000225,-7.294077108135944343
0.379000000000000226,-7.233226095568961789
0.380000000000000226,-7.172996353704152561
0.381000000000000227,-7.113407330068350021
0.382000000000000228,-7.054477184014700697
0.383000000000000229,-6.996222812899546284
0.384000000000000230,-6.938659878822562632
0.385000000000000231,-6.881802835867333101
0.386000000000000232,-6.825664957781145681
0.387000000000000233,-6.770258366035355024
0.388000000000000234,-6.715594058209340744
0.389000000000000234,-6.661681936643779167
0.390000000000000235,-6.608530837310365946
0.391000000000000236,-6.556148558848043706
0.392000000000000237,-6.504541891717169122
0.393000000000000238,-6.453716647425805419
0.394000000000000239,-6.403677687783892125
0.395000000000000240,-6.354428954143481079
0.396000000000000241,-6.305973496585137283
0.397000000000000242,-6.258313503012431056
0.398000000000000242,-6.211450328118904629
0.399000000000000243,-6.165384522193218864
0.400000000000000244,-6.120115859730563379
0.401000000000000245,-6.075643367820188878
0.402000000000000246,-6.031965354280431235
0.403000000000000247,-5.989079435514817362
0.404000000000000248,-5.946982564064239085
0.405000000000000249,-5.905671055832053540
0.406000000000000250,-5.865140616960429654
0.407000000000000250,-5.825386370338057063
0.408000000000000251,-5.786402881720652758
0.409000000000000252,-5.748184185447373196
0.410000000000000253,-5.710723809737523027
0.411000000000000254,-5.674014801553465048
0.412000000000000255,-5.638049751016814604
0.413000000000000256,-5.602820815366587937
0.414000000000000257,-5.568319742448696985
0.415000000000000258,-5.534537893728030511
0.416000000000000258,-5.501466266814865946
0.417000000000000259,-5.469095517498926640
0.418000000000000260,-5.437415981285164790
0.419000000000000261,-5.406417694426443710
0.420000000000000262,-5.376090414449262056
0.421000000000000263,-5.346423640169601477
0.422000000000000264,-5.317406631196628375
0.423000000000000265,-5.289028426923113813
0.424000000000000266,-5.261277865002066179
0.425000000000000266,-5.234143599309674322
0.426000000000000267,-5.207614117395634068
0.427000000000000268,-5.181677757422336050
0.428000000000000269,-5.156322724595230333
0.429000000000000270,-5.131537107087057237
0.430000000000000271,-5.107308891459340749
0.431000000000000272,-5.083625977585034761
0.432000000000000273,-5.060476193076554274
0.433000000000000274,-5.037847307224109450
0.434000000000000274,-5.015727044449435290
0.435000000000000275,-4.994103097280584436
0.436000000000000276,-4.972963138853693010
0.437000000000000277,-4.952294834948000712
0.438000000000000278,-4.932085855560718102
0.439000000000000279,-4.912323886028640452
0.440000000000000280,-4.892996637703522111
0.441000000000000281,-4.874091858188636550
0.442000000000000282,-4.855597341144081369
0.443000000000000282,-4.837500935668460400
0.444000000000000283,-4.819790555264962251
0.445000000000000284,-4.802454186399794267
0.446000000000000285,-4.785479896661099630
0.447000000000000286,-4.768855842526801503
0.448000000000000287,-4.752570276749476186
0.449000000000000288,-4.736611555366923909
0.450000000000000289,-4.720968144346752382
0.451000000000000290,-4.705628625873593762
0.452000000000000290,-4.690581704287500209
0.453000000000000291,-4.675816211682026768
0.454000000000000292,-4.661321113170685315
0.455000000000000293,-4.647085511830203686
0.456000000000000294,-4.633098653329245309
0.457000000000000295,-4.619349930251045677
0.458000000000000296,-4.605828886118415788
0.459000000000000297,-4.592525219129610647
0.460000000000000298,-4.579428785613326447
0.461000000000000298,-4.566529603211201938
0.462000000000000299,-4.553817853796014781
0.463000000000000300,-4.541283886133687275
0.464000000000000301,-4.528918218297203424
0.465000000000000302,-4.516711539840348344
0.466000000000000303,-4.504654713739183691
0.467000000000000304,-4.492738778108940068
0.468000000000000305,-4.480954947704053559
0.469000000000000306,-4.469294615208814214
0.470000000000000306,-4.457749352326116465
0.471000000000000307,-4.446310910671503969
0.472000000000000308,-4.434971222479815012
0.473000000000000309,-4.423722401131373161
0.474000000000000310,-4.412556741504678470
0.475000000000000311,-4.401466720162426682
0.476000000000000312,-4.390444995377462689
0.477000000000000313,-4.379484407005241664
0.478000000000000314,-4.368577976209121694
0.479000000000000314,-4.357718905044874802
0.480000000000000315,-4.346900575910361830
0.481000000000000316,-4.336116550866531583
0.482000000000000317,-4.325360570835468543
0.483000000000000318,-4.314626554681251669
0.484000000000000319,-4.303908598179185141
0.485000000000000320,-4.293200972878867816
0.486000000000000321,-4.282498124866371825
0.487000000000000322,-4.271794673430698630
0.488000000000000322,-4.261085409639540522
0.489000000000000323,-4.250365294829296481
0.490000000000000324,-4.239629459014041757
0.491000000000000325,-4.228873199218119439
0.492000000000000326,-4.218091977736845521
0.493000000000000327,-4.207281420329721300
0.494000000000000328,-4.196437314350355940
0.495000000000000329,-4.185555606817300323
0.496000000000000330,-4.174632402429668154
0.497000000000000330,-4.163663961531573143
0.498000000000000331,-4.152646698028945593
0.499000000000000332,-4.141577177262547593
0.500000000000000333,-4.130452113840588524
0.501000000000000334,-4.119268369434355037
0.502000000000000335,-4.108022950540157758
0.503000000000000336,-4.096713006210794816
0.504000000000000337,-4.085335825759541351
0.505000000000000338,-4.073888836439643057
0.506000000000000338,-4.062369601102200356
0.507000000000000339,-4.050775815835129023
0.508000000000000340,-4.039105307585875160
0.509000000000000341,-4.027356031770471745
0.510000000000000342,-4.015526069871279802
0.511000000000000343,-4.003613627025885080
0.512000000000000344,-3.991617029609335621
0.513000000000000345,-3.979534722811885583
0.514000000000000346,-3.967365268214429364
0.515000000000000346,-3.955107341363462758
0.516000000000000347,-3.942759729347583342
0.517000000000000348,-3.930321328377389456
0.518000000000000349,-3.917791141370376984
0.519000000000000350,-3.905168275542671097
0.520000000000000351,-3.892451940009060252
0.521000000000000352,-3.879641443392932931
0.522000000000000353,-3.866736191447484039
0.523000000000000353,-3.853735684689620911
0.524000000000000354,-3.840639516047883895
0.525000000000000355,-3.827447368525550786
0.526000000000000356,-3.814159012880153909
0.527000000000000357,-3.800774305320536506
0.528000000000000358,-3.787293185222426750
0.529000000000000359,-3.773715672863597437
0.530000000000000360,-3.760041867179478636
0.531000000000000361,-3.746271943540164351
0.532000000000000361,-3.732406151549585438
0.533000000000000362,-3.718444812867635729
0.534000000000000363,-3.704388319055979650
0.535000000000000364,-3.690237129448220799
0.536000000000000365,-3.675991769045021673
0.537000000000000366,-3.661652826434802055
0.538000000000000367,-3.647220951740471229
0.539000000000000368,-3.632696854592833091
0.540000000000000369,-3.618081302130899068
0.541000000000000369,-3.603375117029766983
0.542000000000000370,-3.588579175556202649
0.543000000000000371,-3.573694405652445116
0.544000000000000372,-3.558721785048423847
0.545000000000000373,-3.543662339402719574
0.546000000000000374,-3.528517140472435809
0.547000000000000375,-3.513287304312240789
0.548000000000000376,-3.497973989502749070
0.549000000000000377,-3.482578395408339134
0.550000000000000377,-3.467101760464557092
0.551000000000000378,-3.451545360495169579
0.552000000000000379,-3.435910507058985708
0.553000000000000380,-3.420198545826387715
0.554000000000000381,-3.404410854985655988
0.555000000000000382,-3.388548843679092926
0.556000000000000383,-3.372613950468805744
0.557000000000000384,-3.356607641832259681
0.558000000000000385,-3.340531410687358260
0.559000000000000385,-3.324386774947106993
0.560000000000000386,-3.308175276103646922
0.561000000000000387,-3.291898477841603832
0.562000000000000388,-3.275557964680552381
0.563000000000000389,-3.259155340646506804
0.564000000000000390,-3.242692227972182373
0.565000000000000391,-3.226170265825933026
0.566000000000000392,-3.209591109069083181
0.567000000000000393,-3.192956427041532041
0.568000000000000393,-3.176267902375301766
0.569000000000000394,-3.159527229835887852
0.570000000000000395,-3.142736115191156365
0.571000000000000396,-3.125896274107444750
0.572000000000000397,-3.109009431072752516
0.573000000000000398,-3.092077318346615478
0.574000000000000399,-3.075101674936483676
0.575000000000000400,-3.058084245600230844
0.576000000000000401,-3.041026779874576036
0.577000000000000401,-3.023931031129115432
0.578000000000000402,-3.006798755645577081
0.579000000000000403,-2.989631711722078755
0.580000000000000404,-2.972431658802066501
0.581000000000000405,-2.955200356627536440
0.582000000000000406,-2.937939564416332860
0.583000000000000407,-2.920651040063066528
0.584000000000000408,-2.903336539363460922
0.585000000000000409,-2.885997815261677424
0.586000000000000409,-2.868636617120334353
0.587000000000000410,-2.851254690012920978
0.588000000000000411,-2.833853774038156192
0.589000000000000412,-2.816435603656110231
0.590000000000000413,-2.799001907045568949
0.591000000000000414,-2.781554405482446146
0.592000000000000415,-2.764094812738846496
0.593000000000000416,-2.746624834502387813
0.594000000000000417,-2.729146167815514001
0.595000000000000417,-2.711660500534466056
0.596000000000000418,-2.694169510807419954
0.597000000000000419,-2.676674866571694622
0.598000000000000420,-2.659178225069431356
0.599000000000000421,-2.641681232381617672
0.600000000000000422,-2.624185522979964880
0.601000000000000423,-2.606692719296392902
0.602000000000000424,-2.589204431309746646
0.603000000000000425,-2.571722256149440611
0.604000000000000425,-2.554247777715635159
0.605000000000000426,-2.536782566315696208
0.606000000000000427,-2.519328178316597722
0.607000000000000428,-2.501886155812817147
0.608000000000000429,-2.484458026309648293
0.609000000000000430,-2.467045302421314368
0.610000000000000431,-2.449649481583848321
0.611000000000000432,-2.432272045782206238
0.612000000000000433,-2.414914461291405079
