# ZnS-NP_DIMETHOXYPHENOL-AC
# h[nm],U(h)[kJ/mol]
0.149999999999999994,139.108851735903670033
0.150999999999999995,137.973215279271414602
0.151999999999999996,136.686975755621858752
0.152999999999999997,135.367356250780602522
0.153999999999999998,134.057331354653257449
0.154999999999999999,132.766995909742519189
0.156000000000000000,131.494395143651473745
0.157000000000000001,130.235002279184072904
0.158000000000000002,128.985281040419039300
0.159000000000000002,127.743437210242021251
0.160000000000000003,126.509044303489559979
0.161000000000000004,125.282390780848032819
0.162000000000000005,124.063921489448034663
0.163000000000000006,122.853892402163452857
0.164000000000000007,121.652234657686364017
0.165000000000000008,120.458574586976553178
0.166000000000000009,119.272346093773037978
0.167000000000000010,118.092939842121310789
0.168000000000000010,116.919848529747739008
0.169000000000000011,115.752782933964112999
0.170000000000000012,114.591746533780820982
0.171000000000000013,113.437066340944781473
0.172000000000000014,112.289384115816531562
0.173000000000000015,111.149615873904323848
0.174000000000000016,110.018889142618874644
0.175000000000000017,108.898467441336066486
0.176000000000000018,107.789670485629159202
0.177000000000000018,106.693797101643411906
0.178000000000000019,105.612056108706468649
0.179000000000000020,104.545508715695717683
0.180000000000000021,103.495024424132225249
0.181000000000000022,102.461251118350034517
0.182000000000000023,101.444598982851985625
0.183000000000000024,100.445237118813651023
0.184000000000000025,99.463101214434658459
0.185000000000000026,98.497910324393842529
0.186000000000000026,97.549190693703195620
0.187000000000000027,96.616304581756878633
0.188000000000000028,95.698482166594615705
0.189000000000000029,94.794854804645979129
0.190000000000000030,93.904488159694892602
0.191000000000000031,93.026413973829988890
0.192000000000000032,92.159659515018532261
0.193000000000000033,91.303273987452854499
0.194000000000000034,90.456351422725731481
0.195000000000000034,89.618049776255105598
0.196000000000000035,88.787606130971255425
0.197000000000000036,87.964348057989084850
0.198000000000000037,87.147701302290599301
0.199000000000000038,86.337194051980361564
0.200000000000000039,85.532458114843791463
0.201000000000000040,84.733227368605227525
0.202000000000000041,83.939333874536401936
0.203000000000000042,83.150702051031842643
0.204000000000000042,82.367341297466353467
0.205000000000000043,81.589337441917564320
0.206000000000000044,80.816843361737710438
0.207000000000000045,80.050069095785076456
0.208000000000000046,79.289271733346907922
0.209000000000000047,78.534745329079584053
0.210000000000000048,77.786811057040281980
0.211000000000000049,77.045807781198334396
0.212000000000000050,76.312083185561192522
0.213000000000000050,75.585985574875920179
0.214000000000000051,74.867856427229455107
0.215000000000000052,74.158023753067624284
0.216000000000000053,73.456796291338278593
0.217000000000000054,72.764458552692218518
0.218000000000000055,72.081266701903274452
0.219000000000000056,71.407445256787184462
0.220000000000000057,70.743184568749327923
0.221000000000000058,70.088639040476579112
0.222000000000000058,69.443926028988386179
0.223000000000000059,68.809125377043045546
0.224000000000000060,68.184279512520760136
0.225000000000000061,67.569394053637807929
0.226000000000000062,66.964438857459256838
0.227000000000000063,66.369349449953318754
0.228000000000000064,65.784028777567328916
0.229000000000000065,65.208349222814604218
0.230000000000000066,64.642154829477149747
0.231000000000000066,64.085263686594799992
0.232000000000000067,63.537470424298518878
0.233000000000000068,62.998548778629768208
0.234000000000000069,62.468254186674712969
0.235000000000000070,61.946326377542597186
0.236000000000000071,61.432491928858041774
0.237000000000000072,60.926466762466631621
0.238000000000000073,60.427958556913424104
0.239000000000000073,59.936669057922792092
0.240000000000000074,59.452296271544035733
0.241000000000000075,58.974536527824625409
0.242000000000000076,58.503086405809860082
0.243000000000000077,58.037644513345902908
0.244000000000000078,57.577913117577807611
0.245000000000000079,57.123599624189317581
0.246000000000000080,56.674417905337122647
0.247000000000000081,56.230089477892946093
0.248000000000000081,55.790344535040958363
0.249000000000000082,55.354922835492367028
0.250000000000000111,54.923574455593005439
0.251000000000000112,54.496060410425592124
0.252000000000000113,54.072153150663424981
0.253000000000000114,53.651636942429185240
0.254000000000000115,53.234308137770973701
0.255000000000000115,52.819975343597903361
0.256000000000000116,52.408459497036666619
0.257000000000000117,51.999593855191754699
0.258000000000000118,51.593223907227503844
0.259000000000000119,51.189207216552503610
0.260000000000000120,50.787413200687652193
0.261000000000000121,50.387722856147881600
0.262000000000000122,49.990028435374540550
0.263000000000000123,49.594233082429056481
0.264000000000000123,49.200250433806125727
0.265000000000000124,48.808004190354211005
0.266000000000000125,48.417427665908022050
0.267000000000000126,48.028463317847538860
0.268000000000000127,47.641062264406215832
0.269000000000000128,47.255183793161187111
0.270000000000000129,46.870794864753904108
0.271000000000000130,46.487869615513545796
0.272000000000000131,46.106388862292241981
0.273000000000000131,45.726339612468379414
0.274000000000000132,45.347714581739083428
0.275000000000000133,44.970511722001944577
0.276000000000000134,44.594733761323070098
0.277000000000000135,44.220387757702987130
0.278000000000000136,43.847484668084049986
0.279000000000000137,43.476038933794221464
0.280000000000000138,43.106068083390532308
0.281000000000000139,42.737592353652289034
0.282000000000000139,42.370634329278900054
0.283000000000000140,42.005218601668289580
0.284000000000000141,41.641371446990362415
0.285000000000000142,41.279120523623817007
0.286000000000000143,40.918494588893842945
0.287000000000000144,40.559523234932434832
0.288000000000000145,40.202236643379954728
0.289000000000000146,39.846665358557594061
0.290000000000000147,39.492840078662325709
0.291000000000000147,39.140791464470325423
0.292000000000000148,38.790549964978538355
0.293000000000000149,38.442145659368684107
0.294000000000000150,38.095608114640484132
0.295000000000000151,37.750966258232153905
0.296000000000000152,37.408248264925042292
0.297000000000000153,37.067481457314300997
0.298000000000000154,36.728692219119110973
0.299000000000000155,36.391905920603250024
0.300000000000000155,36.057146855378029215
0.301000000000000156,35.724438187866567773
0.302000000000000157,35.393801910717726855
0.303000000000000158,35.065258811471800016
0.304000000000000159,34.738828447796159082
0.305000000000000160,34.414529130627407483
0.306000000000000161,34.092377914577888021
0.307000000000000162,33.772390594985871815
0.308000000000000163,33.454581711013517520
0.309000000000000163,33.138964554220670777
0.310000000000000164,32.825551182068622325
0.311000000000000165,32.514352435833721700
0.312000000000000166,32.205377962437765405
0.313000000000000167,31.898636239727967023
0.314000000000000168,31.594134604766303198
0.315000000000000169,31.291879284714305243
0.316000000000000170,30.991875429925165975
0.317000000000000171,30.694127148880671285
0.318000000000000171,30.398637544635516150
0.319000000000000172,30.105408752455552701
0.320000000000000173,29.814441978360520125
0.321000000000000174,29.525737538304277052
0.322000000000000175,29.239294897747658553
0.323000000000000176,28.955112711400165182
0.324000000000000177,28.673188862926842546
0.325000000000000178,28.393520504436146723
0.326000000000000179,28.116104095582546307
0.327000000000000179,27.840935442135709366
0.328000000000000180,27.568009733883734214
0.329000000000000181,27.297321581754243169
0.330000000000000182,27.028865054051248507
0.331000000000000183,26.762633711719679752
0.332000000000000184,26.498620642562162431
0.333000000000000185,26.236818494344912978
0.334000000000000186,25.977219506740318877
0.335000000000000187,25.719815542064434766
0.336000000000000187,25.464598114777228233
0.337000000000000188,25.211558419721832536
0.338000000000000189,24.960687359087678772
0.339000000000000190,24.711975568089197708
0.340000000000000191,24.465413439358972170
0.341000000000000192,24.220991146060178778
0.342000000000000193,23.978698663728390983
0.343000000000000194,23.738525790858268749
0.344000000000000195,23.500462168254621531
0.345000000000000195,23.264497297171399026
0.346000000000000196,23.030620556265720467
0.347000000000000197,22.798821217396685768
0.348000000000000198,22.569088460301834687
0.349000000000000199,22.341411386185676236
0.350000000000000200,22.115779030257073146
0.351000000000000201,21.892180373253438574
0.352000000000000202,21.670604351990967018
0.353000000000000203,21.451039868981226277
0.354000000000000203,21.233475801154622076
0.355000000000000204,21.017901007732216812
0.356000000000000205,20.804304337287156557
0.357000000000000206,20.592674634036995940
0.358000000000000207,20.383000743408253186
0.359000000000000208,20.175271516913959147
0.360000000000000209,19.969475816384470335
0.361000000000000210,19.765602517591311482
0.362000000000000210,19.563640513302960500
0.363000000000000211,19.363578715810643160
0.364000000000000212,19.165406058961433899
0.365000000000000213,18.969111499734644610
0.366000000000000214,18.774684019396737256
0.367000000000000215,18.582112624268685153
0.368000000000000216,18.391386346138478558
0.369000000000000217,18.202494242350528708
0.370000000000000218,18.015425395602214564
0.371000000000000218,17.830168913476683201
0.372000000000000219,17.646713927739757111
0.373000000000000220,17.465049593427501406
0.374000000000000221,17.285165087749799540
0.375000000000000222,17.107049608833911236
0.376000000000000223,16.930692374330771344
0.377000000000000224,16.756082619905619424
0.378000000000000225,16.583209597633242538
0.379000000000000226,16.412062574316923502
0.380000000000000226,16.242630829748996746
0.381000000000000227,16.074903654929848074
0.382000000000000228,15.908870350260922777
0.383000000000000229,15.744520223726320651
0.384000000000000230,15.581842589076520866
0.385000000000000231,15.420826764026514866
0.386000000000000232,15.261462068480119214
0.387000000000000233,15.103737822790582968
0.388000000000000234,14.947643346067362558
0.389000000000000234,14.793167954537739917
0.390000000000000235,14.640300959970844019
0.391000000000000236,14.489031668171516998
0.392000000000000237,14.339349377549918785
0.393000000000000238,14.191243377772602585
0.394000000000000239,14.044702948499779183
0.395000000000000240,13.899717358212914320
0.396000000000000241,13.756275863136210091
0.397000000000000242,13.614367706254778767
0.398000000000000242,13.473982116432006606
0.399000000000000243,13.335108307627791646
0.400000000000000244,13.197735478218984184
0.401000000000000245,13.061852810422934112
0.402000000000000246,12.927449469824574990
0.403000000000000247,12.794514605006884977
0.404000000000000248,12.663037347284561207
0.405000000000000249,12.533006810540024745
0.406000000000000250,12.404412091160804010
0.407000000000000250,12.277242268076898668
0.408000000000000251,12.151486402896498618
0.409000000000000252,12.027133540138262191
0.410000000000000253,11.904172707557915345
0.411000000000000254,11.782592916567050878
0.412000000000000255,11.662383162741518206
0.413000000000000256,11.543532426416776460
0.414000000000000257,11.426029673367482431
0.415000000000000258,11.309863855568277557
0.416000000000000258,11.195023912032899815
0.417000000000000259,11.081498769728341358
0.418000000000000260,10.969277344560968146
0.419000000000000261,10.858348542431235373
0.420000000000000262,10.748701260353820786
0.421000000000000263,10.640324387639617854
0.422000000000000264,10.533206807136433980
0.423000000000000265,10.427337396524816171
0.424000000000000266,10.322705029665689480
0.425000000000000266,10.219298577996422495
0.426000000000000267,10.117106911971848859
0.427000000000000268,10.016118902547002989
0.428000000000000269,9.916323422698146928
0.429000000000000270,9.817709348978834072
0.430000000000000271,9.720265563107771456
0.431000000000000272,9.623980953585213882
0.432000000000000273,9.528844417334848771
0.433000000000000274,9.434844861367988500
0.434000000000000274,9.341971204467082401
0.435000000000000275,9.250212378885631637
0.436000000000000276,9.159557332061574186
0.437000000000000277,9.069995028341310217
0.438000000000000278,8.981514450711735265
0.439000000000000279,8.894104602537520776
0.440000000000000280,8.807754509301151558
0.441000000000000281,8.722453220343179936
0.442000000000000282,8.638189810600298557
0.443000000000000282,8.554953382339004264
0.444000000000000283,8.472733066882447872
0.445000000000000284,8.391518026328522950
0.446000000000000285,8.311297455256973166
0.447000000000000286,8.232060582423670780
0.448000000000000287,8.153796672440090987
0.449000000000000288,8.076495027436241259
0.450000000000000289,8.000144988705354621
0.451000000000000290,7.924735938328629103
0.452000000000000290,7.850257300778577196
0.453000000000000291,7.776698544499472732
0.454000000000000292,7.704049183463546058
0.455000000000000293,7.632298778701583686
0.456000000000000294,7.561436939806826629
0.457000000000000295,7.491453326410879576
0.458000000000000296,7.422337649630729395
0.459000000000000297,7.354079673485790281
0.460000000000000298,7.286669216284076711
0.461000000000000298,7.220096151976710175
0.462000000000000299,7.154350411479958538
0.463000000000000300,7.089421983964124152
0.464000000000000301,7.025300918108603021
0.465000000000000302,6.961977323322645184
0.466000000000000303,6.899441370931216788
0.467000000000000304,6.837683295325516220
0.468000000000000305,6.776693395077879600
0.469000000000000306,6.716462034020591609
0.470000000000000306,6.656979642288410659
0.471000000000000307,6.598236717324586387
0.472000000000000308,6.540223824850199819
0.473000000000000309,6.482931599796637911
0.474000000000000310,6.426350747201245106
0.475000000000000311,6.370472043065985801
0.476000000000000312,6.315286335179317589
0.477000000000000313,6.260784543901066534
0.478000000000000314,6.206957662910696172
0.479000000000000314,6.153796759918878756
0.480000000000000315,6.101292977342632540
0.481000000000000316,6.049437532944243578
0.482000000000000317,5.998221720434164794
0.483000000000000318,5.947636910038164970
0.484000000000000319,5.897674549029055413
0.485000000000000320,5.848326162223324687
0.486000000000000321,5.799583352442954087
0.487000000000000322,5.751437800942881040
0.488000000000000322,5.703881267804486122
0.489000000000000323,5.656905592295482066
0.490000000000000324,5.610502693196694146
0.491000000000000325,5.564664569096164470
0.492000000000000326,5.519383298651082015
0.493000000000000327,5.474651040818001135
0.494000000000000328,5.430460035051875245
0.495000000000000329,5.386802601474430574
0.496000000000000330,5.343671141012431569
0.497000000000000330,5.301058135506295343
0.498000000000000331,5.258956147789767499
0.499000000000000332,5.217357821741088308
0.500000000000000333,5.176255882306248779
0.501000000000000334,5.135643135495018718
0.502000000000000335,5.095512468350171353
0.503000000000000336,5.055856848890660338
0.504000000000000337,5.016669326029207454
0.505000000000000338,4.977943029465015101
0.506000000000000338,4.939671169552129371
0.507000000000000339,4.901847037144081654
0.508000000000000340,4.864464003415482907
0.509000000000000341,4.827515519661014665
0.510000000000000342,4.790995117072651688
0.511000000000000343,4.754896406495491945
0.512000000000000344,4.719213078162987962
0.513000000000000345,4.683938901412072475
0.514000000000000346,4.649067724378804556
0.515000000000000346,4.614593473675174806
0.516000000000000347,4.580510154047598981
0.517000000000000348,4.546811848017764390
0.518000000000000349,4.513492715506346897
0.519000000000000350,4.480546993440210457
0.520000000000000351,4.447968995343722476
0.521000000000000352,4.415753110914609536
0.522000000000000353,4.383893805585117320
0.523000000000000353,4.352385620068823791
0.524000000000000354,4.321223169893867677
0.525000000000000355,4.290401144922932453
0.526000000000000356,4.259914308860712318
0.527000000000000357,4.229757498749258104
0.528000000000000358,4.199925624451792849
0.529000000000000359,4.170413668125472206
0.530000000000000360,4.141216683683671462
0.531000000000000361,4.112329796248206826
0.532000000000000361,4.083748201592038995
0.533000000000000362,4.055467165572934185
0.534000000000000363,4.027482023558578206
0.535000000000000364,3.999788179843531744
0.536000000000000365,3.972381107058604588
0.537000000000000366,3.945256345572980106
0.538000000000000367,3.918409502889645957
0.539000000000000368,3.891836253034436144
0.540000000000000369,3.865532335939234621
0.541000000000000369,3.839493556819631781
0.542000000000000370,3.813715785547580506
0.543000000000000371,3.788194956019292903
0.544000000000000372,3.762927065518890224
0.545000000000000373,3.737908174078116819
0.546000000000000374,3.713134403832496933
0.547000000000000375,3.688601938374329592
0.548000000000000376,3.664307022102823108
0.549000000000000377,3.640245959571770662
0.550000000000000377,3.616415114835001443
0.551000000000000378,3.592810910790087409
0.552000000000000379,3.569429828520445991
0.553000000000000380,3.546268406636301940
0.554000000000000381,3.523323240614710805
0.555000000000000382,3.500590982138951368
0.556000000000000383,3.478068338437624085
0.557000000000000384,3.455752071623626076
0.558000000000000385,3.433638998033412548
0.559000000000000385,3.411725987566660567
0.560000000000000386,3.390009963026658912
0.561000000000000387,3.368487899461670487
0.562000000000000388,3.347156823507494661
0.563000000000000389,3.326013812731404951
0.564000000000000390,3.305055994977770695
0.565000000000000391,3.284280547715501708
0.566000000000000392,3.263684697387573497
0.567000000000000393,3.243265718762753380
0.568000000000000393,3.223020934289838380
0.569000000000000394,3.202947713454463496
0.570000000000000395,3.183043472138727736
0.571000000000000396,3.163305671983817291
0.572000000000000397,3.143731819755715584
0.573000000000000398,3.124319466714243099
0.574000000000000399,3.105066207985525573
0.575000000000000400,3.085969681938039333
0.576000000000000401,3.067027569562407852
0.577000000000000401,3.048237593855005034
0.578000000000000402,3.029597519205579292
0.579000000000000403,3.011105150788980112
0.580000000000000404,2.992758333961053285
0.581000000000000405,2.974554953658926415
0.582000000000000406,2.956492933805662915
0.583000000000000407,2.938570236719473261
0.584000000000000408,2.920784862527542991
0.585000000000000409,2.903134848584553840
0.586000000000000409,2.885618268896017469
0.587000000000000410,2.868233233546438665
0.588000000000000411,2.850977888132480764
0.589000000000000412,2.833850413201070229
0.590000000000000413,2.816849023692638898
0.591000000000000414,2.799971968389463939
0.592000000000000415,2.783217529369215626
0.593000000000000416,2.766584021463747156
0.594000000000000417,2.750069791723179335
0.595000000000000417,2.733673218885301459
0.596000000000000418,2.717392712850382530
0.597000000000000419,2.701226714161362175
0.598000000000000420,2.685173693489517177
0.599000000000000421,2.669232151125572550
0.600000000000000422,2.653400616476328189
0.601000000000000423,2.637677647566840200
0.602000000000000424,2.622061830548090278
0.603000000000000425,2.606551779210237285
0.604000000000000425,2.591146134501480791
0.605000000000000426,2.575843564052459733
0.606000000000000427,2.560642761706255044
0.607000000000000428,2.545542447054030877
0.608000000000000429,2.530541364976202079
0.609000000000000430,2.515638285189292667
0.610000000000000431,2.500832001798317883
0.611000000000000432,2.486121332854798194
0.612000000000000433,2.471505119920365257
0.613000000000000433,2.456982227635919891
0.614000000000000434,2.442551543296382910
0.615000000000000435,2.428211976430980190
0.616000000000000436,2.413962458389101950
