# ZnS-NP_SULFANE-AC
# h[nm],U(h)[kJ/mol]
0.149999999999999994,58.163331232813618499
0.150999999999999995,57.810929768100876913
0.151999999999999996,56.802830659135068458
0.152999999999999997,55.672581568314384981
0.153999999999999998,54.612186661061151938
0.154999999999999999,53.654699570852088186
0.156000000000000000,52.772183551257249690
0.157000000000000001,51.924075963660165201
0.158000000000000002,51.077731138848470493
0.159000000000000002,50.214329533339103762
0.160000000000000003,49.327872658842338183
0.161000000000000004,48.421570586983548878
0.162000000000000005,47.503854149499808557
0.163000000000000006,46.585026337183549572
0.164000000000000007,45.674887933820208730
0.165000000000000008,44.781322240376610466
0.166000000000000009,43.909668127900530976
0.167000000000000010,43.062664349483888770
0.168000000000000010,42.240758406854503448
0.169000000000000011,41.442608876812172980
0.170000000000000012,40.665653070743466913
0.171000000000000013,39.906652792964997900
0.172000000000000014,39.162165461629740548
0.173000000000000015,38.428914602655488864
0.174000000000000016,37.704052968513650512
0.175000000000000017,36.985324282959467723
0.176000000000000018,36.271137156697520254
0.177000000000000018,35.560568342798362096
0.178000000000000019,34.853313349318248981
0.179000000000000020,34.149601448158520611
0.180000000000000021,33.450090056010111539
0.181000000000000022,32.755750867683609329
0.182000000000000023,32.067757384283098077
0.183000000000000024,31.387380857036028203
0.184000000000000025,30.715899318732738266
0.185000000000000026,30.054522379598346049
0.186000000000000026,29.404332850263291022
0.187000000000000027,28.766245012486336918
0.188000000000000028,28.140978457079125263
0.189000000000000029,27.529045804380281481
0.190000000000000030,26.930752266781315285
0.191000000000000031,26.346204856198692568
0.192000000000000032,25.775329036004904992
0.193000000000000033,25.217890725637840177
0.194000000000000034,24.673521751546196867
0.195000000000000034,24.141747070951133480
0.196000000000000035,23.622012351577136968
0.197000000000000036,23.113710752818654726
0.198000000000000037,22.616208008258379181
0.199000000000000038,22.128865146544590914
0.200000000000000039,21.651058401202668335
0.201000000000000040,21.182196046509314868
0.202000000000000041,20.721732054696992975
0.203000000000000042,20.269176599654247894
0.204000000000000042,19.824103535255986230
0.205000000000000043,19.386155054579951695
0.206000000000000044,18.955043792103051459
0.207000000000000045,18.530552667334262651
0.208000000000000046,18.112532788105689008
0.209000000000000047,17.700899737727290528
0.210000000000000048,17.295628565073620564
0.211000000000000049,16.896747782856753162
0.212000000000000050,16.504332659039793185
0.213000000000000050,16.118498061480984518
0.214000000000000051,15.739391088117352879
0.215000000000000052,15.367183685683595940
0.216000000000000053,15.002065430252500278
0.217000000000000054,14.644236613683812465
0.218000000000000055,14.293901752083375101
0.219000000000000056,13.951263606125078098
0.220000000000000057,13.616517778940467664
0.221000000000000058,13.289847935471623686
0.222000000000000058,12.971421667832411018
0.223000000000000059,12.661387014370063753
0.224000000000000060,12.359869625722875952
0.225000000000000061,12.066970559140703045
0.226000000000000062,11.782764672538590389
0.227000000000000063,11.507299582028334584
0.228000000000000064,11.240595140837319477
0.229000000000000065,10.982643393386574360
0.230000000000000066,10.733408955666295270
0.231000000000000066,10.492829771723899412
0.232000000000000067,10.260818195879997106
0.233000000000000068,10.037262351034398122
0.234000000000000069,9.822027714950863242
0.235000000000000070,9.614958888563812422
0.236000000000000071,9.415881502992744956
0.237000000000000072,9.224604224956987508
0.238000000000000073,9.040920823543437734
0.239000000000000073,8.864612264698054744
0.240000000000000074,8.695448803303150953
0.241000000000000075,8.533192046198331937
0.242000000000000076,8.377596962943153258
0.243000000000000077,8.228413824456392689
0.244000000000000078,8.085390052862027943
0.245000000000000079,7.948271968895225470
0.246000000000000080,7.816806426051660317
0.247000000000000081,7.690742323283788373
0.248000000000000081,7.569831990450102133
0.249000000000000082,7.453832442902514011
0.250000000000000111,7.342506503553049235
0.251000000000000112,7.235623792497125173
0.252000000000000113,7.132961585793071713
0.253000000000000114,7.034305546314745250
0.254000000000000115,6.939450330715857262
0.255000000000000115,6.848200077483236115
0.256000000000000116,6.760368781823298256
0.257000000000000117,6.675780563735048467
0.258000000000000118,6.594269836087232939
0.259000000000000119,6.515681379849675992
0.260000000000000120,6.439870333843077610
0.261000000000000121,6.366702106480156331
0.262000000000000122,6.296052216986289807
0.263000000000000123,6.227806073521868768
0.264000000000000123,6.161858695492076876
0.265000000000000124,6.098114387133816372
0.266000000000000125,6.036486369223174719
0.267000000000000126,5.976896375459654465
0.268000000000000127,5.919274219763134504
0.269000000000000128,5.863557340374186744
0.270000000000000129,5.809690326284256301
0.271000000000000130,5.757624431145655031
0.272000000000000131,5.707317079427541628
0.273000000000000131,5.658731369198106265
0.274000000000000132,5.611835575528600017
0.275000000000000133,5.566602658135918702
0.276000000000000134,5.523009776509656632
0.277000000000000135,5.481037815409702141
0.278000000000000136,5.440670923273680515
0.279000000000000137,5.401896065741385478
0.280000000000000138,5.364702596187291839
0.281000000000000139,5.329081844853251759
0.282000000000000139,5.295026727892217622
0.283000000000000140,5.262531377370761376
0.284000000000000141,5.231590793033606523
0.285000000000000142,5.202200516407151198
0.286000000000000143,5.174356327611048911
0.287000000000000144,5.148053965057095560
0.288000000000000145,5.123288868042055633
0.289000000000000146,5.100055942085960581
0.290000000000000147,5.078349346728067815
0.291000000000000147,5.058162305369636513
0.292000000000000148,5.039486936644030912
0.293000000000000149,5.022314106700614289
0.294000000000000150,5.006633301707911876
0.295000000000000151,4.992432519813188918
0.296000000000000152,4.979698181738977603
0.297000000000000153,4.968415059151234381
0.298000000000000154,4.958566219898186134
0.299000000000000155,4.950132989192363553
0.300000000000000155,4.943094925790372685
0.301000000000000156,4.937429812214671365
0.302000000000000157,4.933113658058336348
0.303000000000000158,4.930120715416787647
0.304000000000000159,4.928423505498991553
0.305000000000000160,4.927992855484454537
0.306000000000000161,4.928797944710055390
0.307000000000000162,4.930806359292787988
0.308000000000000163,4.933984154319536408
0.309000000000000163,4.938295922762886647
0.310000000000000164,4.943704870312313204
0.311000000000000165,4.950172895342283219
0.312000000000000166,4.957660673272514806
0.313000000000000167,4.966127744610559169
0.314000000000000168,4.975532606002689207
0.315000000000000169,4.985832803655330991
0.316000000000000170,4.996985028525907424
0.317000000000000171,5.008945212718642459
0.318000000000000171,5.021668626557280746
0.319000000000000172,5.035109975842878782
0.320000000000000173,5.049223498840253122
0.321000000000000174,5.063963062571760432
0.322000000000000175,5.079282258030926478
0.323000000000000176,5.095134493961763766
0.324000000000000177,5.111473088881666627
0.325000000000000178,5.128251361056828550
0.326000000000000179,5.145422716168973842
0.327000000000000179,5.162940732440860714
0.328000000000000180,5.180759243015552684
0.329000000000000181,5.198832415410310048
0.330000000000000182,5.217114827891171203
0.331000000000000183,5.235561542637524823
0.332000000000000184,5.254128175588421712
0.333000000000000185,5.272770962883273071
0.334000000000000186,5.291446823829210722
0.335000000000000187,5.310113420345903279
0.336000000000000187,5.328729212855723318
0.337000000000000188,5.347253512603177050
0.338000000000000189,5.365646530402257142
0.339000000000000190,5.383869421824101664
0.340000000000000191,5.401884328849820172
0.341000000000000192,5.419654418024856923
0.342000000000000193,5.437143915161747110
0.343000000000000194,5.454318136647473558
0.344000000000000195,5.471143517420356872
0.345000000000000195,5.487587635688809584
0.346000000000000196,5.503619234471248234
0.347000000000000197,5.519208240042302371
0.348000000000000198,5.534325777375711297
0.349000000000000199,5.548944182678737569
0.350000000000000200,5.563037013116709062
0.351000000000000201,5.576579053829481936
0.352000000000000202,5.589546322344096652
0.353000000000000203,5.601916070489916244
0.354000000000000203,5.613666783924001535
0.355000000000000204,5.624778179375389264
0.356000000000000205,5.635231199717526174
0.357000000000000206,5.645008006978157411
0.358000000000000207,5.654091973395710014
0.359000000000000208,5.662467670630595862
0.360000000000000209,5.670120857238857504
0.361000000000000210,5.677038464514397198
0.362000000000000210,5.683208580804463672
0.363000000000000211,5.688620434401403969
0.364000000000000212,5.693264375111626308
0.365000000000000213,5.697131854600691270
0.366000000000000214,5.700215405611070096
0.367000000000000215,5.702508620146679696
0.368000000000000216,5.704006126715709613
0.369000000000000217,5.704703566720619179
0.370000000000000218,5.704597570081354263
0.371000000000000218,5.703685730175044988
0.372000000000000219,5.701966578172490863
0.373000000000000220,5.699439556848865607
0.374000000000000221,5.696104993943006178
0.375000000000000222,5.691964075136800361
0.376000000000000223,5.687018816722996029
0.377000000000000224,5.681272038026994764
0.378000000000000225,5.674727333644979055
0.379000000000000226,5.667389045557945870
0.380000000000000226,5.659262235178170286
0.381000000000000227,5.650352655381803757
0.382000000000000228,5.640666722578401959
0.383000000000000229,5.630211488865406011
0.384000000000000230,5.618994614312848412
0.385000000000000231,5.607024339420823900
0.386000000000000232,5.594309457789686135
0.387000000000000233,5.580859289040317250
0.388000000000000234,5.566683652019331241
0.389000000000000234,5.551792838321639501
0.390000000000000235,5.536197586160442441
0.391000000000000236,5.519909054612415211
0.392000000000000237,5.502938798263672382
0.393000000000000238,5.485298742279914208
0.394000000000000239,5.467001157922103616
0.395000000000000240,5.448058638527102815
0.396000000000000241,5.428484075970667178
0.397000000000000242,5.408290637628462960
0.398000000000000242,5.387491743848981329
0.399000000000000243,5.366101045950517623
0.400000000000000244,5.344132404752835797
0.401000000000000245,5.321599869652476222
0.402000000000000246,5.298517658249404683
0.403000000000000247,5.274900136531082140
0.404000000000000248,5.250761799618894443
0.405000000000000249,5.226117253080500014
0.406000000000000250,5.200981194810565533
0.407000000000000250,5.175368397481145522
0.408000000000000251,5.149293691561984687
0.409000000000000252,5.122771948909953466
0.410000000000000253,5.095818066925959400
0.411000000000000254,5.068446953276730227
0.412000000000000255,5.040673511178109578
0.413000000000000256,5.012512625235667763
0.414000000000000257,4.983979147837798607
0.415000000000000258,4.955087886095693506
0.416000000000000258,4.925853589324153070
0.417000000000000259,4.896290937056385850
0.418000000000000260,4.866414527585653182
0.419000000000000261,4.836238867026010801
0.420000000000000262,4.805778358883970647
0.421000000000000263,4.775047294132573228
0.422000000000000264,4.744059841778936359
0.423000000000000265,4.712830039916073410
0.424000000000000266,4.681371787249455352
0.425000000000000266,4.649698835088569737
0.426000000000000267,4.617824779793470391
0.427000000000000268,4.585763055666173926
0.428000000000000269,4.553526928276551367
0.429000000000000270,4.521129488212255687
0.430000000000000271,4.488583645242115061
0.431000000000000272,4.455902122882301697
0.432000000000000273,4.423097453354623454
0.433000000000000274,4.390181972926116671
0.434000000000000274,4.357167817619181704
0.435000000000000275,4.324066919281519539
0.436000000000000276,4.290891002005069232
0.437000000000000277,4.257651578883244525
0.438000000000000278,4.224359949095809696
0.439000000000000279,4.191027195310779163
0.440000000000000280,4.157664181392799918
0.441000000000000281,4.124281550407644659
0.442000000000000282,4.090889722912397275
0.443000000000000282,4.057498895521211679
0.444000000000000283,4.024119039736488546
0.445000000000000284,3.990759901035535684
0.446000000000000285,3.957430998202907002
0.447000000000000286,3.924141622898756676
0.448000000000000287,3.890900839453667714
0.449000000000000288,3.857717484880661463
0.450000000000000289,3.824600169095160762
0.451000000000000290,3.791557275333942378
0.452000000000000290,3.758596960764209349
0.453000000000000291,3.725727157274166590
0.454000000000000292,3.692955572436635414
0.455000000000000293,3.660289690637379412
0.456000000000000294,3.627736774360122318
0.457000000000000295,3.595303865620318451
0.458000000000000296,3.562997787539936123
0.459000000000000297,3.530825146055826647
0.460000000000000298,3.498792331754235541
0.461000000000000298,3.466905521824453107
0.462000000000000299,3.435170682124544239
0.463000000000000300,3.403593569352501902
0.464000000000000301,3.372179733316215788
0.465000000000000302,3.340934519295934990
0.466000000000000303,3.309863070492995440
0.467000000000000304,3.278970330558878654
0.468000000000000305,3.248261046198774871
0.469000000000000306,3.217739769844023989
0.470000000000000306,3.187410862388037724
0.471000000000000307,3.157278495980399668
0.472000000000000308,3.127346656874116615
0.473000000000000309,3.097619148321068216
0.474000000000000310,3.068099593510988932
0.475000000000000311,3.038791438549336643
0.476000000000000312,3.009697955469771813
0.477000000000000313,2.980822245276890659
0.478000000000000314,2.952167241015253296
0.479000000000000314,2.923735710860730030
0.480000000000000315,2.895530261230441660
0.481000000000000316,2.867553339907683796
0.482000000000000317,2.839807239178376186
0.483000000000000318,2.812294098975742340
0.484000000000000319,2.785015910030028685
0.485000000000000320,2.757974517020259864
0.486000000000000321,2.731171621725118737
0.487000000000000322,2.704608786170196844
0.488000000000000322,2.678287435768977875
0.489000000000000323,2.652208862455062821
0.490000000000000324,2.626374227803220940
0.491000000000000325,2.600784566137033238
0.492000000000000326,2.575440787620954186
0.493000000000000327,2.550343681334756418
0.494000000000000328,2.525493918328447052
0.495000000000000329,2.500892054655799335
0.496000000000000330,2.476538534384815637
0.497000000000000330,2.452433692583457336
0.498000000000000331,2.428577758279159671
0.499000000000000332,2.404970857390675842
0.500000000000000333,2.381613015630906549
0.501000000000000334,2.358504161379471942
0.502000000000000335,2.335644128523854501
0.503000000000000336,2.313032659268025260
0.504000000000000337,2.290669406907539507
0.505000000000000338,2.268553938570180062
0.506000000000000338,2.246685737921287451
0.507000000000000339,2.225064207832967433
0.508000000000000340,2.203688673016501287
0.509000000000000341,2.182558382617260762
0.510000000000000342,2.161672512771569021
0.511000000000000343,2.141030169124948479
0.512000000000000344,2.120630389311321640
0.513000000000000345,2.100472145392713763
0.514000000000000346,2.080554346259115839
0.515000000000000346,2.060875839988195235
0.516000000000000347,2.041435416164600447
0.517000000000000348,2.022231808158624577
0.518000000000000349,2.003263695364088992
0.519000000000000350,1.984529705395303711
0.520000000000000351,1.966028416243031929
0.521000000000000352,1.947758358389400701
0.522000000000000353,1.929718016881788900
0.523000000000000353,1.911905833365660001
0.524000000000000354,1.894320208076478718
0.525000000000000355,1.876959501790741003
0.526000000000000356,1.859822037736300615
0.527000000000000357,1.842906103462110368
0.528000000000000358,1.826209952667569691
0.529000000000000359,1.809731806991717873
0.530000000000000360,1.793469857762473030
0.531000000000000361,1.777422267706193271
0.532000000000000361,1.761587172617839148
0.533000000000000362,1.745962682992040715
0.534000000000000363,1.730546885615390718
0.535000000000000364,1.715337845120294302
0.536000000000000365,1.700333605500751855
0.537000000000000366,1.685532191590425111
0.538000000000000367,1.670931610503397780
0.539000000000000368,1.656529853038006816
0.540000000000000369,1.642324895044184441
0.541000000000000369,1.628314698754711687
0.542000000000000370,1.614497214080850895
0.543000000000000371,1.600870379872775473
0.544000000000000372,1.587432125145266770
0.545000000000000373,1.574180370269151252
0.546000000000000374,1.561113028128924274
0.547000000000000375,1.548228005247074268
0.548000000000000376,1.535523202875557880
0.549000000000000377,1.522996518054948734
0.550000000000000377,1.510645844641719027
0.551000000000000378,1.498469074304193738
0.552000000000000379,1.486464097487641745
0.553000000000000380,1.474628804349032096
0.554000000000000381,1.462961085661960370
0.555000000000000382,1.451458833692241379
0.556000000000000383,1.440119943044694928
0.557000000000000384,1.428942311481617100
0.558000000000000385,1.417923840713470440
0.559000000000000385,1.407062437162284407
0.560000000000000386,1.396356012698279470
0.561000000000000387,1.385802485350235314
0.562000000000000388,1.375399779990103211
0.563000000000000389,1.365145828992351040
0.564000000000000390,1.355038572868585423
0.565000000000000391,1.345075960877907928
0.566000000000000392,1.335255951613534053
0.567000000000000393,1.325576513566153247
0.568000000000000393,1.316035625664534248
0.569000000000000394,1.306631277793845136
0.570000000000000395,1.297361471292199031
0.571000000000000396,1.288224219425886163
0.572000000000000397,1.279217547843766400
0.573000000000000398,1.270339495011312936
0.574000000000000399,1.261588112624748792
0.575000000000000400,1.252961466005768187
0.576000000000000401,1.244457634477269536
0.577000000000000401,1.236074711720571040
0.578000000000000402,1.227810806114547404
0.579000000000000403,1.219664041057141990
0.580000000000000404,1.211632555269666955
0.581000000000000405,1.203714503084347465
0.582000000000000406,1.195908054715510760
0.583000000000000407,1.188211396514868401
0.584000000000000408,1.180622731211264265
0.585000000000000409,1.173140278135341719
0.586000000000000409,1.165762273429493234
0.587000000000000410,1.158486970243504555
0.588000000000000411,1.151312638916293318
0.589000000000000412,1.144237567144089640
0.590000000000000413,1.137260060135485418
0.591000000000000414,1.130378440753677882
0.592000000000000415,1.123591049646299522
0.593000000000000416,1.116896245363182327
0.594000000000000417,1.110292404462416282
0.595000000000000417,1.103777921605038070
0.596000000000000418,1.097351209638698366
0.597000000000000419,1.091010699670640793
0.598000000000000420,1.084754841130320724
0.599000000000000421,1.078582101821978334
0.600000000000000422,1.072490967967495434
0.601000000000000423,1.066479944239836275
0.602000000000000424,1.060547553787385189
0.603000000000000425,1.054692338249449302
0.604000000000000425,1.048912857763276696
0.605000000000000426,1.043207690962815848
0.606000000000000427,1.037575434969525867
0.607000000000000428,1.032014705375524422
0.608000000000000429,1.026524136219294059
0.609000000000000430,1.021102379954284434
0.610000000000000431,1.015748107410582302
0.611000000000000432,1.010460007749977906
0.612000000000000433,1.005236788414623605
0.613000000000000433,1.000077175069540969
0.614000000000000434,0.994979911539224715
0.615000000000000435,0.989943759738557305
0.616000000000000436,0.984967499598260354
0.617000000000000437,0.980049928985108565
0.618000000000000438,0.975189863617123898
0.619000000000000439,0.970386136973947044
0.620000000000000440,0.965637600202604141
0.621000000000000441,0.960943122018857343
0.622000000000000441,0.956301588604335229
