# AuFCC100-Ablate75_BUTENE2-AC
# h[nm],U(h)[kJ/mol]
0.149999999999999994,126.028871656715409699
0.150999999999999995,124.023488230772187535
0.151999999999999996,120.388135333549413986
0.152999999999999997,116.429948255677729207
0.153999999999999998,112.673065700854138527
0.154999999999999999,109.246912804193286206
0.156000000000000000,106.108077848499050333
0.157000000000000001,103.159385917628995344
0.158000000000000002,100.307561178258453083
0.159000000000000002,97.485880620935290608
0.160000000000000003,94.658235892826880331
0.161000000000000004,91.814469051145493950
0.162000000000000005,88.962632778176995885
0.163000000000000006,86.121179197443609610
0.164000000000000007,83.312473769157776360
0.165000000000000008,80.558098581513277736
0.166000000000000009,77.875906524747719573
0.167000000000000010,75.278549701276020301
0.168000000000000010,72.773123659553363041
0.169000000000000011,70.361573819670326202
0.170000000000000012,68.041557985250193497
0.171000000000000013,65.807522642274761893
0.172000000000000014,63.651815702022965127
0.173000000000000015,61.565716567480500032
0.174000000000000016,59.540312489561507903
0.175000000000000017,57.567187382593942857
0.176000000000000018,55.638916299167263446
0.177000000000000018,53.749377038719117650
0.178000000000000019,51.893901541259381816
0.179000000000000020,50.069295432378929434
0.180000000000000021,48.273755807876497670
0.181000000000000022,46.506716318488258821
0.182000000000000023,44.768645838719159258
0.183000000000000024,43.060823252057076616
0.184000000000000025,41.385106730233999883
0.185000000000000026,39.743711730228554302
0.186000000000000026,38.139008046754135250
0.187000000000000027,36.573342801459816087
0.188000000000000028,35.048893304797537951
0.189000000000000029,33.567551316843960763
0.190000000000000030,32.130838344123411332
0.191000000000000031,30.739850200027667881
0.192000000000000032,29.395228071409963633
0.193000000000000033,28.097152711191135666
0.194000000000000034,26.845358053035237589
0.195000000000000034,25.639160458652234809
0.196000000000000035,24.477499905448080852
0.197000000000000036,23.358989652846439355
0.198000000000000037,22.281971247410261583
0.199000000000000038,21.244572104668304036
0.200000000000000039,20.244763310749789298
0.201000000000000040,19.280415697117696538
0.202000000000000041,18.349352639868662607
0.203000000000000042,17.449398408931436677
0.204000000000000042,16.578421233697721249
0.205000000000000043,15.734370555075821940
0.206000000000000044,14.915308197189821371
0.207000000000000045,14.119433414527396309
0.208000000000000046,13.345101953370786418
0.209000000000000047,12.590839412052419632
0.210000000000000048,11.855349295937319454
0.211000000000000049,11.137516243500119373
0.212000000000000050,10.436404953116969807
0.213000000000000050,9.751255369977743115
0.214000000000000051,9.081474702497370544
0.215000000000000052,8.426626831249794947
0.216000000000000053,7.786419653995077184
0.217000000000000054,7.160690880757487164
0.218000000000000055,6.549392755765933494
0.219000000000000056,5.952576140688597306
0.220000000000000057,5.370374347961455186
0.221000000000000058,4.802987065807893252
0.222000000000000058,4.250664669156451581
0.223000000000000059,3.713693164220924992
0.224000000000000060,3.192379969894301617
0.225000000000000061,2.687040697005661283
0.226000000000000062,2.197987047388129334
0.227000000000000063,1.725515918937343018
0.228000000000000064,1.269899770601232936
0.229000000000000065,0.831378272612592895
0.230000000000000066,0.410151242249359893
0.231000000000000066,0.006372843894596780
0.232000000000000067,-0.379852985971063872
0.233000000000000068,-0.748475943167047464
0.234000000000000069,-1.099501655910812614
0.235000000000000070,-1.432992956187429057
0.236000000000000071,-1.749070204746344448
0.237000000000000072,-2.047910756645650476
0.238000000000000073,-2.329747656862379390
0.239000000000000073,-2.594867656366961484
0.240000000000000074,-2.843608638461499361
0.241000000000000075,-3.076356543326586479
0.242000000000000076,-3.293541875823891907
0.243000000000000077,-3.495635877854738283
0.244000000000000078,-3.683146442157042344
0.245000000000000079,-3.856613839494451579
0.246000000000000080,-4.016606325897163821
0.247000000000000081,-4.163715691080939862
0.248000000000000081,-4.298552803510506060
0.249000000000000082,-4.421743201882651242
0.250000000000000111,-4.533922777165832585
0.251000000000000112,-4.635733583814828584
0.252000000000000113,-4.727819813440288677
0.253000000000000114,-4.810823959096935276
0.254000000000000115,-4.885383193500925536
0.255000000000000115,-4.952125979919624221
0.256000000000000116,-5.011668930218776019
0.257000000000000117,-5.064613920612977438
0.258000000000000118,-5.111545472052988259
0.259000000000000119,-5.153028398899034634
0.260000000000000120,-5.189605726570020394
0.261000000000000121,-5.221796876216806993
0.262000000000000122,-5.250096112135411275
0.263000000000000123,-5.274971245599124003
0.264000000000000123,-5.296862587034915748
0.265000000000000124,-5.316182136981838724
0.266000000000000125,-5.333313005032850995
0.267000000000000126,-5.348609044957428615
0.268000000000000127,-5.362394693414857194
0.269000000000000128,-5.374964999078190253
0.270000000000000129,-5.386585828579852020
0.271000000000000130,-5.397494235444398214
0.272000000000000131,-5.407898978075433405
0.273000000000000131,-5.417981172895684594
0.274000000000000132,-5.427895068887207408
0.275000000000000133,-5.437768930027354841
0.276000000000000134,-5.447706012451895674
0.277000000000000135,-5.457785623586961066
0.278000000000000136,-5.468064250964149053
0.279000000000000137,-5.478576748956620612
0.280000000000000138,-5.489337572239135987
0.281000000000000139,-5.500342045371232835
0.282000000000000139,-5.511567658522584345
0.283000000000000140,-5.522975379994667477
0.284000000000000141,-5.534510976836778617
0.285000000000000142,-5.546106335500756934
0.286000000000000143,-5.557680775122290306
0.287000000000000144,-5.569142346652226294
0.288000000000000145,-5.580389111685747139
0.289000000000000146,-5.591310395445448833
0.290000000000000147,-5.601788008965220556
0.291000000000000147,-5.611697436091018787
0.292000000000000148,-5.620908981461719911
0.293000000000000149,-5.629288876155360555
0.294000000000000150,-5.636700338182627945
0.295000000000000151,-5.643004585479808100
0.296000000000000152,-5.648061799495899926
0.297000000000000153,-5.651732037884380944
0.298000000000000154,-5.653876095197609253
0.299000000000000155,-5.654356310842646671
0.300000000000000155,-5.653037323890431232
0.301000000000000156,-5.649786774637136411
0.302000000000000157,-5.644475953097431997
0.303000000000000158,-5.636980394864951727
0.304000000000000159,-5.627180425006734765
0.305000000000000160,-5.614961650865969212
0.306000000000000161,-5.600215404833087440
0.307000000000000162,-5.582839138309060978
0.308000000000000163,-5.562736768228243811
0.309000000000000163,-5.539818977632668506
0.310000000000000164,-5.514003471895646769
0.311000000000000165,-5.485215192281499341
0.312000000000000166,-5.453386488601507764
0.313000000000000167,-5.418457252784094180
0.314000000000000168,-5.380375015221556367
0.315000000000000169,-5.339095005787160453
0.316000000000000170,-5.294580181436036703
0.317000000000000171,-5.246801222312116764
0.318000000000000171,-5.195736498282252924
0.319000000000000172,-5.141372007808659994
0.320000000000000173,-5.083701291052667770
0.321000000000000174,-5.022725319077188111
0.322000000000000175,-4.958452360983495844
0.323000000000000176,-4.890897830780173372
0.324000000000000177,-4.820084115739207142
0.325000000000000178,-4.746040387947099148
0.326000000000000179,-4.668802400708105260
0.327000000000000179,-4.588412271402238396
0.328000000000000180,-4.504918252344031870
0.329000000000000181,-4.418374491129478443
0.330000000000000182,-4.328840781897069334
0.331000000000000183,-4.236382308868021696
0.332000000000000184,-4.141069383467123721
0.333000000000000185,-4.042977176262941619
0.334000000000000186,-3.942185444902466251
0.335000000000000187,-3.838778259151926164
0.336000000000000187,-3.732843724092774984
0.337000000000000188,-3.624473702459272140
0.338000000000000189,-3.513763537042991381
0.339000000000000190,-3.400811774028907220
0.340000000000000191,-3.285719888068569183
0.341000000000000192,-3.168592009838383738
0.342000000000000193,-3.049534656774059549
0.343000000000000194,-2.928656467618274917
0.344000000000000195,-2.806067941364885243
0.345000000000000195,-2.681881181132292458
0.346000000000000196,-2.556209643448742241
0.347000000000000197,-2.429167893384872823
0.348000000000000198,-2.300871365923306655
0.349000000000000199,-2.171436133910993327
0.350000000000000200,-2.040978682898692220
0.351000000000000201,-1.909615693131597514
0.352000000000000202,-1.777463828917686062
0.353000000000000203,-1.644639535564152322
0.354000000000000203,-1.511258844038172899
0.355000000000000204,-1.377437183476281302
0.356000000000000205,-1.243289201636166297
0.357000000000000206,-1.108928593356217851
0.358000000000000207,-0.974467937061404221
0.359000000000000208,-0.840018539329149938
0.360000000000000209,-0.705690287505476688
0.361000000000000210,-0.571591510340045295
0.362000000000000210,-0.437828846588618259
0.363000000000000211,-0.304507121512931966
0.364000000000000212,-0.171729231190913018
0.365000000000000213,-0.039596034534398118
0.366000000000000214,0.091793747102626416
0.367000000000000215,0.222343622855356499
0.368000000000000216,0.351959417960811594
0.369000000000000217,0.480549352204133307
0.370000000000000218,0.608024111360206510
0.371000000000000218,0.734296911800707774
0.372000000000000219,0.859283558443787343
0.373000000000000220,0.982902496230128042
0.374000000000000221,1.105074855314221116
0.375000000000000222,1.225724490164550762
0.376000000000000223,1.344778012769771269
0.377000000000000224,1.462164820151084843
0.378000000000000225,1.577817116383100515
0.379000000000000226,1.691669929327064725
0.380000000000000226,1.803661122281157159
0.381000000000000227,1.913731400752953338
0.382000000000000228,2.021824314558787528
0.383000000000000229,2.127886255454004338
0.384000000000000230,2.231866450497071774
0.385000000000000231,2.333716951348471458
0.386000000000000232,2.433392619703618642
0.387000000000000233,2.530851109056426296
0.388000000000000234,2.626052842987468772
0.389000000000000234,2.718960990167546221
0.390000000000000235,2.809541436264361813
0.391000000000000236,2.897762752936105191
0.392000000000000237,2.983596164092428005
0.393000000000000238,3.067015509598859602
0.394000000000000239,3.147997206596943709
0.395000000000000240,3.226520208607907225
0.396000000000000241,3.302565962583346337
0.397000000000000242,3.376118364061914345
0.398000000000000242,3.447163710586360619
0.399000000000000243,3.515690653530650245
0.400000000000000244,3.581690148482373104
0.401000000000000245,3.645155404320379322
0.402000000000000246,3.706081831123539505
0.403000000000000247,3.764466987041207968
0.404000000000000248,3.820310524251407713
0.405000000000000249,3.873614134128028574
0.406000000000000250,3.924381491733560434
0.407000000000000250,3.972618199749157863
0.408000000000000251,4.018331731949352559
0.409000000000000252,4.061531376323829434
0.410000000000000253,4.102228177944555298
0.411000000000000254,4.140434881671682277
0.412000000000000255,4.176165874787563403
0.413000000000000256,4.209437129643669451
0.414000000000000257,4.240266146401165059
0.415000000000000258,4.268671895941524852
0.416000000000000258,4.294674763019771468
0.417000000000000259,4.318296489728668419
0.418000000000000260,4.339560119338545796
0.419000000000000261,4.358489940573612387
0.420000000000000262,4.375111432381791232
0.421000000000000263,4.389451209251737929
0.422000000000000264,4.401536967127124278
0.423000000000000265,4.411397429964945438
0.424000000000000266,4.419062296981205229
0.425000000000000266,4.424562190624427238
0.426000000000000267,4.427928605314155774
0.427000000000000268,4.429193856978737465
0.428000000000000269,4.428391033423851653
0.429000000000000270,4.425553945560491975
0.430000000000000271,4.420717079518373893
0.431000000000000272,4.413915549668361749
0.432000000000000273,4.405185052574898563
0.433000000000000274,4.394561821897172926
0.434000000000000274,4.382082584255440949
0.435000000000000275,4.367784516076849144
0.436000000000000276,4.351705201432929826
0.437000000000000277,4.333882590879053254
0.438000000000000278,4.314354961304213809
0.439000000000000279,4.293160876797708525
0.440000000000000280,4.270339150537563633
0.441000000000000281,4.245928807704021146
0.442000000000000282,4.219969049419661999
0.443000000000000282,4.192499217716546767
0.444000000000000283,4.163558761529071006
0.445000000000000284,4.133187203710166457
0.446000000000000285,4.101424109067147938
0.447000000000000286,4.068309053412255238
0.448000000000000287,4.033881593622004047
0.449000000000000288,3.998181238698317763
0.450000000000000289,3.961247421823432369
0.451000000000000290,3.923119473399770296
0.452000000000000290,3.883836595065027097
0.453000000000000291,3.843437834671975306
0.454000000000000292,3.801962062221762473
0.455000000000000293,3.759447946738773361
0.456000000000000294,3.715933934074558298
0.457000000000000295,3.671458225627725280
0.458000000000000296,3.626058757966104107
0.459000000000000297,3.579773183337200404
0.460000000000000298,3.532638851052216644
0.461000000000000298,3.484692789728947471
0.462000000000000299,3.435971690378003984
0.463000000000000300,3.386511890316980633
0.464000000000000301,3.336349357896570389
0.465000000000000302,3.285519678022603696
0.466000000000000303,3.234058038457580775
0.467000000000000304,3.181999216885366799
0.468000000000000305,3.129377568722259806
0.469000000000000306,3.076227015657779340
0.470000000000000306,3.022581034908371933
0.471000000000000307,2.968472649167025246
0.472000000000000308,2.913934417231999419
0.473000000000000309,2.858998425297650581
0.474000000000000310,2.803696278890519089
0.475000000000000311,2.748059095433611709
0.476000000000000312,2.692117497422348293
0.477000000000000313,2.635901606195052871
0.478000000000000314,2.579441036281607147
0.479000000000000314,2.522764890313516695
0.480000000000000315,2.465901754479037145
0.481000000000000316,2.408879694506984581
0.482000000000000317,2.351726252163118591
0.483000000000000318,2.294468442243049466
0.484000000000000319,2.237132750045864427
0.485000000000000320,2.179745129312820939
0.486000000000000321,2.122331000615631069
0.487000000000000322,2.064915250179126360
0.488000000000000322,2.007522229123183788
0.489000000000000323,1.950175753109212540
0.490000000000000324,1.892899102376452092
0.491000000000000325,1.835715022153834086
0.492000000000000326,1.778645723433193826
0.493000000000000327,1.721712884090005558
0.494000000000000328,1.664937650337936059
0.495000000000000329,1.608340638503864550
0.496000000000000330,1.551941937110202119
0.497000000000000330,1.495761109251625864
0.498000000000000331,1.439817195253584758
0.499000000000000332,1.384128715600288384
0.500000000000000333,1.328713674119925470
0.501000000000000334,1.273589561415383375
0.502000000000000335,1.218773358528833173
0.503000000000000336,1.164281540828899786
0.504000000000000337,1.110130082109281657
0.505000000000000338,1.056334458888114503
0.506000000000000338,1.002909654897492286
0.507000000000000339,0.949870165752865758
0.508000000000000340,0.897230003792332198
0.509000000000000341,0.845002703076074502
0.510000000000000342,0.793201324536396135
0.511000000000000343,0.741838461269150096
0.512000000000000344,0.690926243957549646
0.513000000000000345,0.640476346419657672
0.514000000000000346,0.590499991270964975
0.515000000000000346,0.541007955693931342
0.516000000000000347,0.492010577306380648
0.517000000000000348,0.443517760121033278
0.518000000000000349,0.395538980588593103
0.519000000000000350,0.348083293717177722
0.520000000000000351,0.301159339260882786
0.521000000000000352,0.254775347970759625
0.522000000000000353,0.208939147901535532
0.523000000000000353,0.163658170767603778
0.524000000000000354,0.118939458342238430
0.525000000000000355,0.074789668893877836
0.526000000000000356,0.031215083653870900
0.527000000000000357,-0.011778386689987619
0.528000000000000358,-0.054185195479529213
0.529000000000000359,-0.096000153556898962
0.530000000000000360,-0.137218422725040284
0.531000000000000361,-0.177835509202627889
0.532000000000000361,-0.217847257078142814
0.533000000000000362,-0.257249841767436038
0.534000000000000363,-0.296039763479109486
0.535000000000000364,-0.334213840691749753
0.536000000000000365,-0.371769203646920454
0.537000000000000366,-0.408703287861680864
0.538000000000000367,-0.445013827664189843
0.539000000000000368,-0.480698849755840651
0.540000000000000369,-0.515756666803190988
0.541000000000000369,-0.550185871062802478
0.542000000000000370,-0.583985328041972895
0.543000000000000371,-0.617154170198204288
0.544000000000000372,-0.649691790680093750
0.545000000000000373,-0.681597837112192240
0.546000000000000374,-0.712872205426306138
0.547000000000000375,-0.743515033741491749
0.548000000000000376,-0.773526696294961402
0.549000000000000377,-0.802907797425919001
0.550000000000000377,-0.831659165614327178
0.551000000000000378,-0.859781847576350899
0.552000000000000379,-0.887277102418265406
0.553000000000000380,-0.914146395850397253
0.554000000000000381,-0.940391394462607999
0.555000000000000382,-0.966013960062753418
0.556000000000000383,-0.991016144079370442
0.557000000000000384,-1.015400182029862375
0.558000000000000385,-1.039168488055251194
0.559000000000000385,-1.062323649522580515
0.560000000000000386,-1.084868421695854401
0.561000000000000387,-1.106805722476432052
0.562000000000000388,-1.128138627213616685
0.563000000000000389,-1.148870363586192767
0.564000000000000390,-1.169004306555468276
0.565000000000000391,-1.188543973390470354
0.566000000000000392,-1.207493018765709802
0.567000000000000393,-1.225855229931980706
0.568000000000000393,-1.243634521960522488
0.569000000000000394,-1.260834933060870799
0.570000000000000395,-1.277460619972617284
0.571000000000000396,-1.293515853431232099
0.572000000000000397,-1.309005013708134380
0.573000000000000398,-1.323932586225023744
0.574000000000000399,-1.338303157242499264
0.575000000000000400,-1.352121409622985437
0.576000000000000401,-1.365392118667806409
0.577000000000000401,-1.378120148028376679
0.578000000000000402,-1.390310445691273156
0.579000000000000403,-1.401968040037018914
0.580000000000000404,-1.413098035972331523
0.581000000000000405,-1.423705611135537730
0.582000000000000406,-1.433796012174863632
0.583000000000000407,-1.443374551099213310
0.584000000000000408,-1.452446601701098627
0.585000000000000409,-1.461017596051251921
0.586000000000000409,-1.469093021064515669
0.587000000000000410,-1.476678415136548184
0.588000000000000411,-1.483779364850773330
0.589000000000000412,-1.490401501755170832
0.590000000000000413,-1.496550499208233465
0.591000000000000414,-1.502232069293615746
0.592000000000000415,-1.507451959802852182
0.593000000000000416,-1.512215951285510229
0.594000000000000417,-1.516529854166204672
0.595000000000000417,-1.520399505927781725
0.596000000000000418,-1.523830768360024068
0.597000000000000419,-1.526829524873228872
0.598000000000000420,-1.529401677875915855
0.599000000000000421,-1.531553146216011019
0.600000000000000422,-1.533289862684770410
0.601000000000000423,-1.534617771582696522
0.602000000000000424,-1.535542826346753653
0.603000000000000425,-1.536070987238130625
0.604000000000000425,-1.536208219089726601
0.605000000000000426,-1.535960489112708771
0.606000000000000427,-1.535333764761299236
0.607000000000000428,-1.534334011655011931
0.608000000000000429,-1.532967191557633058
0.609000000000000430,-1.531239260412052161
0.610000000000000431,-1.529156166430275521
0.611000000000000432,-1.526723848237717673
0.612000000000000433,-1.523948233071057201
0.613000000000000433,-1.520835235028841215
0.614000000000000434,-1.517390753374012080
0.615000000000000435,-1.513620670887583008
0.616000000000000436,-1.509530852272679580
