# AuFCC100-Ablate75_CYSSCA-AC
# h[nm],U(h)[kJ/mol]
0.149999999999999994,125.369498202471817194
0.150999999999999995,125.041720466831549174
0.151999999999999996,121.652655156489544197
0.152999999999999997,117.621877886111448674
0.153999999999999998,113.884919058442690698
0.154999999999999999,110.652877050704461226
0.156000000000000000,107.834439195019029967
0.157000000000000001,105.254561080354307023
0.158000000000000002,102.755146818179923685
0.159000000000000002,100.230793696815084104
0.160000000000000003,97.631658835421603726
0.161000000000000004,94.952070847397905595
0.162000000000000005,92.215103250708324367
0.163000000000000006,89.458214888837844114
0.164000000000000007,86.722074535895345093
0.165000000000000008,84.043038815959221211
0.166000000000000009,81.448927305602495608
0.167000000000000010,78.957399892966790844
0.168000000000000010,76.576174698380299333
0.169000000000000011,74.304396829367263422
0.170000000000000012,72.134598924658433816
0.171000000000000013,70.054838167827327311
0.172000000000000014,68.050727203278043476
0.173000000000000015,66.107187378421528479
0.174000000000000016,64.209838915277515525
0.175000000000000017,62.346005154166121542
0.176000000000000018,60.505350118082859012
0.177000000000000018,58.680194247886120706
0.178000000000000019,56.865566163242668551
0.179000000000000020,55.059052214780777490
0.180000000000000021,53.260503343892445116
0.181000000000000022,51.471652693072314833
0.182000000000000023,49.695689285845915606
0.183000000000000024,47.936824208093682387
0.184000000000000025,46.199876956512831327
0.185000000000000026,44.489901541290279852
0.186000000000000026,42.811864862533553833
0.187000000000000027,41.170383969825607551
0.188000000000000028,39.569524083293266870
0.189000000000000029,38.012655642461716354
0.190000000000000030,36.502366045597206323
0.191000000000000031,35.040420010843781995
0.192000000000000032,33.627761485862329494
0.193000000000000033,32.264549612127090938
0.194000000000000034,30.950221280855249262
0.195000000000000034,29.683573181429785848
0.196000000000000035,28.462856838233314249
0.197000000000000036,27.285880872964678900
0.198000000000000037,26.150115547871070731
0.199000000000000038,25.052795486884583909
0.200000000000000039,23.991017295588303426
0.201000000000000040,22.961829577810632941
0.202000000000000041,21.962313556552498284
0.203000000000000042,20.989653137777125380
0.204000000000000042,20.041193801418302201
0.205000000000000043,19.114490163665898592
0.206000000000000044,18.207342430596877847
0.207000000000000045,17.317822260515864485
0.208000000000000046,16.444288777608690566
0.209000000000000047,15.585395640366261460
0.210000000000000048,14.740090172835792259
0.211000000000000049,13.907605623294994501
0.212000000000000050,13.087447631358923417
0.213000000000000050,12.279375968301151190
0.214000000000000051,11.483382573366492707
0.215000000000000052,10.699666847255326019
0.216000000000000053,9.928609088220214929
0.217000000000000054,9.170742871051363210
0.218000000000000055,8.426727078646161218
0.219000000000000056,7.697318203193877828
0.220000000000000057,6.983343441970452758
0.221000000000000058,6.285675023487106827
0.222000000000000058,5.605206114912734350
0.223000000000000059,4.942828582514883884
0.224000000000000060,4.299412804166713897
0.225000000000000061,3.675789667266375460
0.226000000000000062,3.072734826960199062
0.227000000000000063,2.490955248383205145
0.228000000000000064,1.931078012591205706
0.229000000000000065,1.393641328678589808
0.230000000000000066,0.879087663883271753
0.231000000000000066,0.387758878821598596
0.232000000000000067,-0.080106764120149790
0.233000000000000068,-0.524375865310972911
0.234000000000000069,-0.945019581003904152
0.235000000000000070,-1.342111906413405720
0.236000000000000071,-1.715826712302945811
0.237000000000000072,-2.066433697913252487
0.238000000000000073,-2.394293419846036386
0.239000000000000073,-2.699851551249530690
0.240000000000000074,-2.983632518730419569
0.241000000000000075,-3.246232656198071886
0.242000000000000076,-3.488313005658796762
0.243000000000000077,-3.710591885105769983
0.244000000000000078,-3.913837333347807146
0.245000000000000079,-4.098859531105267351
0.246000000000000080,-4.266503287162779934
0.247000000000000081,-4.417640667963874890
0.248000000000000081,-4.553163838892781534
0.249000000000000082,-4.673978175720892914
0.250000000000000111,-4.780995695383988497
0.251000000000000112,-4.875128846465347721
0.252000000000000113,-4.957284691537600985
0.253000000000000114,-5.028359505892035841
0.254000000000000115,-5.089233810179774942
0.255000000000000115,-5.140767848107657301
0.256000000000000116,-5.183797514573974752
0.257000000000000117,-5.219130734481490563
0.258000000000000118,-5.247544287911655836
0.259000000000000119,-5.269781073361484047
0.260000000000000120,-5.286547797306369034
0.261000000000000121,-5.298513075427475627
0.262000000000000122,-5.306305928400533389
0.263000000000000123,-5.310514653148382003
0.264000000000000123,-5.311686048880025268
0.265000000000000124,-5.310324976037699152
0.266000000000000125,-5.306894225418274047
0.267000000000000126,-5.301814674190619137
0.268000000000000127,-5.295465705265504752
0.269000000000000128,-5.288185866456630357
0.270000000000000129,-5.280273746071328489
0.271000000000000130,-5.271989041958761391
0.272000000000000131,-5.263553801595849180
0.273000000000000131,-5.255153811481283910
0.274000000000000132,-5.246940114913874353
0.275000000000000133,-5.239030638131024098
0.276000000000000134,-5.231511905757388448
0.277000000000000135,-5.224440827545413057
0.278000000000000136,-5.217846539461892696
0.279000000000000137,-5.211732283274221444
0.280000000000000138,-5.206077309903792916
0.281000000000000139,-5.200838792930390753
0.282000000000000139,-5.195953739741218769
0.283000000000000140,-5.191340888912232110
0.284000000000000141,-5.186902583480654805
0.285000000000000142,-5.182526610809750522
0.286000000000000143,-5.178088000754742737
0.287000000000000144,-5.173450774807677455
0.288000000000000145,-5.168469639826772877
0.289000000000000146,-5.162991620837662055
0.290000000000000147,-5.156857628230478774
0.291000000000000147,-5.149903955464292693
0.292000000000000148,-5.141963704130141366
0.293000000000000149,-5.132868133914141318
0.294000000000000150,-5.122447935643721806
0.295000000000000151,-5.110534426193713564
0.296000000000000152,-5.096960664574616828
0.297000000000000153,-5.081562489025356122
0.298000000000000154,-5.064179475387354579
0.299000000000000155,-5.044655817448138180
0.300000000000000155,-5.022841130312334812
0.301000000000000156,-4.998591178187397510
0.302000000000000157,-4.971768528263172726
0.303000000000000158,-4.942243132619839052
0.304000000000000159,-4.909892840320374319
0.305000000000000160,-4.874603842032717793
0.306000000000000161,-4.836271049686553525
0.307000000000000162,-4.794798413800607229
0.308000000000000163,-4.750099181221509426
0.309000000000000163,-4.702096096096516575
0.310000000000000164,-4.650721546960931541
0.311000000000000165,-4.595917662859364761
0.312000000000000166,-4.537636361439792765
0.313000000000000167,-4.475839351961854895
0.314000000000000168,-4.410498096148112168
0.315000000000000169,-4.341593729780557354
0.316000000000000170,-4.269116947905729376
0.317000000000000171,-4.193067856461992982
0.318000000000000171,-4.113455793082979817
0.319000000000000172,-4.030299119763417259
0.320000000000000173,-3.943624989998433250
0.321000000000000174,-3.853469092925913664
0.322000000000000175,-3.759875376915282175
0.323000000000000176,-3.662895754955150629
0.324000000000000177,-3.562589794098177443
0.325000000000000178,-3.459024391124748465
0.326000000000000179,-3.352273436488681035
0.327000000000000179,-3.242417468508096423
0.328000000000000180,-3.129543319664184864
0.329000000000000181,-3.013743756770698390
0.330000000000000182,-2.895117116675921309
0.331000000000000183,-2.773766939060861247
0.332000000000000184,-2.649801597798601360
0.333000000000000185,-2.523333932243977618
0.334000000000000186,-2.394480879728184242
0.335000000000000187,-2.263363110440695269
0.336000000000000187,-2.130104665791208163
0.337000000000000188,-1.994832601256951055
0.338000000000000189,-1.857676634636481694
0.339000000000000190,-1.718768800549414832
0.340000000000000191,-1.578243111942878585
0.341000000000000192,-1.436235229290532045
0.342000000000000193,-1.292882138096867806
0.343000000000000194,-1.148321835251291390
0.344000000000000195,-1.002693024709722547
0.345000000000000195,-0.856134822919355498
0.346000000000000196,-0.708786474342311457
0.347000000000000197,-0.560787077377597698
0.348000000000000198,-0.412275320927768696
0.349000000000000199,-0.263389231806102742
0.350000000000000200,-0.114265933133482406
0.351000000000000201,0.034958586170597661
0.352000000000000202,0.184149690739251776
0.353000000000000203,0.333174306926783514
0.354000000000000203,0.481901119805579370
0.355000000000000204,0.630200759035174363
0.356000000000000205,0.777945973678073943
0.357000000000000206,0.925011796065091429
0.358000000000000207,1.071275694838638826
0.359000000000000208,1.216617717325933157
0.360000000000000209,1.360920621415469656
0.361000000000000210,1.504069997129331870
0.362000000000000210,1.645954378101258886
0.363000000000000211,1.786465343185742016
0.364000000000000212,1.925497608437084285
0.365000000000000213,2.062949109709357298
0.366000000000000214,2.198721076138395514
0.367000000000000215,2.332718094775977136
0.368000000000000216,2.464848166653573536
0.369000000000000217,2.595022754559278333
0.370000000000000218,2.723156822816233724
0.371000000000000218,2.849168869354644862
0.372000000000000219,2.972980950371864051
0.373000000000000220,3.094518697876799784
0.374000000000000221,3.213711330415191192
0.375000000000000222,3.330491657272346195
0.376000000000000223,3.444796076448573441
0.377000000000000224,3.556564566700913588
0.378000000000000225,3.665740673942051497
0.379000000000000226,3.772271492284358541
0.380000000000000226,3.876107640013179090
0.381000000000000227,3.977203230769272402
0.382000000000000228,4.075515840215713226
0.383000000000000229,4.171006468459262706
0.384000000000000230,4.263639498491112789
0.385000000000000231,4.353382650905624374
0.386000000000000232,4.440206935150053269
0.387000000000000233,4.524086597551650435
0.388000000000000234,4.604999066362118754
0.389000000000000234,4.682924894052542086
0.390000000000000235,4.757847697085323624
0.391000000000000236,4.829754093382248925
0.392000000000000237,4.898633637701258259
0.393000000000000238,4.964478755126856768
0.394000000000000239,5.027284672872307070
0.395000000000000240,5.087049350584353036
0.396000000000000241,5.143773409334116309
0.397000000000000242,5.197460059470613736
0.398000000000000242,5.248115027506210950
0.399000000000000243,5.295746482196244997
0.400000000000000244,5.340364959968250780
0.401000000000000245,5.381983289848782270
0.402000000000000246,5.420616518029676811
0.403000000000000247,5.456281832208373928
0.404000000000000248,5.488998485830487439
0.405000000000000249,5.518787722356350400
0.406000000000000250,5.545672699666878813
0.407000000000000250,5.569678414717833981
0.408000000000000251,5.590831628545617882
0.409000000000000252,5.609160791721593320
0.410000000000000253,5.624695970346452079
0.411000000000000254,5.637468772670172434
0.412000000000000255,5.647512276418004795
0.413000000000000256,5.654860956897307389
0.414000000000000257,5.659550615955156516
0.415000000000000258,5.661618311851531082
0.416000000000000258,5.661102290108126489
0.417000000000000259,5.658041915388154486
0.418000000000000260,5.652477604458042926
0.419000000000000261,5.644450760277630152
0.420000000000000262,5.634003707261179272
0.421000000000000263,5.621179627747677543
0.422000000000000264,5.606022499714958585
0.423000000000000265,5.588577035768510726
0.424000000000000266,5.568888623432227902
0.425000000000000266,5.547003266765155871
0.426000000000000267,5.522967529324834146
0.427000000000000268,5.496828478494876435
0.428000000000000269,5.468633631191428535
0.429000000000000270,5.438430900960439907
0.430000000000000271,5.406268546474755965
0.431000000000000272,5.372195121437860266
0.432000000000000273,5.336259425898356668
0.433000000000000274,5.298510458977270687
0.434000000000000274,5.258997373007791687
0.435000000000000275,5.217769429085423738
0.436000000000000276,5.174875954024228619
0.437000000000000277,5.130366298713235906
0.438000000000000278,5.084289797865378269
0.439000000000000279,5.036695731149667843
0.440000000000000280,4.987633285695828533
0.441000000000000281,4.937151519959358303
0.442000000000000282,4.885299328933389695
0.443000000000000282,4.832125410692933443
0.444000000000000283,4.777678234255544609
0.445000000000000284,4.722006008741757022
0.446000000000000285,4.665156653817495780
0.447000000000000286,4.607177771399865840
0.448000000000000287,4.548116618606909078
0.449000000000000288,4.488020081931259675
0.450000000000000289,4.426934652616832722
0.451000000000000290,4.364906403217265307
0.452000000000000290,4.301980965314197825
0.453000000000000291,4.238203508373037387
0.454000000000000292,4.173618719713479308
0.455000000000000293,4.108270785571642492
0.456000000000000294,4.042203373230472963
0.457000000000000295,3.975459614194748248
0.458000000000000296,3.908082088386787056
0.459000000000000297,3.840112809338983801
0.460000000000000298,3.771593210358849202
0.461000000000000298,3.702564131642644973
0.462000000000000299,3.633065808313086897
0.463000000000000300,3.563137859357116355
0.464000000000000301,3.492819277439415337
0.465000000000000302,3.422148419567660138
0.466000000000000303,3.351162998585287767
0.467000000000000304,3.279900075468106024
0.468000000000000305,3.208396052400786402
0.469000000000000306,3.136686666609743490
0.470000000000000306,3.064806984929044908
0.471000000000000307,2.992791399076057068
0.472000000000000308,2.920673621614023219
0.473000000000000309,2.848486682578768470
0.474000000000000310,2.776262926747281146
0.475000000000000311,2.704034011525767056
0.476000000000000312,2.631830905435774692
0.477000000000000313,2.559683887176390726
0.478000000000000314,2.487622545241742422
0.479000000000000314,2.415675778072688296
0.480000000000000315,2.343871794722318658
0.481000000000000316,2.272238116015068421
0.482000000000000317,2.200801576179670427
0.483000000000000318,2.129588324936511956
0.484000000000000319,2.058623830020350987
0.485000000000000320,1.987932880119732015
0.486000000000000321,1.917539588214783652
0.487000000000000322,1.847467395295516734
0.488000000000000322,1.777739074443071887
0.489000000000000323,1.708376735256859735
0.490000000000000324,1.639401828610758560
0.491000000000000325,1.570835151722095535
0.492000000000000326,1.502696853517410558
0.493000000000000327,1.435006440279485762
0.494000000000000328,1.367782781560408223
0.495000000000000329,1.301044116345923651
0.496000000000000330,1.234808059456667717
0.497000000000000330,1.169091608172229346
0.498000000000000331,1.103911149064441766
0.499000000000000332,1.039282465026696078
0.500000000000000333,0.975220742486253678
0.501000000000000334,0.911740578787182954
0.502000000000000335,0.848855989731709948
0.503000000000000336,0.786580417268255228
0.504000000000000337,0.724926737314644631
0.505000000000000338,0.663907267705546866
0.506000000000000338,0.603533776253341592
0.507000000000000339,0.543817488912042291
0.508000000000000340,0.484769098034297463
0.509000000000000341,0.426398770711740316
0.510000000000000342,0.368716157189306837
0.511000000000000343,0.311730399344486264
0.512000000000000344,0.255450139222768935
0.513000000000000345,0.199883527620919266
0.514000000000000346,0.145038232709843701
0.515000000000000346,0.090921448689395862
0.516000000000000347,0.037539904467478187
0.517000000000000348,-0.015100127643727595
0.518000000000000349,-0.066992823221400696
0.519000000000000350,-0.118132797022176356
0.520000000000000351,-0.168515094275223737
0.521000000000000352,-0.218135181984343562
0.522000000000000353,-0.266988940244982820
0.523000000000000353,-0.315072653581889017
0.524000000000000354,-0.362383002312632041
0.525000000000000355,-0.408917053942305209
0.526000000000000356,-0.454672254594168046
0.527000000000000357,-0.499646420481003051
0.528000000000000358,-0.543837729421691729
0.529000000000000359,-0.587244712407065883
0.530000000000000360,-0.629866245219297904
0.531000000000000361,-0.671701540108497142
0.532000000000000361,-0.712750137530244854
0.533000000000000362,-0.753011897947405640
0.534000000000000363,-0.792486993699562769
0.535000000000000364,-0.831175900943090129
0.536000000000000365,-0.869079391664743794
0.537000000000000366,-0.906198525771525043
0.538000000000000367,-0.942534643259324012
0.539000000000000368,-0.978089356462778170
0.540000000000000369,-1.012864542388533851
0.541000000000000369,-1.046862335134021382
0.542000000000000370,-1.080085118393646404
0.543000000000000371,-1.112535518054227124
0.544000000000000372,-1.144216394881299781
0.545000000000000373,-1.175130837297807984
0.546000000000000374,-1.205282154256613669
0.547000000000000375,-1.234673868208028935
0.548000000000000376,-1.263309708163587120
0.549000000000000377,-1.291193602857014788
0.550000000000000377,-1.318329674003410723
0.551000000000000378,-1.344722229657346224
0.552000000000000379,-1.370375757670693639
0.553000000000000380,-1.395294919250726240
0.554000000000000381,-1.419484542619028566
0.555000000000000382,-1.442949616771673771
0.556000000000000383,-1.465695285340927745
0.557000000000000384,-1.487726840558816876
0.558000000000000385,-1.509049717322652917
0.559000000000000385,-1.529669487362681712
0.560000000000000386,-1.549591853511790074
0.561000000000000387,-1.568822644077294992
0.562000000000000388,-1.587367807314624013
0.563000000000000389,-1.605233406002774199
0.564000000000000390,-1.622425612121197958
0.565000000000000391,-1.638950701627907902
0.566000000000000392,-1.654815049338370869
0.567000000000000393,-1.670025123904781195
0.568000000000000393,-1.684587482895243626
0.569000000000000394,-1.698508767972348732
0.570000000000000395,-1.711795700170582135
0.571000000000000396,-1.724455075271891902
0.572000000000000397,-1.736493759278858962
0.573000000000000398,-1.747918683984702737
0.574000000000000399,-1.758736842639393227
0.575000000000000400,-1.768955285711150349
0.576000000000000401,-1.778581116742466106
0.577000000000000401,-1.787621488299887762
0.578000000000000402,-1.796083598016630534
0.579000000000000403,-1.803974684727178923
0.580000000000000404,-1.811302024692955204
0.581000000000000405,-1.818072927918087611
0.582000000000000406,-1.824294734554376518
0.583000000000000407,-1.829974811394380563
0.584000000000000408,-1.835120548451759648
0.585000000000000409,-1.839739355627709072
0.586000000000000409,-1.843838659462555984
0.587000000000000410,-1.847425899971451457
0.588000000000000411,-1.850508527563021532
0.589000000000000412,-1.853094000040039990
0.590000000000000413,-1.855189779680884055
0.591000000000000414,-1.856803330400797591
0.592000000000000415,-1.857942114991818938
0.593000000000000416,-1.858613592440221840
0.594000000000000417,-1.858825215320422775
0.595000000000000417,-1.858584427264201366
0.596000000000000418,-1.857898660504071486
0.597000000000000419,-1.856775333489763868
0.598000000000000420,-1.855221848576577681
0.599000000000000421,-1.853245589784570324
0.600000000000000422,-1.850853920627378857
0.601000000000000423,-1.848054182009568169
0.602000000000000424,-1.844853690191370577
0.603000000000000425,-1.841259734819721938
0.604000000000000425,-1.837279577024355959
0.605000000000000426,-1.832920447577971235
0.606000000000000427,-1.828189545119256465
0.607000000000000428,-1.823094034437659827
0.608000000000000429,-1.817641044818858020
0.609000000000000430,-1.811837668449705729
0.610000000000000431,-1.805690958881694286
0.611000000000000432,-1.799207929551692731
0.612000000000000433,-1.792395552358977184
0.613000000000000433,-1.785260756297436968
0.614000000000000434,-1.777810426141868350
0.615000000000000435,-1.770051401187278328
0.616000000000000436,-1.761990474040206589
