# AuFCC100-Ablate75_HIESCA-JS
# h[nm],U(h)[kJ/mol]
0.149999999999999994,109.961200147467323518
0.150999999999999995,108.015756513196635069
0.151999999999999996,104.032429514423455430
0.152999999999999997,99.664603381227564682
0.153999999999999998,95.552996504431291669
0.154999999999999999,91.840656218099852026
0.156000000000000000,88.461143516109657980
0.157000000000000001,85.289148417194084573
0.158000000000000002,82.210642314340745429
0.159000000000000002,79.148331561826068992
0.160000000000000003,76.064194933630218998
0.161000000000000004,72.951880329437116757
0.162000000000000005,69.826054536596359412
0.163000000000000006,66.712313058773290209
0.164000000000000007,63.639195780648776690
0.165000000000000008,60.632700581853953281
0.166000000000000009,57.713096329249218286
0.167000000000000010,54.893583043387344844
0.168000000000000010,52.180285053190871736
0.169000000000000011,49.573101253780642139
0.170000000000000012,47.067019570593899402
0.171000000000000013,44.653598107397222350
0.172000000000000014,42.322405764174298781
0.173000000000000015,40.062292101093433416
0.174000000000000016,37.862417122829363336
0.175000000000000017,35.713016759741705641
0.176000000000000018,33.605910975522348849
0.177000000000000018,31.534781104186027534
0.178000000000000019,29.495253765014268765
0.179000000000000020,27.484832867844744442
0.180000000000000021,25.502720808069700098
0.181000000000000022,23.549566585739210467
0.182000000000000023,21.627173524276788186
0.183000000000000024,19.738193443274102634
0.184000000000000025,17.885828213890171412
0.185000000000000026,16.073554030578939944
0.186000000000000026,14.304878733629459830
0.187000000000000027,12.583138249485259053
0.188000000000000028,10.911334724106643179
0.189000000000000029,9.292016189964982686
0.190000000000000030,7.727195570676218317
0.191000000000000031,6.218305406910107358
0.192000000000000032,4.766183790772329232
0.193000000000000033,3.371086529485231242
0.194000000000000034,2.032720433332454224
0.195000000000000034,0.750292755838892322
0.196000000000000035,-0.477427865701004539
0.197000000000000036,-1.652043175041901346
0.198000000000000037,-2.775453451084783474
0.199000000000000038,-3.849785178334561131
0.200000000000000039,-4.877320800287885838
0.201000000000000040,-5.860432581608362668
0.202000000000000041,-6.801522100687125594
0.203000000000000042,-7.702966437363573782
0.204000000000000042,-8.567071717571616674
0.205000000000000043,-9.396034330207985619
0.206000000000000044,-10.191909841530549130
0.207000000000000045,-10.956589396748569243
0.208000000000000046,-11.691783213578663236
0.209000000000000047,-12.399010633868838838
0.210000000000000048,-13.079596101853407930
0.211000000000000049,-13.734670375876911308
0.212000000000000050,-14.365176249218359672
0.213000000000000050,-14.971878049843008185
0.214000000000000051,-15.555374203722802662
0.215000000000000052,-16.116112177402690975
0.216000000000000053,-16.654405158807215059
0.217000000000000054,-17.170449887405077050
0.218000000000000055,-17.664345102772411877
0.219000000000000056,-18.136110141764945070
0.220000000000000057,-18.585703276803524631
0.221000000000000058,-19.013039449459746777
0.222000000000000058,-19.418007113235891126
0.223000000000000059,-19.800483956102159055
0.224000000000000060,-20.160351326216858325
0.225000000000000061,-20.497507232775042496
0.226000000000000062,-20.811877837778617106
0.227000000000000063,-21.103427393539217150
0.228000000000000064,-21.372166614893309600
0.229000000000000065,-21.618159504523440262
0.230000000000000066,-21.841528674617308070
0.231000000000000066,-22.042459228607025779
0.232000000000000067,-22.221201283206770682
0.233000000000000068,-22.378071223734153250
0.234000000000000069,-22.513451795101659059
0.235000000000000070,-22.627791137251925591
0.236000000000000071,-22.721600877531564322
0.237000000000000072,-22.795453393896782046
0.238000000000000073,-22.849978362243991370
0.239000000000000073,-22.885858698870926276
0.240000000000000074,-22.903826005387539766
0.241000000000000075,-22.904655618574864206
0.242000000000000076,-22.889161361978416664
0.243000000000000077,-22.858190089637950848
0.244000000000000078,-22.812616105493319196
0.245000000000000079,-22.753335534836413245
0.246000000000000080,-22.681260716854232840
0.247000000000000081,-22.597314679954386918
0.248000000000000081,-22.502425754291987658
0.249000000000000082,-22.397522368817138982
0.250000000000000111,-22.283528073309877726
0.251000000000000112,-22.161356819322826084
0.252000000000000113,-22.031908527759977545
0.253000000000000114,-21.896064965013245285
0.254000000000000115,-21.754685944184746660
0.255000000000000115,-21.608605862952835253
0.256000000000000116,-21.458630585103165345
0.257000000000000117,-21.305534668640536466
0.258000000000000118,-21.150058939717798268
0.259000000000000119,-20.992908408354082894
0.260000000000000120,-20.834750519051773665
0.261000000000000121,-20.676213726941234938
0.262000000000000122,-20.517886387967323003
0.263000000000000123,-20.360315949856918394
0.264000000000000123,-20.204008429153425652
0.265000000000000124,-20.049428158445284254
0.266000000000000125,-19.896997787031086347
0.267000000000000126,-19.747098517626646696
0.268000000000000127,-19.600070561309461681
0.269000000000000128,-19.456213792688242137
0.270000000000000129,-19.315788587259213216
0.271000000000000130,-19.179016823044911177
0.272000000000000131,-19.046083028886044985
0.273000000000000131,-18.917135662152666953
0.274000000000000132,-18.792288499140958891
0.275000000000000133,-18.671622122009800648
0.276000000000000134,-18.555185486769900649
0.277000000000000135,-18.442997557557141874
0.278000000000000136,-18.335048993184084765
0.279000000000000137,-18.231303872760729945
0.280000000000000138,-18.131701447995769882
0.281000000000000139,-18.036157910622954148
0.282000000000000139,-17.944568164236457619
0.283000000000000140,-17.856807590656210039
0.284000000000000141,-17.772733801772059081
0.285000000000000142,-17.692188368630322515
0.286000000000000143,-17.614998520320760633
0.287000000000000144,-17.540978805993955092
0.288000000000000145,-17.469932714084595915
0.289000000000000146,-17.401654243531368138
0.290000000000000147,-17.335929422468961292
0.291000000000000147,-17.272537770518056277
0.292000000000000148,-17.211253701415863304
0.293000000000000149,-17.151847863310759834
0.294000000000000150,-17.094088414589410974
0.295000000000000151,-17.037742233614572740
0.296000000000000152,-16.982576061224843755
0.297000000000000153,-16.928357575286348435
0.298000000000000154,-16.874856396989411422
0.299000000000000155,-16.821845028953465118
0.300000000000000155,-16.769099725540048240
0.301000000000000156,-16.716401296078899463
0.302000000000000157,-16.663535841986814034
0.303000000000000158,-16.610295429004168000
0.304000000000000159,-16.556478695991451389
0.305000000000000160,-16.501891401919039026
0.306000000000000161,-16.446346912849321598
0.307000000000000162,-16.389666630852513407
0.308000000000000163,-16.331680366917300518
0.309000000000000163,-16.272226660016993804
0.310000000000000164,-16.211153044571553039
0.311000000000000165,-16.148316268607690205
0.312000000000000166,-16.083582464964884196
0.313000000000000167,-16.016827277924814865
0.314000000000000168,-15.947935947657901679
0.315000000000000169,-15.876803354883801234
0.316000000000000170,-15.803334028134264244
0.317000000000000171,-15.727442115987898319
0.318000000000000171,-15.649051326617961166
0.319000000000000172,-15.568094836957566685
0.320000000000000173,-15.484515173742622096
0.321000000000000174,-15.398264068641736912
0.322000000000000175,-15.309302289626305793
0.323000000000000176,-15.217599450672320671
0.324000000000000177,-15.123133801820120681
0.325000000000000178,-15.025892001549113530
0.326000000000000179,-14.925868873353248745
0.327000000000000179,-14.823067148328288312
0.328000000000000180,-14.717497195506762608
0.329000000000000181,-14.609176741599739557
0.330000000000000182,-14.498130581726178079
0.331000000000000183,-14.384390282633940927
0.332000000000000184,-14.267993879837638005
0.333000000000000185,-14.148985570021830327
0.334000000000000186,-14.027415399981217448
0.335000000000000187,-13.903338953293651770
0.336000000000000187,-13.776817035847875204
0.337000000000000188,-13.647915361274275625
0.338000000000000189,-13.516704237256330856
0.339000000000000190,-13.383258253630520684
0.340000000000000191,-13.247655973114811800
0.341000000000000192,-13.109979625440946194
0.342000000000000193,-12.970314805601571351
0.343000000000000194,-12.828750176862863341
0.344000000000000195,-12.685377179133940473
0.345000000000000195,-12.540289743228218100
0.346000000000000196,-12.393584011497466690
0.347000000000000197,-12.245358065267577530
0.348000000000000198,-12.095711659455931297
0.349000000000000199,-11.944745964702633501
0.350000000000000200,-11.792563317303999426
0.351000000000000201,-11.639266977193516439
0.352000000000000202,-11.484960894176044377
0.353000000000000203,-11.329749482583070019
0.354000000000000203,-11.173737404480975854
0.355000000000000204,-11.017029361531317733
0.356000000000000205,-10.859729895570474412
0.357000000000000206,-10.701943197946969022
0.358000000000000207,-10.543772927627221847
0.359000000000000208,-10.385322038055630145
0.360000000000000209,-10.226692612730916565
0.361000000000000210,-10.067985709439273734
0.362000000000000210,-9.909301213064869884
0.363000000000000211,-9.750737696879832939
0.364000000000000212,-9.592392292199386716
0.365000000000000213,-9.434360566272312454
0.366000000000000214,-9.276736408263506206
0.367000000000000215,-9.119611923172730172
0.368000000000000216,-8.963077333522941004
0.369000000000000217,-8.807220888641529299
0.370000000000000218,-8.652128781349421871
0.371000000000000218,-8.497885071865304951
0.372000000000000219,-8.344571618726041251
0.373000000000000220,-8.192268016518749363
0.374000000000000221,-8.041051540215613969
0.375000000000000222,-7.890997095898937275
0.376000000000000223,-7.742177177660979126
0.377000000000000224,-7.594661830461373775
0.378000000000000225,-7.448518618723459994
0.379000000000000226,-7.303812600450234171
0.380000000000000226,-7.160606306640788787
0.381000000000000227,-7.018959725788400661
0.382000000000000228,-6.878930293242893512
0.383000000000000229,-6.740572885221148169
0.384000000000000230,-6.603939817251823108
0.385000000000000231,-6.469080846842887311
0.386000000000000232,-6.336043180163153821
0.387000000000000233,-6.204871482532349880
0.388000000000000234,-6.075607892517528086
0.389000000000000234,-5.948292039437634848
0.390000000000000235,-5.822961064081555449
0.391000000000000236,-5.699649642449707621
0.392000000000000237,-5.578390012332985926
0.393000000000000238,-5.459212002548012421
0.394000000000000239,-5.342143064651731166
0.395000000000000240,-5.227208306963587958
0.396000000000000241,-5.114430530728192537
0.397000000000000242,-5.003830268256281855
0.398000000000000242,-4.895425822887014000
0.399000000000000243,-4.789233310619409600
0.400000000000000244,-4.685266703265841493
0.401000000000000245,-4.583537872985925965
0.402000000000000246,-4.484056638063680822
0.403000000000000247,-4.386830809796184560
0.404000000000000248,-4.291866240367084195
0.405000000000000249,-4.199166871583033256
0.406000000000000250,-4.108734784356245839
0.407000000000000250,-4.020570248821250026
0.408000000000000251,-3.934671774978592218
0.409000000000000252,-3.851036163763275511
0.410000000000000253,-3.769658558440020180
0.411000000000000254,-3.690532496232420634
0.412000000000000255,-3.613649960097248481
0.413000000000000256,-3.539001430559809869
0.414000000000000257,-3.466575937530362417
0.415000000000000258,-3.396361112026040185
0.416000000000000258,-3.328343237726664849
0.417000000000000259,-3.262507302296919764
0.418000000000000260,-3.198837048411290240
0.419000000000000261,-3.137315024421828191
0.420000000000000262,-3.077922634612710873
0.421000000000000263,-3.020640188988955366
0.422000000000000264,-2.965446952550123250
0.423000000000000265,-2.912321194003330227
0.424000000000000266,-2.861240233873032501
0.425000000000000266,-2.812180491968180096
0.426000000000000267,-2.765117534170351998
0.427000000000000268,-2.720026118509507818
0.428000000000000269,-2.676880240496639196
0.429000000000000270,-2.635653177685406412
0.430000000000000271,-2.596317533437436431
0.431000000000000272,-2.558845279868391387
0.432000000000000273,-2.523207799954369612
0.433000000000000274,-2.489375928780434677
0.434000000000000274,-2.457319993915334511
0.435000000000000275,-2.427009854898444896
0.436000000000000276,-2.398414941827119229
0.437000000000000277,-2.371504293034373934
0.438000000000000278,-2.346246591848802687
0.439000000000000279,-2.322610202430258841
0.440000000000000280,-2.300563204676463247
0.441000000000000281,-2.280073428197305851
0.442000000000000282,-2.261108485355144193
0.443000000000000282,-2.243635803370577886
0.444000000000000283,-2.227622655494796433
0.445000000000000284,-2.213036191250615126
0.446000000000000285,-2.199843465745531912
0.447000000000000286,-2.188011468061417553
0.448000000000000287,-2.177507148726159691
0.449000000000000288,-2.168297446273901752
0.450000000000000289,-2.160349312901185037
0.451000000000000290,-2.153629739227230111
0.452000000000000290,-2.148105778167417323
0.453000000000000291,-2.143744567929689815
0.454000000000000292,-2.140513354144344405
0.455000000000000293,-2.138379511138237099
0.456000000000000294,-2.137310562365095645
0.457000000000000295,-2.137274200004014801
0.458000000000000296,-2.138238303738901003
0.459000000000000297,-2.140170958731822726
0.460000000000000298,-2.143040472803880991
0.461000000000000298,-2.146815392837273961
0.462000000000000299,-2.151464520412886827
0.463000000000000300,-2.156956926697682686
0.464000000000000301,-2.163261966596662145
0.465000000000000302,-2.170349292184215795
0.466000000000000303,-2.178188865430020549
0.467000000000000304,-2.186750970234548674
0.468000000000000305,-2.196006223789685130
0.469000000000000306,-2.205925587279755185
0.470000000000000306,-2.216480375938506775
0.471000000000000307,-2.227642268477551202
0.472000000000000308,-2.239383315901879890
0.473000000000000309,-2.251675949727915516
0.474000000000000310,-2.264492989619652175
0.475000000000000311,-2.277807650458459232
0.476000000000000312,-2.291593548861802887
0.477000000000000313,-2.305824709166391262
0.478000000000000314,-2.320475568890874918
0.479000000000000314,-2.335520983693347041
0.480000000000000315,-2.350936231838553603
0.481000000000000316,-2.366697018189813040
0.482000000000000317,-2.382779477740286644
0.483000000000000318,-2.399160178698235946
0.484000000000000319,-2.415816125140653803
0.485000000000000320,-2.432724759249501822
0.486000000000000321,-2.449863963144621959
0.487000000000000322,-2.467212060327123702
0.488000000000000322,-2.484747816746957216
0.489000000000000323,-2.502450441508041301
0.490000000000000324,-2.520299587224236859
0.491000000000000325,-2.538275350039142175
0.492000000000000326,-2.556358269322466903
0.493000000000000327,-2.574529327055587125
0.494000000000000328,-2.592769946918556556
0.495000000000000329,-2.611061993090689093
0.496000000000000330,-2.629387768776543677
0.497000000000000330,-2.647730014468923976
0.498000000000000331,-2.666071905960281541
0.499000000000000332,-2.684397052113575377
0.500000000000000333,-2.702689492403562710
0.501000000000000334,-2.720933694239100475
0.502000000000000335,-2.739114550076850119
0.503000000000000336,-2.757217374336538906
0.504000000000000337,-2.775227900127715142
0.505000000000000338,-2.793132275797591380
0.506000000000000338,-2.810917061309452514
0.507000000000000339,-2.828569224460790288
0.508000000000000340,-2.846076136950097091
0.509000000000000341,-2.863425570301011636
0.510000000000000342,-2.880605691652306177
0.511000000000000343,-2.897605059421939799
0.512000000000000344,-2.914412618853177595
0.513000000000000345,-2.931017697450522874
0.514000000000000346,-2.947410000313082090
0.515000000000000346,-2.963579605372604675
0.516000000000000347,-2.979516958543325877
0.517000000000000348,-2.995212868790555927
0.518000000000000349,-3.010658503124596486
0.519000000000000350,-3.025845381526489852
0.520000000000000351,-3.040765371811883000
0.521000000000000352,-3.055410684439000768
0.522000000000000353,-3.069773867266577305
0.523000000000000353,-3.083847800267452754
0.524000000000000354,-3.097625690203221982
0.525000000000000355,-3.111101065265239551
0.526000000000000356,-3.124267769687032903
0.527000000000000357,-3.137119958333030478
0.528000000000000358,-3.149652091268353882
0.529000000000000359,-3.161858928314097206
0.530000000000000360,-3.173735523592598362
0.531000000000000361,-3.185277220066812909
0.532000000000000361,-3.196479644077835136
0.533000000000000362,-3.207338699884435762
0.534000000000000363,-3.217850564208350583
0.535000000000000364,-3.228011680788846149
0.536000000000000365,-3.237818754949971289
0.537000000000000366,-3.247268748183783860
0.538000000000000367,-3.256358872752611600
0.539000000000000368,-3.265086586313400208
0.540000000000000369,-3.273449586566909542
0.541000000000000369,-3.281445805934512183
0.542000000000000370,-3.289073406265166089
0.543000000000000371,-3.296330773574987383
0.544000000000000372,-3.303216512821788964
0.545000000000000373,-3.309729442716759618
0.546000000000000374,-3.315868590575410391
0.547000000000000375,-3.321633187209717786
0.548000000000000376,-3.327022661863421327
0.549000000000000377,-3.332036637192140827
0.550000000000000377,-3.336674924290051081
0.551000000000000378,-3.340937517764642539
0.552000000000000379,-3.344824590861041003
0.553000000000000380,-3.348336490637257246
0.554000000000000381,-3.351473733191639326
0.555000000000000382,-3.354236998943759041
0.556000000000000383,-3.356627127969757485
0.557000000000000384,-3.358645115393279923
0.558000000000000385,-3.360292106832846848
0.559000000000000385,-3.361569393906607139
0.560000000000000386,-3.362478409795191858
0.561000000000000387,-3.363020724863472477
0.562000000000000388,-3.363198042341802640
0.563000000000000389,-3.363012194067363847
0.564000000000000390,-3.362465136286125755
0.565000000000000391,-3.361558945515883856
0.566000000000000392,-3.360295814470772857
0.567000000000000393,-3.358678048047580411
0.568000000000000393,-3.356708059374157838
0.569000000000000394,-3.354388365920155657
0.570000000000000395,-3.351721585670285997
0.571000000000000396,-3.348710433360168715
0.572000000000000397,-3.345357716774947754
0.573000000000000398,-3.341666333110637765
0.574000000000000399,-3.337639265398204991
0.575000000000000400,-3.333279578990382852
0.576000000000000401,-3.328590418111053051
0.577000000000000401,-3.323575002467158868
0.578000000000000402,-3.318236623922906858
0.579000000000000403,-3.312578643236104625
0.580000000000000404,-3.306604486856397962
0.581000000000000405,-3.300317643785136035
0.582000000000000406,-3.293721662496571501
0.583000000000000407,-3.286820147920077151
0.584000000000000408,-3.279616758483054895
0.585000000000000409,-3.272115203214103651
0.586000000000000409,-3.264319238906105536
0.587000000000000410,-3.256232667338797349
0.588000000000000411,-3.247859332560337542
0.589000000000000412,-3.239203118227484079
0.590000000000000413,-3.230267945003801877
0.591000000000000414,-3.221057768015499700
0.592000000000000415,-3.211576574364290337
0.593000000000000416,-3.201828380696783771
0.594000000000000417,-3.191817230829858243
0.595000000000000417,-3.181547193431433662
0.596000000000000418,-3.171022359756052733
0.597000000000000419,-3.160246841434748877
0.598000000000000420,-3.149224768318474865
0.599000000000000421,-3.137960286374623209
0.600000000000000422,-3.126457555635901997
0.601000000000000423,-3.114720748200991096
0.602000000000000424,-3.102754046286324119
0.603000000000000425,-3.090561640328376658
0.604000000000000425,-3.078147727135734701
0.605000000000000426,-3.065516508090382342
0.606000000000000427,-3.052672187397483583
0.607000000000000428,-3.039618970382975682
0.608000000000000429,-3.026361061838378497
0.609000000000000430,-3.012902664412046683
