# AuFCC100-Ablate75_SERSCA-JS
# h[nm],U(h)[kJ/mol]
0.200000000000000011,63.208195393008942631
0.201000000000000012,59.053507744735746599
0.202000000000000013,56.668895823698008485
0.203000000000000014,55.069313353057076199
0.204000000000000015,53.716845284936688643
0.205000000000000016,52.350395861286429522
0.206000000000000016,50.871861087618121644
0.207000000000000017,49.271984898738381276
0.208000000000000018,47.583686296831906759
0.209000000000000019,45.854060819349619749
0.210000000000000020,44.128788026337133488
0.211000000000000021,42.444535265710392480
0.212000000000000022,40.826303518921491786
0.213000000000000023,39.287640796700500800
0.214000000000000024,37.832348971595123999
0.215000000000000024,36.456804252145289524
0.216000000000000025,35.152354865388289795
0.217000000000000026,33.907493287379182334
0.218000000000000027,32.709655409431029227
0.219000000000000028,31.546598234523877125
0.220000000000000029,30.407367908506792276
0.221000000000000030,29.282903399626217578
0.222000000000000031,28.166336833030641174
0.223000000000000032,27.053055708861855067
0.224000000000000032,25.940589447351083408
0.225000000000000033,24.828375994871983323
0.226000000000000034,23.717455669081211056
0.227000000000000035,22.610130373824226524
0.228000000000000036,21.509617616683584629
0.229000000000000037,20.419720896803305266
0.230000000000000038,19.344531236102426419
0.231000000000000039,18.288168979111098622
0.232000000000000040,17.254570458220634066
0.233000000000000040,16.247320623589157407
0.234000000000000041,15.269530149331979274
0.235000000000000042,14.323753716145608550
0.236000000000000043,13.411945001260146881
0.237000000000000044,12.535443253469191305
0.238000000000000045,11.694986080094167846
0.239000000000000046,10.890743124624027161
0.240000000000000047,10.122365583871975048
0.241000000000000048,9.389046931698414866
0.242000000000000048,8.689590725921995329
0.243000000000000049,8.022481931189606286
0.244000000000000050,7.385958758937015034
0.245000000000000051,6.778082580627175169
0.246000000000000052,6.196803994088908141
0.247000000000000053,5.640023602897075605
0.248000000000000054,5.105646498072625050
0.249000000000000055,4.591629806443443762
0.250000000000000056,4.096022990172966338
0.251000000000000056,3.617000848737921270
0.252000000000000057,3.152889391018016241
0.253000000000000058,2.702184915151613076
0.254000000000000059,2.263566762004551869
0.255000000000000060,1.835904299379357507
0.256000000000000061,1.418258753385067905
0.257000000000000062,1.009880535498457466
0.258000000000000063,0.610202723324347329
0.259000000000000064,0.218831344123485982
0.260000000000000064,-0.164466913348704946
0.261000000000000065,-0.539778967838610235
0.262000000000000066,-0.907061047423470379
0.263000000000000067,-1.266155324583251751
0.264000000000000068,-1.616807036695373956
0.265000000000000069,-1.958681697411915890
0.266000000000000070,-2.291382057655871218
0.267000000000000071,-2.614464527036893138
0.268000000000000071,-2.927454816389926329
0.269000000000000072,-3.229862609173806298
0.270000000000000073,-3.521195113120517473
0.271000000000000074,-3.800969383464123830
0.272000000000000075,-4.068723345111078693
0.273000000000000076,-4.324025473168155997
0.274000000000000077,-4.566483119349158848
0.275000000000000078,-4.795749496038888893
0.276000000000000079,-5.011529350367468716
0.277000000000000079,-5.213583377748338243
0.278000000000000080,-5.401731438197631796
0.279000000000000081,-5.575854649643420480
0.280000000000000082,-5.735896440620441794
0.281000000000000083,-5.881862650505479628
0.282000000000000084,-6.013820769053338289
0.283000000000000085,-6.131898408708869042
0.284000000000000086,-6.236281103251205771
0.285000000000000087,-6.327209525013714142
0.286000000000000087,-6.404976210441558848
0.287000000000000088,-6.469921880307149209
0.288000000000000089,-6.522431436691883633
0.289000000000000090,-6.562929714033965745
0.290000000000000091,-6.591877056290435632
0.291000000000000092,-6.609764786705619954
0.292000000000000093,-6.617110630937626858
0.293000000000000094,-6.614454148475338968
0.294000000000000095,-6.602352221470141558
0.295000000000000095,-6.581374644385967088
0.296000000000000096,-6.552099852301942917
0.297000000000000097,-6.515110820335853425
0.298000000000000098,-6.470991161535278202
0.299000000000000099,-6.420321445739292088
0.300000000000000100,-6.363675757370051755
0.301000000000000101,-6.301618505887029542
0.302000000000000102,-6.234701498737602599
0.303000000000000103,-6.163461283069180396
0.304000000000000103,-6.088416759230643294
0.305000000000000104,-6.010067066179631823
0.306000000000000105,-5.928889736319211679
0.307000000000000106,-5.845339115001767283
0.308000000000000107,-5.759845037947577850
0.309000000000000108,-5.672811758114872482
0.310000000000000109,-5.584617112111985193
0.311000000000000110,-5.495611915044010587
0.312000000000000111,-5.406119571717938221
0.313000000000000111,-5.316435891375355993
0.314000000000000112,-5.226829092561898094
0.315000000000000113,-5.137539984360538270
0.316000000000000114,-5.048782309995429429
0.317000000000000115,-4.960743238736286642
0.318000000000000116,-4.873583992085936067
0.319000000000000117,-4.787440590399544504
0.320000000000000118,-4.702424706349173533
0.321000000000000119,-4.618624611997933727
0.322000000000000119,-4.536106206671924213
0.323000000000000120,-4.454914113302682388
0.324000000000000121,-4.375072831448017396
0.325000000000000122,-4.296587935774193845
0.326000000000000123,-4.219447309388351997
0.327000000000000124,-4.143622402038408481
0.328000000000000125,-4.069069503841506119
0.329000000000000126,-3.995731025853162866
0.330000000000000127,-3.923536779443080214
0.331000000000000127,-3.852405247093942275
0.332000000000000128,-3.782244837881624910
0.333000000000000129,-3.712955121525480795
0.334000000000000130,-3.644428035511865893
0.335000000000000131,-3.576549060390012080
0.336000000000000132,-3.509198358914120686
0.337000000000000133,-3.442251875257286819
0.338000000000000134,-3.375582391049619879
0.339000000000000135,-3.309060535494169564
0.340000000000000135,-3.242555747287923396
0.341000000000000136,-3.175937186521905709
0.342000000000000137,-3.109074595153017651
0.343000000000000138,-3.041839105031102442
0.344000000000000139,-2.974103992827621834
0.345000000000000140,-2.905745381548177964
0.346000000000000141,-2.836642888619453906
0.347000000000000142,-2.766680220823603875
0.348000000000000143,-2.695745716609863951
0.349000000000000143,-2.623732836544913738
0.350000000000000144,-2.550540602871858908
0.351000000000000145,-2.476073989332810754
0.352000000000000146,-2.400244262573589804
0.353000000000000147,-2.322969276591711818
0.354000000000000148,-2.244173721812031008
0.355000000000000149,-2.163789330478722128
0.356000000000000150,-2.081755040139633195
0.357000000000000151,-1.998017117069673443
0.358000000000000151,-1.912529241535532831
0.359000000000000152,-1.825252556845433194
0.360000000000000153,-1.736155684156015511
0.361000000000000154,-1.645214705024783397
0.362000000000000155,-1.552413113701670788
0.363000000000000156,-1.457741741148645742
0.364000000000000157,-1.361198652762067196
0.365000000000000158,-1.262789021750466700
0.366000000000000159,-1.162524980090636317
0.367000000000000159,-1.060425448948490112
0.368000000000000160,-0.956515950409411508
0.369000000000000161,-0.850828402315072396
0.370000000000000162,-0.743400897952276152
0.371000000000000163,-0.634277472283987898
0.372000000000000164,-0.523507856353566448
0.373000000000000165,-0.411147221432471066
0.374000000000000166,-0.297255914417652367
0.375000000000000167,-0.181899185920214923
0.376000000000000167,-0.065146912420354267
0.377000000000000168,0.052926686203456010
0.378000000000000169,0.172243332530525706
0.379000000000000170,0.292720979666230285
0.380000000000000171,0.414274100417153346
0.381000000000000172,0.536813976534048942
0.382000000000000173,0.660248987050123026
0.383000000000000174,0.784484894806762201
0.384000000000000175,0.909425130323014974
0.385000000000000175,1.034971072227311994
0.386000000000000176,1.161022323531156086
0.387000000000000177,1.287476983083559956
0.388000000000000178,1.414231911602628511
0.389000000000000179,1.541182991736416596
0.390000000000000180,1.668225381658676953
0.391000000000000181,1.795253761757206634
0.392000000000000182,1.922162574021569537
0.393000000000000183,2.048846253785263194
0.394000000000000183,2.175199453522216331
0.395000000000000184,2.301117258441149893
0.396000000000000185,2.426495393662664313
0.397000000000000186,2.551230422802608810
0.398000000000000187,2.675219937822725491
0.399000000000000188,2.798362740044322283
0.400000000000000189,2.920559012253392872
0.401000000000000190,3.041710481857087256
0.402000000000000191,3.161720575079510986
0.403000000000000191,3.280494562212674658
0.404000000000000192,3.397939693962924057
0.405000000000000193,3.513965328956791812
0.406000000000000194,3.628483052491703997
0.407000000000000195,3.741406786636700676
0.408000000000000196,3.852652891806686686
0.409000000000000197,3.962140259950262866
0.410000000000000198,4.069790399506176826
0.411000000000000199,4.175527512297209753
0.412000000000000199,4.279278562542502939
0.413000000000000200,4.380973338180052856
0.414000000000000201,4.480544504700929132
0.415000000000000202,4.577927651705135936
0.416000000000000203,4.673061332395990419
0.417000000000000204,4.765887096236641085
0.418000000000000205,4.856349514996779249
0.419000000000000206,4.944396202422292497
0.420000000000000207,5.029977827763669751
0.421000000000000207,5.113048123401144451
0.422000000000000208,5.193563886806555452
0.423000000000000209,5.271484977082312007
0.424000000000000210,5.346774306318256009
0.425000000000000211,5.419397826006520091
0.426000000000000212,5.489324508753435694
0.427000000000000213,5.556526325525807053
0.428000000000000214,5.620978218666603077
0.429000000000000214,5.682658070912594894
0.430000000000000215,5.741546670643190353
0.431000000000000216,5.797627673586212005
0.432000000000000217,5.850887561202691600
0.433000000000000218,5.901315595968301686
0.434000000000000219,5.948903773764770975
0.435000000000000220,5.993646773589825116
0.436000000000000221,6.035541904789242018
0.437000000000000222,6.074589052009494949
0.438000000000000222,6.110790618064126711
0.439000000000000223,6.144151464901453252
0.440000000000000224,6.174678852855875810
0.441000000000000225,6.202382378359065918
0.442000000000000226,6.227273910281763136
0.443000000000000227,6.249367525071131801
0.444000000000000228,6.268679440842601203
0.445000000000000229,6.285227950579511003
0.446000000000000230,6.299033354587736611
0.447000000000000230,6.310117892346925217
0.448000000000000231,6.318505673893899832
0.449000000000000232,6.324222610868075911
0.450000000000000233,6.327296347343208893
0.451000000000000234,6.327756190563645688
0.452000000000000235,6.325633041698226933
0.453000000000000236,6.320959326719051141
0.454000000000000237,6.313768927506947293
0.455000000000000238,6.304097113280379361
0.456000000000000238,6.291980472438977401
0.457000000000000239,6.277456844907971956
0.458000000000000240,6.260565255064698853
0.459000000000000241,6.241345845323406749
0.460000000000000242,6.219839810449945716
0.461000000000000243,6.196089332673094141
0.462000000000000244,6.170137517654890935
0.463000000000000245,6.142028331377849426
0.464000000000000246,6.111806538002689138
0.465000000000000246,6.079517638746066766
0.466000000000000247,6.045207811823791744
0.467000000000000248,6.008923853501132228
0.468000000000000249,5.970713120288063003
0.469000000000000250,5.930623472313682143
0.470000000000000251,5.888703217910601140
0.471000000000000252,5.845001059436713220
0.472000000000000253,5.799566040358484997
0.473000000000000254,5.752447493616984708
0.474000000000000254,5.703694991294709915
0.475000000000000255,5.653358295598554406
0.476000000000000256,5.601487311171532646
0.477000000000000257,5.548132038743283978
0.478000000000000258,5.493342530126794188
0.479000000000000259,5.437168844566720338
0.480000000000000260,5.379661006442069571
0.481000000000000261,5.320868964324193762
0.482000000000000262,5.260842551388824617
0.483000000000000262,5.199631447179155153
0.484000000000000263,5.137285140714948461
0.485000000000000264,5.073852894941214942
0.486000000000000265,5.009383712508111763
0.487000000000000266,4.943926302872468703
0.488000000000000267,4.877529050709824787
0.489000000000000268,4.810239985624425785
0.490000000000000269,4.742106753143683129
0.491000000000000270,4.673176586982131120
0.492000000000000270,4.603496282559086161
0.493000000000000271,4.533112171753076680
0.494000000000000272,4.462070098875402735
0.495000000000000273,4.390415397843935530
0.496000000000000274,4.318192870538110739
0.497000000000000275,4.245446766314820763
0.498000000000000276,4.172220762664493598
0.499000000000000277,4.098557946986279177
0.500000000000000222,4.024500799460261291
0.501000000000000334,3.950091176994747766
0.502000000000000224,3.875370298225848220
0.503000000000000336,3.800378729546324053
0.504000000000000226,3.725156372140704608
0.505000000000000338,3.649742450002734895
0.506000000000000227,3.574175498911972060
0.507000000000000339,3.498493356345135030
0.508000000000000229,3.422733152298775394
0.509000000000000341,3.346931300998643444
0.510000000000000231,3.271123493472308130
0.511000000000000343,3.195344690960295164
0.512000000000000233,3.119629119142333984
0.513000000000000345,3.044010263154110607
0.514000000000000234,2.968520863371233443
0.515000000000000346,2.893192911936061762
0.516000000000000236,2.818057650004355708
0.517000000000000348,2.743145565687715504
0.518000000000000238,2.668486392669147111
0.519000000000000350,2.594109109468099028
0.520000000000000240,2.520041939332794634
0.521000000000000352,2.446312350736728369
0.522000000000000242,2.372947058457597791
0.523000000000000353,2.299972025216111327
0.524000000000000243,2.227412463853593483
0.525000000000000355,2.155292840026423740
0.526000000000000245,2.083636875396833510
0.527000000000000357,2.012467551298779966
0.528000000000000247,1.941807112859115891
0.529000000000000359,1.871677073553538406
0.530000000000000249,1.802098220178101062
0.531000000000000361,1.733090618216677870
0.532000000000000250,1.664673617585849197
0.533000000000000362,1.596865858738265143
0.534000000000000252,1.529685279106952622
0.535000000000000364,1.463149119872133586
0.536000000000000254,1.397273933033993831
0.537000000000000366,1.332075588773748764
0.538000000000000256,1.267569283087082388
0.539000000000000368,1.203769545673313290
0.540000000000000258,1.140690248065044488
0.541000000000000369,1.078344611982403167
0.542000000000000259,1.016745217897572662
0.543000000000000371,0.955904013794459773
0.544000000000000261,0.895832324109809841
0.545000000000000373,0.836540858841740564
0.546000000000000263,0.778039722812575940
0.547000000000000375,0.720338425072648780
0.548000000000000265,0.663445888433003561
0.549000000000000377,0.607370459114204064
0.550000000000000266,0.552119916499988372
0.551000000000000378,0.497701482983826771
0.552000000000000268,0.444121833897697549
0.553000000000000380,0.391387107512036925
0.554000000000000270,0.339502915096803637
0.555000000000000382,0.288474351033345788
0.556000000000000272,0.238306002967717312
0.557000000000000384,0.189001961995883649
0.558000000000000274,0.140565832872019847
0.559000000000000385,0.093000744231128321
0.560000000000000275,0.046309358817803556
0.561000000000000387,0.000493883712975018
0.562000000000000277,-0.044443919448811188
0.563000000000000389,-0.088502724279235376
0.564000000000000279,-0.131681629459908800
0.565000000000000391,-0.173980148597033590
0.566000000000000281,-0.215398200113178534
0.567000000000000393,-0.255936097182663080
0.568000000000000282,-0.295594537716184269
0.569000000000000394,-0.334374594400611458
0.570000000000000284,-0.372277704798990083
0.571000000000000396,-0.409305661516271513
0.572000000000000286,-0.445460602435238939
0.573000000000000398,-0.480745001027567287
0.574000000000000288,-0.515161656744149044
0.575000000000000400,-0.548713685489052971
0.576000000000000290,-0.581404510180786871
0.577000000000000401,-0.613237851404831891
0.578000000000000291,-0.644217718160653541
0.579000000000000403,-0.674348398706694496
0.580000000000000293,-0.703634451506203629
0.581000000000000405,-0.732080696276987908
0.582000000000000295,-0.759692205147503019
0.583000000000000407,-0.786474293922062917
0.584000000000000297,-0.812432513457160832
0.585000000000000409,-0.837572641151343000
0.586000000000000298,-0.861900672550317326
0.587000000000000410,-0.885422813069329351
0.588000000000000300,-0.908145469834231833
0.589000000000000412,-0.930075243642945138
0.590000000000000302,-0.951218921048430088
0.591000000000000414,-0.971583466564552189
0.592000000000000304,-0.991176014995763688
0.593000000000000416,-1.010003863891579812
0.594000000000000306,-1.028074466126611686
0.595000000000000417,-1.045395422606891334
0.596000000000000307,-1.061974475102907878
0.597000000000000419,-1.077819499209920595
0.598000000000000309,-1.092938497435800294
0.599000000000000421,-1.107339592416606067
0.600000000000000311,-1.121031020260050193
0.601000000000000423,-1.134021124016869608
0.602000000000000313,-1.146318347279926098
0.603000000000000425,-1.157931227911063399
0.604000000000000314,-1.168868391895227843
0.605000000000000426,-1.179138547321733066
0.606000000000000316,-1.188750478492091922
0.607000000000000428,-1.197713040154018138
0.608000000000000318,-1.206035151861016619
0.609000000000000430,-1.213725792456903596
0.610000000000000320,-1.220793994684590045
0.611000000000000432,-1.227248839918364309
0.612000000000000322,-1.233099453018859482
0.613000000000000433,-1.238354997309817129
0.614000000000000323,-1.243024669675772964
0.615000000000000435,-1.247117695779633051
0.616000000000000325,-1.250643325399131367
0.617000000000000437,-1.253610827881173728
0.618000000000000327,-1.256029487712845283
0.619000000000000439,-1.257908600208037742
0.620000000000000329,-1.259257467308472211
0.621000000000000441,-1.260085393497886397
0.622000000000000330,-1.260401681828181575
0.623000000000000442,-1.260215630056225500
0.624000000000000332,-1.259536526889989405
0.625000000000000444,-1.258373648342734574
0.626000000000000334,-1.256736254193862923
0.627000000000000446,-1.254633584555053805
0.628000000000000336,-1.252074856540315473
0.629000000000000448,-1.249069261038527667
0.630000000000000338,-1.245625959587028486
0.631000000000000449,-1.241754081344836447
0.632000000000000339,-1.237462720164044239
0.633000000000000451,-1.232760931757880485
0.634000000000000341,-1.227657730964017979
0.635000000000000453,-1.222162089101619831
0.636000000000000343,-1.216282931420622493
0.637000000000000455,-1.210029134641779525
0.638000000000000345,-1.203409524585953516
0.639000000000000457,-1.196432873891146498
0.640000000000000346,-1.189107899815800673
0.641000000000000458,-1.181443262126803173
0.642000000000000348,-1.173447561070767975
0.643000000000000460,-1.165129335426993817
0.644000000000000350,-1.156497060640722330
0.645000000000000462,-1.147559147035051019
0.646000000000000352,-1.138323938100160415
0.647000000000000464,-1.128799708858237771
0.648000000000000353,-1.118994664302731312
0.649000000000000465,-1.108916937910325640
0.650000000000000355,-1.098574590224345560
0.651000000000000467,-1.087975607507930098
0.652000000000000357,-1.077127900465745913
0.653000000000000469,-1.066039303032554120
0.654000000000000359,-1.054717571227461237
0.655000000000000471,-1.043170382072218239
0.656000000000000361,-1.031405332572302935
0.657000000000000473,-1.019429938759288445
0.658000000000000362,-1.007251634793217665
0.659000000000000474,-0.994877772123517246
0.660000000000000364,-0.982315618707169991
0.661000000000000476,-0.969572358282731472
0.662000000000000366,-0.956655089698950745
0.663000000000000478,-0.943570826296562415
0.664000000000000368,-0.930326495342084336
0.665000000000000480,-0.916928937512214937
0.666000000000000369,-0.903384906427641687
0.667000000000000481,-0.889701068234962422
