# AuFCC100-Ablate75_PROPANE-AC
# h[nm],U(h)[kJ/mol]
0.149999999999999994,159.921824296693898759
0.150999999999999995,157.784762966092273473
0.151999999999999996,153.493084135310056126
0.152999999999999997,148.788182331439713835
0.153999999999999998,144.364805390609120650
0.154999999999999999,140.389554255279847439
0.156000000000000000,136.797844690493263897
0.157000000000000001,133.453681768381159145
0.158000000000000002,130.227257476155841687
0.159000000000000002,127.025546578418811805
0.160000000000000003,123.797834064826901113
0.161000000000000004,120.529400981379964719
0.162000000000000005,117.230977873804675937
0.163000000000000006,113.928036884729777967
0.164000000000000007,110.651835436077860209
0.165000000000000008,107.432866360044812382
0.166000000000000009,104.296685307115495789
0.167000000000000010,101.261757688230602525
0.168000000000000010,98.338850066816775097
0.169000000000000011,95.531491511251672932
0.170000000000000012,92.837090163958833955
0.171000000000000013,90.248373445040144247
0.172000000000000014,87.754906281426997339
0.173000000000000015,85.344519641131981302
0.174000000000000016,83.004546604585655700
0.175000000000000017,80.722813973092257811
0.176000000000000018,78.488374759210771003
0.177000000000000018,76.291992579949223341
0.178000000000000019,74.126405104039093885
0.179000000000000020,71.986402415013444056
0.180000000000000021,69.868759374246707239
0.181000000000000022,67.772060450752263705
0.182000000000000023,65.696452367362056179
0.183000000000000024,63.643355340475935122
0.184000000000000025,61.615158444267819959
0.185000000000000026,59.614919268664678498
0.186000000000000026,57.646082940990268639
0.187000000000000027,55.712230979080004545
0.188000000000000028,53.816866466276778169
0.189000000000000029,51.963238734577466005
0.190000000000000030,50.154208104802862067
0.191000000000000031,48.392149219208874911
0.192000000000000032,46.678890047772242156
0.193000000000000033,45.015682678704813213
0.194000000000000034,43.403201437458676537
0.195000000000000034,41.841563639439478095
0.196000000000000035,40.330368298164316343
0.197000000000000036,38.868748318471020298
0.198000000000000037,37.455432047869379630
0.199000000000000038,36.088810491185036256
0.200000000000000039,34.767006975670753377
0.201000000000000040,33.487946554954170608
0.202000000000000041,32.249422936782664806
0.203000000000000042,31.049161193873594300
0.204000000000000042,29.884874956859057704
0.205000000000000043,28.754317185259782974
0.206000000000000044,27.655323962084469969
0.207000000000000045,26.585851058284823978
0.208000000000000046,25.544003265299132011
0.209000000000000047,24.528056699282299036
0.210000000000000048,23.536474442460708190
0.211000000000000049,22.567916009221431040
0.212000000000000050,21.621241211318675823
0.213000000000000050,20.695509052416376505
0.214000000000000051,19.789972311520887871
0.215000000000000052,18.904068481985724759
0.216000000000000053,18.037407721725209342
0.217000000000000054,17.189758444771296553
0.218000000000000055,16.361031147704093058
0.219000000000000056,15.551261019756784876
0.220000000000000057,14.760589835130939917
0.221000000000000058,13.989247572487428783
0.222000000000000058,13.237534151559188444
0.223000000000000059,12.505801621915917821
0.224000000000000060,11.794437085328805637
0.225000000000000061,11.103846581910577385
0.226000000000000062,10.434440121973006299
0.227000000000000063,9.786618000874323542
0.228000000000000064,9.160758493370533273
0.229000000000000065,8.557206987328836334
0.230000000000000066,7.976266584182726938
0.231000000000000066,7.418190165169695760
0.232000000000000067,6.883173898084324449
0.233000000000000068,6.371352138821320565
0.234000000000000069,5.882793665154115281
0.235000000000000070,5.417499166735758820
0.236000000000000071,4.975399904942672258
0.237000000000000072,4.556357448617167627
0.238000000000000073,4.160164386707968731
0.239000000000000073,3.786545915969618648
0.240000000000000074,3.435162200975106828
0.241000000000000075,3.105611404455463465
0.242000000000000076,2.797433288145864783
0.243000000000000077,2.510113287653686687
0.244000000000000078,2.243086969148746057
0.245000000000000079,1.995744780710624555
0.246000000000000080,1.767437016769499492
0.247000000000000081,1.557478920084430341
0.248000000000000081,1.365155851973406609
0.249000000000000082,1.189728467917332555
0.250000000000000111,1.030437842096946444
0.251000000000000112,0.886510490796366568
0.252000000000000113,0.757163250840557134
0.253000000000000114,0.641607975265225394
0.254000000000000115,0.539056014191604094
0.255000000000000115,0.448722454358971401
0.256000000000000116,0.369830095920582635
0.257000000000000117,0.301613149915170520
0.258000000000000118,0.243320644271297765
0.259000000000000119,0.194219530278720687
0.260000000000000120,0.153597485168076642
0.261000000000000121,0.120765409782363345
0.262000000000000122,0.095059623306673308
0.263000000000000123,0.075843759659473514
0.264000000000000123,0.062510372451325583
0.265000000000000124,0.054482257403032364
0.266000000000000125,0.051213502800033693
0.267000000000000126,0.052190279964526451
0.268000000000000127,0.056931386868056322
0.269000000000000128,0.064988558906970084
0.270000000000000129,0.075946561539338653
0.271000000000000130,0.089423079955597909
0.272000000000000131,0.105068421244185292
0.273000000000000131,0.122565044638049334
0.274000000000000132,0.141626935404323528
0.275000000000000133,0.161998837786513056
0.276000000000000134,0.183455362141618755
0.277000000000000135,0.205799981049150038
0.278000000000000136,0.228863928719940546
0.279000000000000137,0.252505017513104946
0.280000000000000138,0.276606384791483084
0.281000000000000139,0.301075182722051526
0.282000000000000139,0.325841222967081401
0.283000000000000140,0.350855587524994128
0.284000000000000141,0.376089216275020788
0.285000000000000142,0.401531481064331786
0.286000000000000143,0.427188755457872715
0.287000000000000144,0.453082988555343402
0.288000000000000145,0.479250290571570592
0.289000000000000146,0.505739537181759125
0.290000000000000147,0.532610998954189840
0.291000000000000147,0.559935001534752397
0.292000000000000148,0.587790621611672059
0.293000000000000149,0.616264423078422219
0.294000000000000150,0.645449237229309025
0.295000000000000151,0.675442990266551968
0.296000000000000152,0.706347580872392800
0.297000000000000153,0.738267810103398259
0.298000000000000154,0.771310365399276332
0.299000000000000155,0.805582860063342565
0.300000000000000155,0.841192929167454695
0.301000000000000156,0.878247382459977688
0.302000000000000157,0.916851414510265195
0.303000000000000158,0.957107872007312510
0.304000000000000159,0.999116577841908438
0.305000000000000160,1.042973711341195209
0.306000000000000161,1.088771243789125487
0.307000000000000162,1.136596428156809946
0.308000000000000163,1.186531341780801219
0.309000000000000163,1.238652480563771530
0.310000000000000164,1.293030403130522199
0.311000000000000165,1.349729423250721094
0.312000000000000166,1.408807348737108445
0.313000000000000167,1.470315264943527822
0.314000000000000168,1.534297360919106401
0.315000000000000169,1.600790796222441470
0.316000000000000170,1.669825606361503123
0.317000000000000171,1.741424644799986599
0.318000000000000171,1.815603559458158101
0.319000000000000172,1.892370801634366329
0.320000000000000173,1.971727665281680641
0.321000000000000174,2.053668354591764000
0.322000000000000175,2.138180077863418127
0.323000000000000176,2.225243165666324963
0.324000000000000177,2.314831211349907214
0.325000000000000178,2.406911231992332922
0.326000000000000179,2.501443847934597287
0.327000000000000179,2.598383479099241278
0.328000000000000180,2.697678556351211121
0.329000000000000181,2.799271746218832568
0.330000000000000182,2.903100187357413819
0.331000000000000183,3.009095737202236887
0.332000000000000184,3.117185227325499408
0.333000000000000185,3.227290726079214522
0.334000000000000186,3.339329807174818310
0.335000000000000187,3.453215822919025957
0.336000000000000187,3.568858180894248111
0.337000000000000188,3.686162622940268196
0.338000000000000189,3.805031505361566868
0.339000000000000190,3.925364079351589375
0.340000000000000191,4.047056770691155769
0.341000000000000192,4.170003457842170747
0.342000000000000193,4.294095747621609505
0.343000000000000194,4.419223247701268065
0.344000000000000195,4.545273835239243887
0.345000000000000195,4.672133921006325075
0.346000000000000196,4.799688708426864459
0.347000000000000197,4.927822447007460305
0.348000000000000198,5.056418679678609251
0.349000000000000199,5.185360483624636529
0.350000000000000200,5.314530704224488034
0.351000000000000201,5.443812181772121228
0.352000000000000202,5.573087970688210824
0.353000000000000203,5.702241550976525630
0.354000000000000203,5.831157031717627781
0.355000000000000204,5.959719346429464437
0.356000000000000205,6.087814440159737828
0.357000000000000206,6.215329448207936203
0.358000000000000207,6.342152866405996292
0.359000000000000208,6.468174712915706337
0.360000000000000209,6.593286681528184090
0.361000000000000210,6.717382286476220266
0.362000000000000210,6.840356998793825305
0.363000000000000211,6.962108374279201151
0.364000000000000212,7.082536173137538249
0.365000000000000213,7.201542471398677314
0.366000000000000214,7.319031764221582748
0.367000000000000215,7.434911061213213657
0.368000000000000216,7.549089973903337025
0.369000000000000217,7.661480795529696408
0.370000000000000218,7.771998573299194746
0.371000000000000218,7.880561173301069644
0.372000000000000219,7.987089338256859961
0.373000000000000220,8.091506738299960588
0.374000000000000221,8.193740014984147280
0.375000000000000222,8.293718818726452113
0.376000000000000223,8.391375839894397615
0.377000000000000224,8.486646833751656516
0.378000000000000225,8.579470639479067628
0.379000000000000226,8.669789193490570867
0.380000000000000226,8.757547537264754212
0.381000000000000227,8.842693819913938214
0.382000000000000228,8.925179295712656113
0.383000000000000229,9.004958316807101681
0.384000000000000230,9.081988321326345925
0.385000000000000231,9.156229817114240888
0.386000000000000232,9.227646361299537858
0.387000000000000233,9.296204535918970890
0.388000000000000234,9.361873919805592692
0.389000000000000234,9.424627056951338844
0.390000000000000235,9.484439421549582860
0.391000000000000236,9.541289379919476232
0.392000000000000237,9.595158149510195855
0.393000000000000238,9.646029755178702203
0.394000000000000239,9.693890982930408740
0.395000000000000240,9.738731331307544536
0.396000000000000241,9.780542960605108860
0.397000000000000242,9.819320640089644670
0.398000000000000242,9.855061693390883448
0.399000000000000243,9.887765942231343530
0.400000000000000244,9.917435648653974312
0.401000000000000245,9.944075455902185112
0.402000000000000246,9.967692328102206289
0.403000000000000247,9.988295488891743901
0.404000000000000248,10.005896359133997109
0.405000000000000249,10.020508493850863729
0.406000000000000250,10.032147518503757411
0.407000000000000250,10.040831064745422196
0.408000000000000251,10.046578705761000094
0.409000000000000252,10.049411891311262224
0.410000000000000253,10.049353882586274267
0.411000000000000254,10.046429686972389916
0.412000000000000255,10.040665992830897224
0.413000000000000256,10.032091104381603230
0.414000000000000257,10.020734876780082345
0.415000000000000258,10.006628651472507130
0.416000000000000258,9.989805191907727533
0.417000000000000259,9.970298619681443597
0.418000000000000260,9.948144351183353606
0.419000000000000261,9.923379034813745392
0.420000000000000262,9.896040488831884474
0.421000000000000263,9.866167639894639407
0.422000000000000264,9.833800462339853610
0.423000000000000265,9.798979918265228406
0.424000000000000266,9.761747898449712579
0.425000000000000266,9.722147164161054178
0.426000000000000267,9.680221289889574976
0.427000000000000268,9.636014607044984359
0.428000000000000269,9.589572148649869732
0.429000000000000270,9.540939595060425660
0.430000000000000271,9.490163220741900219
0.431000000000000272,9.437289842123647077
0.432000000000000273,9.382366766555600535
0.433000000000000274,9.325441742385697452
0.434000000000000274,9.266562910174876322
0.435000000000000275,9.205778755064311980
0.436000000000000276,9.143138060306814197
0.437000000000000277,9.078689861972382147
0.438000000000000278,9.012483404835688106
0.439000000000000279,8.944568099451341681
0.440000000000000280,8.874993480420680925
0.441000000000000281,8.803809165852417351
0.442000000000000282,8.731064818017177487
0.443000000000000282,8.656810105194931992
0.444000000000000283,8.581094664712319187
0.445000000000000284,8.503968067165640576
0.446000000000000285,8.425479781823913328
0.447000000000000286,8.345679143204922212
0.448000000000000287,8.264615318816211698
0.449000000000000288,8.182337278051633689
0.450000000000000289,8.098893762233069893
0.451000000000000290,8.014333255786002752
0.452000000000000290,7.928703958536591934
0.453000000000000291,7.842053759117051825
0.454000000000000292,7.754430209465446922
0.455000000000000293,7.665880500405054754
0.456000000000000294,7.576451438288069440
0.457000000000000295,7.486189422687511197
0.458000000000000296,7.395140425120755090
0.459000000000000297,7.303349968787733459
0.460000000000000298,7.210863109305964080
0.461000000000000298,7.117724416424785261
0.462000000000000299,7.023977956700067971
0.463000000000000300,6.929667277111027701
0.464000000000000301,6.834835389599940747
0.465000000000000302,6.739524756515780091
0.466000000000000303,6.643777276942058663
0.467000000000000304,6.547634273889590517
0.468000000000000305,6.451136482334211664
0.469000000000000306,6.354324038079750991
0.470000000000000306,6.257236467426326776
0.471000000000000307,6.159912677623978539
0.472000000000000308,6.062390948091737286
0.473000000000000309,5.964708922382118139
0.474000000000000310,5.866903600871255620
0.475000000000000311,5.769011334154548365
0.476000000000000312,5.671067817128527366
0.477000000000000313,5.573108083738715024
0.478000000000000314,5.475166502374413824
0.479000000000000314,5.377276771890761253
0.480000000000000315,5.279471918238907158
0.481000000000000316,5.181784291685238131
0.482000000000000317,5.084245564600793799
0.483000000000000318,4.986886729802177953
0.484000000000000319,4.889738099425541051
0.485000000000000320,4.792829304315417538
0.486000000000000321,4.696189293910406626
0.487000000000000322,4.599846336608008457
0.488000000000000322,4.503828020591056358
0.489000000000000323,4.408161255098717035
0.490000000000000324,4.312872272124884887
0.491000000000000325,4.217986628527529369
0.492000000000000326,4.123529208532485946
0.493000000000000327,4.029524226615737170
0.494000000000000328,3.935995230748287277
0.495000000000000329,3.842965105988255026
0.496000000000000330,3.750456078404958760
0.497000000000000330,3.658489719320127787
0.498000000000000331,3.567086949851669964
0.499000000000000332,3.476268045745888990
0.500000000000000333,3.386052642483954322
0.501000000000000334,3.296459740649233972
0.502000000000000335,3.207507711542058271
0.503000000000000336,3.119214303029010260
0.504000000000000337,3.031596645613917840
0.505000000000000338,2.944671258718337015
0.506000000000000338,2.858454057159355965
0.507000000000000339,2.772960357812977783
0.508000000000000340,2.688204886451665665
0.509000000000000341,2.604201784744934134
0.510000000000000342,2.520964617412066566
0.511000000000000343,2.438506379516470979
0.512000000000000344,2.356839503891435150
0.513000000000000345,2.275975868687351689
0.514000000000000346,2.195926805030654183
0.515000000000000346,2.116703104785260248
0.516000000000000347,2.038315028407291951
0.517000000000000348,1.960772312884364821
0.518000000000000349,1.884084179750824095
0.519000000000000350,1.808259343170820710
0.520000000000000351,1.733306018081056887
0.521000000000000352,1.659231928385630273
0.522000000000000353,1.586044315195483501
0.523000000000000353,1.513749945105128392
0.524000000000000354,1.442355118499938360
0.525000000000000355,1.371865677887006640
0.526000000000000356,1.302287016243379059
0.527000000000000357,1.233624085375275348
0.528000000000000358,1.165881404282245404
0.529000000000000359,1.099063067520770209
0.530000000000000360,1.033172753561441670
0.531000000000000361,0.968213733134621557
0.532000000000000361,0.904188877559344739
0.533000000000000362,0.841100667050681539
0.534000000000000363,0.778951199000767147
0.535000000000000364,0.717742196229036677
0.536000000000000365,0.657475015197422352
0.537000000000000366,0.598150654186329844
0.538000000000000367,0.539769761427530415
0.539000000000000368,0.482332643190213628
0.540000000000000369,0.425839271816626841
0.541000000000000369,0.370289293703955136
0.542000000000000370,0.315682037229207624
0.543000000000000371,0.262016520614026305
0.544000000000000372,0.209291459726575452
0.545000000000000373,0.157505275817765938
0.546000000000000374,0.106656103189167475
0.547000000000000375,0.056741796790269874
0.548000000000000376,0.007759939742709254
0.549000000000000377,-0.040292149210619410
0.550000000000000377,-0.087417408333701180
0.551000000000000378,-0.133619025604523156
0.552000000000000379,-0.178900431503100366
0.553000000000000380,-0.223265291881939554
0.554000000000000381,-0.266717500920519879
0.555000000000000382,-0.309261174165191499
0.556000000000000383,-0.350900641655754852
0.557000000000000384,-0.391640441139961104
0.558000000000000385,-0.431485311376968217
0.559000000000000385,-0.470440185530777988
0.560000000000000386,-0.508510184654503261
0.561000000000000387,-0.545700611266284441
0.562000000000000388,-0.582016943017522936
0.563000000000000389,-0.617464826454113491
0.564000000000000390,-0.652050070871085796
0.565000000000000391,-0.685778642261230198
0.566000000000000392,-0.718656657357988893
0.567000000000000393,-0.750690377772934125
0.568000000000000393,-0.781886204228044557
0.569000000000000394,-0.812250670882957770
0.570000000000000395,-0.841790439757244657
0.571000000000000396,-0.870512295247720891
0.572000000000000397,-0.898423138740806038
0.573000000000000398,-0.925529983319774763
0.574000000000000399,-0.951839948566731264
0.575000000000000400,-0.977360255459169602
0.576000000000000401,-1.002098221360738561
0.577000000000000401,-1.026061255106012648
0.578000000000000402,-1.049256852178821031
0.579000000000000403,-1.071692589983754162
0.580000000000000404,-1.093376123210415773
0.581000000000000405,-1.114315179289881774
0.582000000000000406,-1.134517553942894663
0.583000000000000407,-1.153991106819131307
0.584000000000000408,-1.172743757227077799
0.585000000000000409,-1.190783479953709811
0.586000000000000409,-1.208118301173433995
0.587000000000000410,-1.224756294445563665
0.588000000000000411,-1.240705576799516319
0.589000000000000412,-1.255974304907128358
0.590000000000000413,-1.270570671341159752
0.591000000000000414,-1.284502900919270774
0.592000000000000415,-1.297779247132641256
0.593000000000000416,-1.310407988658332412
0.594000000000000417,-1.322397425954591865
0.595000000000000417,-1.333755877938175516
0.596000000000000418,-1.344491678742792518
0.597000000000000419,-1.354613174557786959
0.598000000000000420,-1.364128720546078144
0.599000000000000421,-1.373046677840460195
0.600000000000000422,-1.381375410617299071
0.601000000000000423,-1.389123283246612273
0.602000000000000424,-1.396298657517639041
0.603000000000000425,-1.402909889938890542
0.604000000000000425,-1.408965329111604214
0.605000000000000426,-1.414473313175749425
0.606000000000000427,-1.419442167327476856
0.607000000000000428,-1.423880201407019097
0.608000000000000429,-1.427795707556089866
0.609000000000000430,-1.431196957943661641
0.610000000000000431,-1.434092202559225981
0.611000000000000432,-1.436489667072399445
0.612000000000000433,-1.438397550757935628
0.613000000000000433,-1.439824024485102605
0.614000000000000434,-1.440777228770378171
0.615000000000000435,-1.441265271892449240
0.616000000000000436,-1.441296228068542629
0.617000000000000437,-1.440878135691018302
0.618000000000000438,-1.440018995623220999
0.619000000000000439,-1.438726769553593243
