# AuFCC100-Ablate75_ASPPSCA-AC
# h[nm],U(h)[kJ/mol]
0.200000000000000011,75.192742079031887670
0.201000000000000012,69.403305949649862328
0.202000000000000013,66.241776123695800038
0.203000000000000014,64.255429648371560347
0.204000000000000015,62.637588862097757669
0.205000000000000016,60.987221134722759075
0.206000000000000016,59.146462974956556025
0.207000000000000017,57.093378311353511378
0.208000000000000018,54.873338738165330142
0.209000000000000019,52.556965625555925214
0.210000000000000020,50.215964553228793932
0.211000000000000021,47.910692163074116934
0.212000000000000022,45.685139839413871243
0.213000000000000023,43.566362787005260770
0.214000000000000024,41.566353229848047590
0.215000000000000024,39.685048597777722534
0.216000000000000025,37.913652477946314434
0.217000000000000026,36.237782712529373441
0.218000000000000027,34.640188575169034380
0.219000000000000028,33.102928265193575896
0.220000000000000029,31.608991880748600778
0.221000000000000030,30.143410405744248237
0.222000000000000031,28.693920362127403934
0.223000000000000032,27.251265518399815591
0.224000000000000032,25.809217742429705567
0.225000000000000033,24.364393190522839916
0.226000000000000034,22.915930598346911040
0.227000000000000035,21.465087536337041030
0.228000000000000036,20.014799439940659909
0.229000000000000037,18.569235835263466328
0.230000000000000038,17.133378905729877317
0.231000000000000039,15.712641592823876735
0.232000000000000040,14.312535839825125450
0.233000000000000040,12.938396315865256625
0.234000000000000041,11.595160883159133292
0.235000000000000042,10.287206047103932605
0.236000000000000043,9.018233500634298849
0.237000000000000044,7.791202486516347392
0.238000000000000045,6.608301909969722665
0.239000000000000046,5.470955809425283256
0.240000000000000047,4.379855822134582688
0.241000000000000048,3.335014567417190712
0.242000000000000048,2.335834333482009750
0.243000000000000049,1.381186028906045804
0.244000000000000050,0.469493995344744175
0.245000000000000051,-0.401177066091497891
0.246000000000000052,-1.233036156090016933
0.247000000000000053,-2.028483512261802790
0.248000000000000054,-2.790033535303843237
0.249000000000000055,-3.520244509485359607
0.250000000000000056,-4.221656066955017828
0.251000000000000056,-4.896734953182368955
0.252000000000000057,-5.547829319286694982
0.253000000000000058,-6.177131493269854445
0.254000000000000059,-6.786648962225484638
0.255000000000000060,-7.378183126623348187
0.256000000000000061,-7.953315260530194664
0.257000000000000062,-8.513399022742351718
0.258000000000000063,-9.059558807955932380
0.259000000000000064,-9.592693199185326591
0.260000000000000064,-10.113482777880706820
0.261000000000000065,-10.622401562197495650
0.262000000000000066,-11.119731372671859404
0.263000000000000067,-11.605578464628836244
0.264000000000000068,-12.079891814912949499
0.265000000000000069,-12.542482504324322434
0.266000000000000070,-12.993043694209736927
0.267000000000000071,-13.431170754115564492
0.268000000000000071,-13.856381155712806930
0.269000000000000072,-14.268133805118997870
0.270000000000000073,-14.665847540299932206
0.271000000000000074,-15.048918571710089509
0.272000000000000075,-15.416736692202746895
0.273000000000000076,-15.768700126161315112
0.274000000000000077,-16.104228927576375696
0.275000000000000078,-16.422776872339959198
0.276000000000000079,-16.723841821374584526
0.277000000000000079,-17.006974558462722769
0.278000000000000080,-17.271786129955732036
0.279000000000000081,-17.517953733133488470
0.280000000000000082,-17.745225216099065335
0.281000000000000083,-17.953422264994436830
0.282000000000000084,-18.142442364292008961
0.283000000000000085,-18.312259623236045059
0.284000000000000086,-18.462924566461232700
0.285000000000000087,-18.594562989677804410
0.286000000000000087,-18.707373982349974284
0.287000000000000088,-18.801627218759801252
0.288000000000000089,-18.877659616977968682
0.289000000000000090,-18.935871462279028066
0.290000000000000091,-18.976722087641231695
0.291000000000000092,-19.000725199348256211
0.292000000000000093,-19.008443930526485843
0.293000000000000094,-19.000485699857968314
0.294000000000000095,-18.977496946837277392
0.295000000000000095,-18.940157808907326142
0.296000000000000096,-18.889176799714949340
0.297000000000000097,-18.825285541658818289
0.298000000000000098,-18.749233599932967564
0.299000000000000099,-18.661783459460544066
0.300000000000000100,-18.563705680513812979
0.301000000000000101,-18.455774263468050833
0.302000000000000102,-18.338762248070104022
0.303000000000000103,-18.213437567839445563
0.304000000000000103,-18.080559175776411251
0.305000000000000104,-17.940873453439088792
0.306000000000000105,-17.795110911671063292
0.307000000000000106,-17.643983187815802438
0.308000000000000107,-17.488180341137411489
0.309000000000000108,-17.328368445372472451
0.310000000000000109,-17.165187474854892713
0.311000000000000110,-16.999249478472041375
0.312000000000000111,-16.831137033812595405
0.313000000000000111,-16.661401972238476077
0.314000000000000112,-16.490564364240029249
0.315000000000000113,-16.319111753296624556
0.316000000000000114,-16.147498625549850715
0.317000000000000115,-15.976146101883164974
0.318000000000000116,-15.805441838475804417
0.319000000000000117,-15.635740121542511361
0.320000000000000118,-15.467362141766937356
0.321000000000000119,-15.300596433871731961
0.322000000000000119,-15.135699466825538906
0.323000000000000120,-14.972896370353169004
0.324000000000000121,-14.812381783675906632
0.325000000000000122,-14.654320812752194669
0.326000000000000123,-14.498850082701867592
0.327000000000000124,-14.346078872569602680
0.328000000000000125,-14.196090320104650218
0.329000000000000126,-14.048942684794102576
0.330000000000000127,-13.904670657978291715
0.331000000000000127,-13.763286709491177717
0.332000000000000128,-13.624782460897801428
0.333000000000000129,-13.489130076039979045
0.334000000000000130,-13.356283660243326139
0.335000000000000131,-13.226180660179561954
0.336000000000000132,-13.098743257011992824
0.337000000000000133,-12.973879746076400821
0.338000000000000134,-12.851485896960037181
0.339000000000000135,-12.731446288435744663
0.340000000000000135,-12.613635613283161518
0.341000000000000136,-12.497919948583554373
0.342000000000000137,-12.384157987606194240
0.343000000000000138,-12.272202229912307914
0.344000000000000139,-12.161900126785287313
0.345000000000000140,-12.053095179553592331
0.346000000000000141,-11.945627988803900976
0.347000000000000142,-11.839337252887485619
0.348000000000000143,-11.734060714502053457
0.349000000000000143,-11.629636054484130625
0.350000000000000144,-11.525901732274903111
0.351000000000000145,-11.422697772824610851
0.352000000000000146,-11.319866499978513019
0.353000000000000147,-11.217253216641399405
0.354000000000000148,-11.114706832248582913
0.355000000000000149,-11.012080438279848948
0.356000000000000150,-10.909231832740413637
0.357000000000000151,-10.806023994699639701
0.358000000000000151,-10.702325510126058816
0.359000000000000152,-10.598010950386077766
0.360000000000000153,-10.492961204885666859
0.361000000000000154,-10.387063769429385474
0.362000000000000155,-10.280212991950971713
0.363000000000000156,-10.172310277335125051
0.364000000000000157,-10.063264253101744217
0.365000000000000158,-9.952990897763685396
0.366000000000000159,-9.841413633696456387
0.367000000000000159,-9.728463386375453936
0.368000000000000160,-9.614078611843885014
0.369000000000000161,-9.498205294272342059
0.370000000000000162,-9.380796915461463215
0.371000000000000163,-9.261814398121815728
0.372000000000000164,-9.141226024740882750
0.373000000000000165,-9.019007333817663508
0.374000000000000166,-8.895140995209656509
0.375000000000000167,-8.769616666297569196
0.376000000000000167,-8.642430830628942573
0.377000000000000168,-8.513586620654468362
0.378000000000000169,-8.383093626120318831
0.379000000000000170,-8.250967689627007218
0.380000000000000171,-8.117230690809915217
0.381000000000000172,-7.981910320540437809
0.382000000000000173,-7.845039846488271351
0.383000000000000174,-7.706657871327093012
0.384000000000000175,-7.566808084806028845
0.385000000000000175,-7.425539010850063626
0.386000000000000176,-7.282903750792669939
0.387000000000000177,-7.138959723784732425
0.388000000000000178,-6.993768405364943597
0.389000000000000179,-6.847395065118614177
0.390000000000000180,-6.699908504294718625
0.391000000000000181,-6.551380794194388457
0.392000000000000182,-6.401887016089541582
0.393000000000000183,-6.251505003375802616
0.394000000000000183,-6.100315086612186022
0.395000000000000184,-5.948399842048685215
0.396000000000000185,-5.795843844193653283
0.397000000000000186,-5.642733422925395814
0.398000000000000187,-5.489156425606137368
0.399000000000000188,-5.335201984612262471
0.400000000000000189,-5.180960290652582678
0.401000000000000190,-5.026522372204926370
0.402000000000000191,-4.871979881363255771
0.403000000000000191,-4.717424886349512292
0.404000000000000192,-4.562949670909572930
0.405000000000000193,-4.408646540778739187
0.406000000000000194,-4.254607637370400930
0.407000000000000195,-4.100924758811461679
0.408000000000000196,-3.947689188419355677
0.409000000000000197,-3.794991530688966552
0.410000000000000198,-3.642921554832516229
0.411000000000000199,-3.491568045891779271
0.412000000000000199,-3.341018663420043389
0.413000000000000200,-3.191359807710824725
0.414000000000000201,-3.042676493531051296
0.415000000000000202,-2.895052231298809620
0.416000000000000203,-2.748568915629790332
0.417000000000000204,-2.603306721160943304
0.418000000000000205,-2.459344005546831635
0.419000000000000206,-2.316757219511249133
0.420000000000000207,-2.175620823825254568
0.421000000000000207,-2.036007213073086852
0.422000000000000208,-1.897986646057485460
0.423000000000000209,-1.761627182688527471
0.424000000000000210,-1.626994627192392073
0.425000000000000211,-1.494152477470411355
0.426000000000000212,-1.363161880433357620
0.427000000000000213,-1.234081593131204801
0.428000000000000214,-1.106967949495024195
0.429000000000000214,-0.981874832504278316
0.430000000000000215,-0.858853651590619882
0.431000000000000216,-0.737953325087599477
0.432000000000000217,-0.619220267534180246
0.433000000000000218,-0.502698381639846037
0.434000000000000219,-0.388429054718675892
0.435000000000000220,-0.276451159400385227
0.436000000000000221,-0.166801058427110793
0.437000000000000222,-0.059512613346073162
0.438000000000000222,0.045382803090051424
0.439000000000000223,0.147856291001163126
0.440000000000000224,0.247881404120037729
0.441000000000000225,0.345434127375965072
0.442000000000000226,0.440492851499786675
0.443000000000000227,0.533038344825549237
0.444000000000000228,0.623053722460203296
0.445000000000000229,0.710524412989497423
0.446000000000000230,0.795438122884244647
0.447000000000000230,0.877784798767436092
0.448000000000000231,0.957556587698465633
0.449000000000000232,1.034747795626685063
0.450000000000000233,1.109354844162288023
0.451000000000000234,1.181376225808091540
0.452000000000000235,1.250812457791576682
0.453000000000000236,1.317666034632040795
0.454000000000000237,1.381941379573169426
0.455000000000000238,1.443644795007164028
0.456000000000000238,1.502784412011672011
0.457000000000000239,1.559370139116772691
0.458000000000000240,1.613413610414303090
0.459000000000000241,1.664928133117892006
0.460000000000000242,1.713928634677209573
0.461000000000000243,1.760431609545968445
0.462000000000000244,1.804455065698574057
0.463000000000000245,1.846018470986392490
0.464000000000000246,1.885142699420101042
0.465000000000000246,1.921849977460669434
0.466000000000000247,1.956163830397391390
0.467000000000000248,1.988109028887458551
0.468000000000000249,2.017711535727527483
0.469000000000000250,2.044998452924122301
0.470000000000000251,2.069997969125807025
0.471000000000000252,2.092739307476576549
0.472000000000000253,2.113252673946162563
0.473000000000000254,2.131569206189747323
0.474000000000000254,2.147720922986011249
0.475000000000000255,2.161740674299248433
0.476000000000000256,2.173662092008178170
0.477000000000000257,2.183519541340856573
0.478000000000000258,2.191348073052260759
0.479000000000000259,2.197183376378202269
0.480000000000000260,2.201061732796349979
0.481000000000000261,2.203019970622636325
0.482000000000000262,2.203095420468506482
0.483000000000000262,2.201325871582247018
0.484000000000000263,2.197749529094931376
0.485000000000000264,2.192404972189541557
0.486000000000000265,2.185331113209249665
0.487000000000000266,2.176567157719055068
0.488000000000000267,2.166152565532787566
0.489000000000000268,2.154127012715418843
0.490000000000000269,2.140530354569111005
0.491000000000000270,2.125402589609235005
0.492000000000000270,2.108783824535295004
0.493000000000000271,2.090714240199745166
0.494000000000000272,2.071234058576493453
0.495000000000000273,2.050383510729050673
0.496000000000000274,2.028202805777294060
0.497000000000000275,2.004732100860270982
0.498000000000000276,1.980011472091212088
0.499000000000000277,1.954080886500027647
0.500000000000000222,1.926980174957079850
0.501000000000000334,1.898749006071398737
0.502000000000000224,1.869426861055194511
0.503000000000000336,1.839053009545856154
0.504000000000000226,1.807666486375701043
0.505000000000000338,1.775306069278860921
0.506000000000000227,1.742010257524182704
0.507000000000000339,1.707817251462069974
0.508000000000000229,1.672764932972885088
0.509000000000000341,1.636890846803529254
0.510000000000000231,1.600232182778845047
0.511000000000000343,1.562825758873395809
0.512000000000000233,1.524708005129351784
0.513000000000000345,1.485914948405204550
0.514000000000000234,1.446482197940269554
0.515000000000000346,1.406444931719087688
0.516000000000000236,1.365837883620073523
0.517000000000000348,1.324695331331946724
0.518000000000000238,1.283051085021944093
0.519000000000000350,1.240938476738878693
0.520000000000000240,1.198390350534757731
0.521000000000000352,1.155439053287815820
0.522000000000000242,1.112116426210415288
0.523000000000000353,1.068453797024491836
0.524000000000000243,1.024481972788000794
0.525000000000000355,0.980231233354979303
0.526000000000000245,0.935731325452587748
0.527000000000000357,0.891011457357897774
0.528000000000000247,0.846100294157815291
0.529000000000000359,0.801025953575096650
0.530000000000000249,0.755816002343925986
0.531000000000000361,0.710497453118274280
0.532000000000000250,0.665096761896738387
0.533000000000000362,0.619639825947262191
0.534000000000000252,0.574151982215909795
0.535000000000000364,0.528658006203140518
0.536000000000000254,0.483182111292343397
0.537000000000000366,0.437747948514362772
0.538000000000000256,0.392378606733047086
0.539000000000000368,0.347096613236148988
0.540000000000000258,0.301923934716898712
0.541000000000000369,0.256881978631017360
0.542000000000000259,0.211991594915043879
0.543000000000000371,0.167273078051161039
0.544000000000000261,0.122746169464732602
0.545000000000000373,0.078430060240497368
0.546000000000000263,0.034343394143970224
0.547000000000000375,-0.009495729065594982
0.548000000000000265,-0.053069750043357414
0.549000000000000377,-0.096361646001484405
0.550000000000000266,-0.139354926598278306
0.551000000000000378,-0.182033629586580620
0.552000000000000268,-0.224382316233141671
0.553000000000000380,-0.266386066520976350
0.554000000000000270,-0.308030474146010591
0.555000000000000382,-0.349301641319446521
0.556000000000000272,-0.390186173386599555
0.557000000000000384,-0.430671173273060426
0.558000000000000274,-0.470744235768515040
0.559000000000000385,-0.510393441658423153
0.560000000000000275,-0.549607351713373715
0.561000000000000387,-0.588375000545864557
0.562000000000000277,-0.626685890343659846
0.563000000000000389,-0.664529984489086845
0.564000000000000279,-0.701897701072826896
0.565000000000000391,-0.738779906311059831
0.566000000000000281,-0.775167907873996143
0.567000000000000393,-0.811053448134174126
0.568000000000000282,-0.846428697342062719
0.569000000000000394,-0.881286246736828538
0.570000000000000284,-0.915619101599282947
0.571000000000000396,-0.949420674254492725
0.572000000000000286,-0.982684777030555123
0.573000000000000398,-1.015405615180441812
0.574000000000000288,-1.047577779773116280
0.575000000000000400,-1.079196240560313491
0.576000000000000290,-1.110256338824689104
0.577000000000000401,-1.140753780215362223
0.578000000000000291,-1.170684627576135339
0.579000000000000403,-1.200045293771891286
0.580000000000000293,-1.228832534518137232
0.581000000000000405,-1.257043441218817170
0.582000000000000295,-1.284675433816820478
0.583000000000000407,-1.311726253662059305
0.584000000000000297,-1.338193956401099616
0.585000000000000409,-1.364076904892848052
0.586000000000000298,-1.389373762153938596
0.587000000000000410,-1.414083484337921970
0.588000000000000300,-1.438205313751604653
0.589000000000000412,-1.461738771912255874
0.590000000000000302,-1.484683652648735475
0.591000000000000414,-1.507040015249891285
0.592000000000000304,-1.528808177663030454
0.593000000000000416,-1.549988709745410365
0.594000000000000306,-1.570582426571340839
0.595000000000000417,-1.590590381797540864
0.596000000000000307,-1.610013861088975151
0.597000000000000419,-1.628854375607610150
0.598000000000000309,-1.647113655566107226
0.599000000000000421,-1.664793643848436533
0.600000000000000311,-1.681896489699357788
0.601000000000000423,-1.698424542484477273
0.602000000000000313,-1.714380345522445115
0.603000000000000425,-1.729766629990975968
0.604000000000000314,-1.744586308907887018
0.605000000000000426,-1.758842471188647893
0.606000000000000316,-1.772538375781493203
0.607000000000000428,-1.785677445881249437
0.608000000000000318,-1.798263263222895869
0.609000000000000430,-1.810299562455716327
0.610000000000000320,-1.821790225598836743
0.611000000000000432,-1.832739276578958965
0.612000000000000322,-1.843150875850813275
0.613000000000000433,-1.853029315100970464
0.614000000000000323,-1.862379012035459969
0.615000000000000435,-1.871204505251595318
0.616000000000000325,-1.879510449194293997
0.617000000000000437,-1.887301609197254759
0.618000000000000327,-1.894582856609045907
0.619000000000000439,-1.901359164004326585
0.620000000000000329,-1.907635600480228844
0.621000000000000441,-1.913417327037869153
0.622000000000000330,-1.918709592048996937
0.623000000000000442,-1.923517726807619344
0.624000000000000332,-1.927847141166411760
0.625000000000000444,-1.931703319257794815
0.626000000000000334,-1.935091815299292417
0.627000000000000446,-1.938018249482947208
0.628000000000000336,-1.940488303948393778
0.629000000000000448,-1.942507718839213471
0.630000000000000338,-1.944082288442090967
0.631000000000000449,-1.945217857408363615
0.632000000000000339,-1.945920317057397764
0.633000000000000451,-1.946195601761238070
0.634000000000000341,-1.946049685409983798
0.635000000000000453,-1.945488577957289689
0.636000000000000343,-1.944518322045270864
0.637000000000000455,-1.943144989708259773
0.638000000000000345,-1.941374679154601157
0.639000000000000457,-1.939213511625861752
0.640000000000000346,-1.936667628332654489
0.641000000000000458,-1.933743187466339108
0.642000000000000348,-1.930446361285802492
0.643000000000000460,-1.926783333278514476
0.644000000000000350,-1.922760295395065766
0.645000000000000462,-1.918383445356297345
0.646000000000000352,-1.913658984032218680
0.647000000000000464,-1.908593112891831201
0.648000000000000353,-1.903192031522978667
0.649000000000000465,-1.897461935221307128
0.650000000000000355,-1.891409012647511600
0.651000000000000467,-1.885039443551838501
0.652000000000000357,-1.878359396565077333
0.653000000000000469,-1.871375027054928086
0.654000000000000359,-1.864092475047021136
0.655000000000000471,-1.856517863209469654
0.656000000000000361,-1.848657294900119652
0.657000000000000473,-1.840516852275502213
0.658000000000000362,-1.832102594460562894
0.659000000000000474,-1.823420555778194396
0.660000000000000364,-1.814476744037635259
0.661000000000000476,-1.805277138880759580
0.662000000000000366,-1.795827690185329839
0.663000000000000478,-1.786134316524207843
