# AuFCC100-Ablate75_BGLC-AC
# h[nm],U(h)[kJ/mol]
0.200000000000000011,152.614480273379200526
0.201000000000000012,146.789890930867073848
0.202000000000000013,142.594309019470358635
0.203000000000000014,139.222973025909709577
0.204000000000000015,136.200222370324325993
0.205000000000000016,133.265774357514089843
0.206000000000000016,130.295447430874844486
0.207000000000000017,127.246909885035165644
0.208000000000000018,124.123414560759968595
0.209000000000000019,120.950294778955552033
0.210000000000000020,117.760373625371883577
0.211000000000000021,114.585478171419637761
0.212000000000000022,111.452030592969180134
0.213000000000000023,108.379270272797612051
0.214000000000000024,105.379092018682470666
0.215000000000000024,102.456801975892133783
0.216000000000000025,99.612322781713686481
0.217000000000000026,96.841544608184761955
0.218000000000000027,94.137635507600577967
0.219000000000000028,91.492205521993724915
0.220000000000000029,88.896273908185847290
0.221000000000000030,86.341024782162548945
0.222000000000000031,83.818358913255195830
0.223000000000000032,81.321262329968106997
0.224000000000000032,78.844018810541214748
0.225000000000000033,76.382295397096015677
0.226000000000000034,73.933129362663777329
0.227000000000000035,71.494842692357181591
0.228000000000000036,69.066906892657470962
0.229000000000000037,66.649777346389313948
0.230000000000000038,64.244712833632760862
0.231000000000000039,61.853592457609536837
0.232000000000000040,59.478739173469776347
0.233000000000000040,57.122756476225710287
0.234000000000000041,54.788382577487901415
0.235000000000000042,52.478364576450630352
0.236000000000000043,50.195353678704094591
0.237000000000000044,47.941821397403337812
0.238000000000000045,45.719995841478727527
0.239000000000000046,43.531816610927144495
0.240000000000000047,41.378906437676860719
0.241000000000000048,39.262557493365882522
0.242000000000000048,37.183730197995849664
0.243000000000000049,35.143062375620800708
0.244000000000000050,33.140886689214347882
0.245000000000000051,31.177254424982027814
0.246000000000000052,29.251963868896361021
0.247000000000000053,27.364591710775073352
0.248000000000000054,25.514526112506196398
0.249000000000000055,23.701000278340096372
0.250000000000000056,21.923125560028751124
0.251000000000000056,20.179923313346332492
0.252000000000000057,18.470354892032144534
0.253000000000000058,16.793349318542151849
0.254000000000000059,15.147828307215732480
0.255000000000000060,13.532728434361706249
0.256000000000000061,11.947020351691900686
0.257000000000000062,10.389725025255952318
0.258000000000000063,8.859927052609091191
0.259000000000000064,7.356785167617284849
0.260000000000000064,5.879540086413335587
0.261000000000000065,4.427519880951660269
0.262000000000000066,3.000143089737098645
0.263000000000000067,1.596919789968032077
0.264000000000000068,0.217450862791399413
0.265000000000000069,-1.138574315203546572
0.266000000000000070,-2.471381524641407701
0.267000000000000071,-3.781116478047565899
0.268000000000000071,-5.067850505034965813
0.269000000000000072,-6.331586949383238405
0.270000000000000073,-7.572268093987131188
0.271000000000000074,-8.789782445322355642
0.272000000000000075,-9.983972225348347607
0.273000000000000076,-11.154640935226089127
0.274000000000000077,-12.301560871544351627
0.275000000000000078,-13.424480491644152025
0.276000000000000079,-14.523131539897136122
0.277000000000000079,-15.597235861268893942
0.278000000000000080,-16.646511842056874286
0.279000000000000081,-17.670680430263399074
0.280000000000000082,-18.669470699588494256
0.281000000000000083,-19.642624931490587414
0.282000000000000084,-20.589903199159316216
0.283000000000000085,-21.511087445595737933
0.284000000000000086,-22.405985055333296430
0.285000000000000087,-23.274431925697175672
0.286000000000000087,-24.116295048948508395
0.287000000000000088,-24.931474621245712342
0.288000000000000089,-25.719905698141367623
0.289000000000000090,-26.481559419385519050
0.290000000000000091,-27.216443828184139875
0.291000000000000092,-27.924604311836578319
0.292000000000000093,-28.606123691903274420
0.293000000000000094,-29.261121992800518399
0.294000000000000095,-29.889755918038567017
0.295000000000000095,-30.492218063269358908
0.296000000000000096,-31.068735894939003117
0.297000000000000097,-31.619570522700094273
0.298000000000000098,-32.145015292870425583
0.299000000000000099,-32.645394229171301959
0.300000000000000100,-33.121060345774466782
0.301000000000000101,-33.572393856368520915
0.302000000000000102,-33.999800301549100823
0.303000000000000103,-34.403708615374249291
0.304000000000000103,-34.784569150424232475
0.305000000000000104,-35.142851679190343361
0.306000000000000105,-35.479043388103789880
0.307000000000000106,-35.793646879019874518
0.308000000000000107,-36.087178191508400005
0.309000000000000108,-36.360164857877563804
0.310000000000000109,-36.613144001486283230
0.311000000000000110,-36.846660487583463350
0.312000000000000111,-37.061265134661923071
0.313000000000000111,-37.257512993127939183
0.314000000000000112,-37.435961696973066637
0.315000000000000113,-37.597169893090992332
0.316000000000000114,-37.741695751912025969
0.317000000000000115,-37.870095562128824440
0.318000000000000116,-37.982922411461352397
0.319000000000000117,-38.080724954653497605
0.320000000000000118,-38.164046269206366446
0.321000000000000119,-38.233422798734167714
0.322000000000000119,-38.289383383271740513
0.323000000000000120,-38.332448375368144866
0.324000000000000121,-38.363128840364893790
0.325000000000000122,-38.381925838875261547
0.326000000000000123,-38.389329789152526473
0.327000000000000124,-38.385819906753390285
0.328000000000000125,-38.371863718668770105
0.329000000000000126,-38.347916648899868619
0.330000000000000127,-38.314421672303510036
0.331000000000000127,-38.271809033412885981
0.332000000000000128,-38.220496026853133742
0.333000000000000129,-38.160886835916080884
0.334000000000000130,-38.093372425828995631
0.335000000000000131,-38.018330488248111010
0.336000000000000132,-37.936125433523926631
0.337000000000000133,-37.847108427322474711
0.338000000000000134,-37.751617468239487607
0.339000000000000135,-37.649977503112580735
0.340000000000000135,-37.542500576818198965
0.341000000000000136,-37.429486013431130687
0.342000000000000137,-37.311220625726299716
0.343000000000000138,-37.187978950111116205
0.344000000000000139,-37.060023504191569543
0.345000000000000140,-36.927605064295732973
0.346000000000000141,-36.790962960400548809
0.347000000000000142,-36.650325386035021324
0.348000000000000143,-36.505909720859406775
0.349000000000000143,-36.357922863748299847
0.350000000000000144,-36.206561574333029796
0.351000000000000145,-36.052012821085789085
0.352000000000000146,-35.894454134152759650
0.353000000000000147,-35.734053961266567967
0.354000000000000148,-35.570972025189050214
0.355000000000000149,-35.405359681252193127
0.356000000000000150,-35.237360273679435352
0.357000000000000151,-35.067109489479527440
0.358000000000000151,-34.894735708811964514
0.359000000000000152,-34.720360350824329032
0.360000000000000153,-34.544098214061214946
0.361000000000000154,-34.366057810636775116
0.362000000000000155,-34.186341693453286439
0.363000000000000156,-34.005046775831985428
0.364000000000000157,-33.822264643003322249
0.365000000000000158,-33.638081854979752450
0.366000000000000159,-33.452580240405218603
0.367000000000000159,-33.265837181042826387
0.368000000000000160,-33.077925886625514806
0.369000000000000161,-32.888915659852500539
0.370000000000000162,-32.698872151369485550
0.371000000000000163,-32.507857604621364089
0.372000000000000164,-32.315931090512499679
0.373000000000000165,-32.123148731853675031
0.374000000000000166,-31.929563917613847934
0.375000000000000167,-31.735227507031300576
0.376000000000000167,-31.540188023672101281
0.377000000000000168,-31.344491839553207058
0.378000000000000169,-31.148183349474617643
0.379000000000000170,-30.951305135729768381
0.380000000000000171,-30.753898123383457630
0.381000000000000172,-30.556001726327174595
0.382000000000000173,-30.357653984336849362
0.383000000000000174,-30.158891691373405308
0.384000000000000175,-29.959750515378097191
0.385000000000000175,-29.760265109825251528
0.386000000000000176,-29.560469217303513290
0.387000000000000177,-29.360395765402738988
0.388000000000000178,-29.160076955190312731
0.389000000000000179,-28.959544342562615782
0.390000000000000180,-28.758828912761003949
0.391000000000000181,-28.557961148342211999
0.392000000000000182,-28.356971090893303256
0.393000000000000183,-28.155888396779765515
0.394000000000000183,-27.954742387213961763
0.395000000000000184,-27.753562092927836602
0.396000000000000185,-27.552376293730048928
0.397000000000000186,-27.351213553223896469
0.398000000000000187,-27.150102248956756057
0.399000000000000188,-26.949070598266651189
0.400000000000000189,-26.748146680085618243
0.401000000000000190,-26.547358452952789065
0.402000000000000191,-26.346733769483762444
0.403000000000000191,-26.146300387535415410
0.404000000000000192,-25.946085978298235375
0.405000000000000193,-25.746118131540612239
0.406000000000000194,-25.546424358221724304
0.407000000000000195,-25.347032090682411365
0.408000000000000196,-25.147968680614560810
0.409000000000000197,-24.949261395002647390
0.410000000000000198,-24.750937410222483948
0.411000000000000199,-24.553023804474353398
0.412000000000000199,-24.355547548720068107
0.413000000000000200,-24.158535496285530542
0.414000000000000201,-23.962014371282538860
0.415000000000000202,-23.766010755995928605
0.416000000000000203,-23.570551077375014870
0.417000000000000204,-23.375661592760227592
0.418000000000000205,-23.181368374969174795
0.419000000000000206,-22.987697296859249008
0.420000000000000207,-22.794674015476335427
0.421000000000000207,-22.602323955893666607
0.422000000000000208,-22.410672294836871288
0.423000000000000209,-22.219743944186323148
0.424000000000000210,-22.029563534440775641
0.425000000000000211,-21.840155398220623795
0.426000000000000212,-21.651543553883769277
0.427000000000000213,-21.463751689320751836
0.428000000000000214,-21.276803145991415533
0.429000000000000214,-21.090720903259484231
0.430000000000000215,-20.905527563076837794
0.431000000000000216,-20.721245335064921278
0.432000000000000217,-20.537896022035432964
0.433000000000000218,-20.355501005988848817
0.434000000000000219,-20.174081234624999581
0.435000000000000220,-19.993657208396026448
0.436000000000000221,-19.814248968128175932
0.437000000000000222,-19.635876083235714873
0.438000000000000222,-19.458557640546736422
0.439000000000000223,-19.282312233757416209
0.440000000000000224,-19.107157953528449923
0.441000000000000225,-18.933112378234390860
0.442000000000000226,-18.760192565374477880
0.443000000000000227,-18.588415043650222458
0.444000000000000228,-18.417795805713637947
0.445000000000000229,-18.248350301587215938
0.446000000000000230,-18.080093432754750893
0.447000000000000230,-17.913039546920835221
0.448000000000000231,-17.747202433434246416
0.449000000000000232,-17.582595319369421105
0.450000000000000233,-17.419230866258750723
0.451000000000000234,-17.257121167466529243
0.452000000000000235,-17.096277746194893155
0.453000000000000236,-16.936711554110097211
0.454000000000000237,-16.778432970577423333
0.455000000000000238,-16.621451802491030492
0.456000000000000238,-16.465777284685142234
0.457000000000000239,-16.311418080911490591
0.458000000000000240,-16.158382285367952846
0.459000000000000241,-16.006677424761903694
0.460000000000000242,-15.856310460892313330
0.461000000000000243,-15.707287793733192061
0.462000000000000244,-15.559615265001477624
0.463000000000000245,-15.413298162191320984
0.464000000000000246,-15.268341223057495526
0.465000000000000246,-15.124748640529436017
0.466000000000000247,-14.982524068038120646
0.467000000000000248,-14.841670625237370018
0.468000000000000249,-14.702190904101581026
0.469000000000000250,-14.564086975381457023
0.470000000000000251,-14.427360395399876580
0.471000000000000252,-14.292012213169453361
0.472000000000000253,-14.158042977814508490
0.473000000000000254,-14.025452746279034599
0.474000000000000254,-13.894241091303692670
0.475000000000000255,-13.764407109654190009
0.476000000000000256,-13.635949430584073383
0.477000000000000257,-13.508866224515335475
0.478000000000000258,-13.383155211919984140
0.479000000000000259,-13.258813672386779103
0.480000000000000260,-13.135838453857084929
0.481000000000000261,-13.014225982014306027
0.482000000000000262,-12.893972269811957432
0.483000000000000262,-12.775072927125432187
0.484000000000000263,-12.657523170513123034
0.485000000000000264,-12.541317833072916699
0.486000000000000265,-12.426451374380475201
0.487000000000000266,-12.312917890496001050
0.488000000000000267,-12.200711124026758725
0.489000000000000268,-12.089824474233022755
0.490000000000000269,-11.980251007165250599
0.491000000000000270,-11.871983465821246639
0.492000000000000270,-11.765014280311762107
0.493000000000000271,-11.659335578024158764
0.494000000000000272,-11.554939193773581252
0.495000000000000273,-11.451816679931686949
0.496000000000000274,-11.349959316523655417
0.497000000000000275,-11.249358121284043222
0.498000000000000276,-11.150003859663005557
0.499000000000000277,-11.051887054774459429
0.500000000000000222,-10.954997997278216104
0.501000000000000334,-10.859326755188604352
0.502000000000000224,-10.764863183602432883
0.503000000000000336,-10.671596934339255824
0.504000000000000226,-10.579517465487892736
0.505000000000000338,-10.488614050852604009
0.506000000000000227,-10.398875789293800409
0.507000000000000339,-10.310291613957209833
0.508000000000000229,-10.222850301387088834
0.509000000000000341,-10.136540480518096530
0.510000000000000231,-10.051350641542166287
0.511000000000000343,-9.967269144645422685
0.512000000000000233,-9.884284228612116863
0.513000000000000345,-9.802384019291370265
0.514000000000000234,-9.721556537924266550
0.515000000000000346,-9.641789709327440505
0.516000000000000236,-9.563071369931346766
0.517000000000000348,-9.485389275670145892
0.518000000000000238,-9.408731109721436781
0.519000000000000350,-9.333084490093620289
0.520000000000000240,-9.258436977059446349
0.521000000000000352,-9.184776080434099654
0.522000000000000242,-9.112089266696683509
0.523000000000000353,-9.040363965953975622
0.524000000000000243,-8.969587578745711554
0.525000000000000355,-8.899747482690646194
0.526000000000000245,-8.830831038973148139
0.527000000000000357,-8.762825598669667926
0.528000000000000247,-8.695718508915501133
0.529000000000000359,-8.629497118911370279
0.530000000000000249,-8.564148785770498762
0.531000000000000361,-8.499660880206157287
0.532000000000000250,-8.436020792060599405
0.533000000000000362,-8.373215935675604626
0.534000000000000252,-8.311233755105728704
0.535000000000000364,-8.250061729175026670
0.536000000000000254,-8.189687376378348205
0.537000000000000366,-8.130098259628045554
0.538000000000000256,-8.071281990847912979
0.539000000000000368,-8.013226235414915521
0.540000000000000258,-7.955918716450900874
0.541000000000000369,-7.899347218965137252
0.542000000000000259,-7.843499593849789342
0.543000000000000371,-7.788363761729604207
0.544000000000000261,-7.733927716667841068
0.545000000000000373,-7.680179529730016164
0.546000000000000263,-7.627107352407565877
0.547000000000000375,-7.574699419902981568
0.548000000000000265,-7.522944054278951853
0.549000000000000377,-7.471829667472889014
0.550000000000000266,-7.421344764179440112
0.551000000000000378,-7.371477944602735199
0.552000000000000268,-7.322217907080760035
0.553000000000000380,-7.273553450583788660
0.554000000000000270,-7.225473477089364494
0.555000000000000382,-7.177966993835696030
0.556000000000000272,-7.131023115456153860
0.557000000000000384,-7.084631065996630284
0.558000000000000274,-7.038780180818596577
0.559000000000000385,-6.993459908389586310
0.560000000000000275,-6.948659811963940669
0.561000000000000387,-6.904369571155720919
0.562000000000000277,-6.860578983406304232
0.563000000000000389,-6.817277965348952584
0.564000000000000279,-6.774456554072656900
0.565000000000000391,-6.732104908287564804
0.566000000000000281,-6.690213309394319019
0.567000000000000393,-6.648772162459550827
0.568000000000000282,-6.607771997100019057
0.569000000000000394,-6.567203468277329925
0.570000000000000284,-6.527057357005898730
0.571000000000000396,-6.487324570976094051
0.572000000000000286,-6.447996145095094889
0.573000000000000398,-6.409063241947336564
0.574000000000000288,-6.370517152177126441
0.575000000000000400,-6.332349294795355021
0.576000000000000290,-6.294551217412584165
0.577000000000000401,-6.257114596400616513
0.578000000000000291,-6.220031236984750578
0.579000000000000403,-6.183293073268639084
0.580000000000000293,-6.146892168194088235
0.581000000000000405,-6.110820713437567164
0.582000000000000295,-6.075071029245719956
0.583000000000000407,-6.039635564211629060
0.584000000000000297,-6.004506894993987487
0.585000000000000409,-5.969677725981005878
0.586000000000000298,-5.935140888901067058
0.587000000000000410,-5.900889342381854696
0.588000000000000300,-5.866916171460029084
0.589000000000000412,-5.833214587043007882
0.590000000000000302,-5.799777925324898220
0.591000000000000414,-5.766599647158181519
0.592000000000000304,-5.733673337382948709
0.593000000000000416,-5.700992704115297904
0.594000000000000306,-5.668551577996741919
0.595000000000000417,-5.636343911406057394
0.596000000000000307,-5.604363777635298582
0.597000000000000419,-5.572605370031526562
0.598000000000000309,-5.541063001105829500
0.599000000000000421,-5.509731101611010651
0.600000000000000311,-5.478604219589631619
0.601000000000000423,-5.447677019393646347
0.602000000000000313,-5.416944280677244983
0.603000000000000425,-5.386400897364028495
0.604000000000000314,-5.356041876590248663
0.605000000000000426,-5.325862337624966969
0.606000000000000316,-5.295857510768897214
0.607000000000000428,-5.266022736232740087
0.608000000000000318,-5.236353462996692798
0.609000000000000430,-5.206845247651904707
0.610000000000000320,-5.177493753225403061
0.611000000000000432,-5.148294747989341502
0.612000000000000322,-5.119244104255944450
0.613000000000000433,-5.090337797158988487
0.614000000000000323,-5.061571903423069507
0.615000000000000435,-5.032942600121564247
0.616000000000000325,-5.004446163424293381
0.617000000000000437,-4.976078967335930692
0.618000000000000327,-4.947837482426018951
0.619000000000000439,-4.919718274551509118
0.620000000000000329,-4.891718003572795403
0.621000000000000441,-4.863833422064006484
0.622000000000000330,-4.836061374018460590
0.623000000000000442,-4.808398793550032302
0.624000000000000332,-4.780842703591291709
0.625000000000000444,-4.753390214589106044
0.626000000000000334,-4.726038523198486274
0.627000000000000446,-4.698784910975358109
0.628000000000000336,-4.671626743068987508
0.629000000000000448,-4.644561466914668202
0.630000000000000338,-4.617586610927397750
0.631000000000000449,-4.590699783197043971
0.632000000000000339,-4.563898670185746020
0.633000000000000451,-4.537181035427982678
0.634000000000000341,-4.510544718233989947
0.635000000000000453,-4.483987632396972955
0.636000000000000343,-4.457507764904666381
0.637000000000000455,-4.431103174655747878
0.638000000000000345,-4.404771991181580582
0.639000000000000457,-4.378512413373664813
0.640000000000000346,-4.352322708217410074
0.641000000000000458,-4.326201209532427150
0.642000000000000348,-4.300146316719969164
0.643000000000000460,-4.274156493517673461
0.644000000000000350,-4.248230266762240248
0.645000000000000462,-4.222366225160111064
0.646000000000000352,-4.196563018066752804
0.647000000000000464,-4.170819354274612145
0.648000000000000353,-4.145134000810344332
0.649000000000000465,-4.119505781741235495
0.650000000000000355,-4.093933576991497070
0.651000000000000467,-4.068416321168305316
0.652000000000000357,-4.042953002398188111
0.653000000000000469,-4.017542661173657770
0.654000000000000359,-3.992184389210633011
0.655000000000000471,-3.966877328316554152
0.656000000000000361,-3.941620669269654265
0.657000000000000473,-3.916413650709320571
