# AuFCC100-Ablate75_CS-270-AC
# h[nm],U(h)[kJ/mol]
0.200000000000000011,71.756246423955062141
0.201000000000000012,69.084103550325721699
0.202000000000000013,67.088159743229795140
0.203000000000000014,65.383508168977471087
0.204000000000000015,63.762693192598341341
0.205000000000000016,62.127900474296609445
0.206000000000000016,60.445600113094897665
0.207000000000000017,58.716986471379435386
0.208000000000000018,56.959369285411625583
0.209000000000000019,55.195020746723137961
0.210000000000000020,53.444983809154692267
0.211000000000000021,51.726083552409036770
0.212000000000000022,50.049921493158002761
0.213000000000000023,48.423022261974345781
0.214000000000000024,46.847581085355372466
0.215000000000000024,45.322457848993494167
0.216000000000000025,43.844200925204958708
0.217000000000000026,42.407977765768457346
0.218000000000000027,41.008351701671628575
0.219000000000000028,39.639884521135591910
0.220000000000000029,38.297568903324936684
0.221000000000000030,36.977108557597262006
0.222000000000000031,35.675070498907857086
0.223000000000000032,34.388935814611947706
0.224000000000000032,33.117074335746039537
0.225000000000000033,31.858666057160416329
0.226000000000000034,30.613588795395678233
0.227000000000000035,29.382287981792352127
0.228000000000000036,28.165641006065733620
0.229000000000000037,26.964825353387716689
0.230000000000000038,25.781197017898570323
0.231000000000000039,24.616183363554426933
0.232000000000000040,23.471192733035088906
0.233000000000000040,22.347541645316017167
0.234000000000000041,21.246399326845882172
0.235000000000000042,20.168748538587689012
0.236000000000000043,19.115361139325237616
0.237000000000000044,18.086786515073647763
0.238000000000000045,17.083350860114038028
0.239000000000000046,16.105165277498276311
0.240000000000000047,15.152140741954738701
0.241000000000000048,14.224008107706236359
0.242000000000000048,13.320341524738443795
0.243000000000000049,12.440583831195350939
0.244000000000000050,11.584072702620805018
0.245000000000000051,10.750066550019857559
0.246000000000000052,9.937769360468912794
0.247000000000000053,9.146353860957168180
0.248000000000000054,8.374982554966736714
0.249000000000000055,7.622826330203176681
0.250000000000000056,6.889080464271396309
0.251000000000000056,6.172977963240867894
0.252000000000000057,5.473800256885644089
0.253000000000000058,4.790885345283418140
0.254000000000000059,4.123633546049457976
0.255000000000000060,3.471511031554233462
0.256000000000000061,2.834051372859524243
0.257000000000000062,2.210855323619127510
0.258000000000000063,1.601589084559441378
0.259000000000000064,1.005981289002859658
0.260000000000000064,0.423818943706645357
0.261000000000000065,-0.145057451602292442
0.262000000000000066,-0.700759397032694187
0.263000000000000067,-1.243356305618801283
0.264000000000000068,-1.772881663162380050
0.265000000000000069,-2.289339280689053790
0.266000000000000070,-2.792709505031246486
0.267000000000000071,-3.282955272461044238
0.268000000000000071,-3.760027909070815522
0.269000000000000072,-4.223872599438370123
0.270000000000000073,-4.674433461792970590
0.271000000000000074,-5.111658183265515909
0.272000000000000075,-5.535502182766450119
0.273000000000000076,-5.945932281539604958
0.274000000000000077,-6.342929872484313947
0.275000000000000078,-6.726493588944816970
0.276000000000000079,-7.096641481885690439
0.277000000000000079,-7.453412721274768060
0.278000000000000080,-7.796868843160514650
0.279000000000000081,-8.127094568455472512
0.280000000000000082,-8.444198222915256125
0.281000000000000083,-8.748311790337307770
0.282000000000000084,-9.039590632694052275
0.283000000000000085,-9.318212911861660785
0.284000000000000086,-9.584378747903919304
0.285000000000000087,-9.838309148610580479
0.286000000000000087,-10.080244744259083234
0.287000000000000088,-10.310444360445407241
0.288000000000000089,-10.529183460388342297
0.289000000000000090,-10.736752486419135266
0.290000000000000091,-10.933455128483540619
0.291000000000000092,-11.119606545462712432
0.292000000000000093,-11.295531563007680020
0.293000000000000094,-11.461562869423044475
0.294000000000000095,-11.618039228964203602
0.295000000000000095,-11.765303729760045570
0.296000000000000096,-11.903702081464860640
0.297000000000000097,-12.033580975701536175
0.298000000000000098,-12.155286520399174677
0.299000000000000099,-12.269162757267091379
0.300000000000000100,-12.375550269892526600
0.301000000000000101,-12.474784888310329833
0.302000000000000102,-12.567196494372865345
0.303000000000000103,-12.653107930851565044
0.304000000000000103,-12.732834015926940197
0.305000000000000104,-12.806680663572256762
0.306000000000000105,-12.874944109304257367
0.307000000000000106,-12.937910239858785744
0.308000000000000107,-12.995854024546460437
0.309000000000000108,-13.049039045347569754
0.310000000000000109,-13.097717122211614438
0.311000000000000110,-13.142128029528043598
0.312000000000000111,-13.182499299326167375
0.313000000000000111,-13.219046106435845545
0.314000000000000112,-13.251971230590978479
0.315000000000000113,-13.281465090278185670
0.316000000000000114,-13.307705843017254566
0.317000000000000115,-13.330859546701040230
0.318000000000000116,-13.351080376615602319
0.319000000000000117,-13.368510892799804424
0.320000000000000118,-13.383282352482201105
0.321000000000000119,-13.395515062446751386
0.322000000000000119,-13.405318766322602997
0.323000000000000120,-13.412793061962236862
0.324000000000000121,-13.418027844262894632
0.325000000000000122,-13.421103768993834393
0.326000000000000123,-13.422092733413416354
0.327000000000000124,-13.421058369691738932
0.328000000000000125,-13.418056547394044742
0.329000000000000126,-13.413135881523677639
0.330000000000000127,-13.406338242869727750
0.331000000000000127,-13.397699267650741817
0.332000000000000128,-13.387248863690279777
0.333000000000000129,-13.375011710601109272
0.334000000000000130,-13.361007751690710421
0.335000000000000131,-13.345252675531099840
0.336000000000000132,-13.327758385357942217
0.337000000000000133,-13.308533454679084329
0.338000000000000134,-13.287583567678208141
0.339000000000000135,-13.264911943195494715
0.340000000000000135,-13.240519741254326291
0.341000000000000136,-13.214406451278978949
0.342000000000000137,-13.186570261315077701
0.343000000000000138,-13.157008407720047316
0.344000000000000139,-13.125717504936407209
0.345000000000000140,-13.092693855096138478
0.346000000000000141,-13.057933737328928814
0.347000000000000142,-13.021433676762251608
0.348000000000000143,-12.983190693306593033
0.349000000000000143,-12.943202530414533058
0.350000000000000144,-12.901467864089203985
0.351000000000000145,-12.857986492495253827
0.352000000000000146,-12.812759506594773029
0.353000000000000147,-12.765789442291783473
0.354000000000000148,-12.717080414622563111
0.355000000000000149,-12.666638234575207989
0.356000000000000150,-12.614470509161318290
0.357000000000000151,-12.560586725395648244
0.358000000000000151,-12.504998318866526574
0.359000000000000152,-12.447718727600983968
0.360000000000000153,-12.388763431944919802
0.361000000000000154,-12.328149981189401529
0.362000000000000155,-12.265898007681334647
0.363000000000000156,-12.202029229159141011
0.364000000000000157,-12.136567440052960620
0.365000000000000158,-12.069538492484660708
0.366000000000000159,-12.000970267694917482
0.367000000000000159,-11.930892638614590595
0.368000000000000160,-11.859337424284730034
0.369000000000000161,-11.786338336814370820
0.370000000000000162,-11.711930921548461271
0.371000000000000163,-11.636152491099796435
0.372000000000000164,-11.559042053878297196
0.373000000000000165,-11.480640237730371567
0.374000000000000166,-11.400989209278243663
0.375000000000000167,-11.320132589526384237
0.376000000000000167,-11.238115366278318419
0.377000000000000168,-11.154983803882917215
0.378000000000000169,-11.070785350804746017
0.379000000000000170,-10.985568545488346714
0.380000000000000171,-10.899382920961498300
0.381000000000000172,-10.812278908597946270
0.382000000000000173,-10.724307741435250563
0.383000000000000174,-10.635521357419527533
0.384000000000000175,-10.545972302924429442
0.385000000000000175,-10.455713636868591010
0.386000000000000176,-10.364798835732418780
0.387000000000000177,-10.273281699752660145
0.388000000000000178,-10.181216260551391173
0.389000000000000179,-10.088656690434486762
0.390000000000000180,-9.995657213574263622
0.391000000000000181,-9.902272019270816017
0.392000000000000182,-9.808555177467614072
0.393000000000000183,-9.714560556678074832
0.394000000000000183,-9.620341744462502120
0.395000000000000184,-9.525951970577523298
0.396000000000000185,-9.431444032904053643
0.397000000000000186,-9.336870226244418092
0.398000000000000187,-9.242282274064605119
0.399000000000000188,-9.147731263243636946
0.400000000000000189,-9.053267581878994719
0.401000000000000190,-8.958940860184590349
0.402000000000000191,-8.864799914506207301
0.403000000000000191,-8.770892694468184203
0.404000000000000192,-8.677266233255137351
0.405000000000000193,-8.583966601022755327
0.406000000000000194,-8.491038861422865125
0.407000000000000195,-8.398527031219909844
0.408000000000000196,-8.306474042968019944
0.409000000000000197,-8.214921710711148961
0.410000000000000198,-8.123910698662305307
0.411000000000000199,-8.033480492811804652
0.412000000000000199,-7.943669375409468714
0.413000000000000200,-7.854514402260723394
0.414000000000000201,-7.766051382772285017
0.415000000000000202,-7.678314862679241237
0.416000000000000203,-7.591338109382138377
0.417000000000000204,-7.505153099819449558
0.418000000000000205,-7.419790510798560668
0.419000000000000206,-7.335279711706064631
0.420000000000000207,-7.251648759516295506
0.421000000000000207,-7.168924396015947664
0.422000000000000208,-7.087132047160961790
0.423000000000000209,-7.006295824481538759
0.424000000000000210,-6.926438528450288068
0.425000000000000211,-6.847581653728340711
0.426000000000000212,-6.769745396204299936
0.427000000000000213,-6.692948661740906857
0.428000000000000214,-6.617209076545023549
0.429000000000000214,-6.542542999076782273
0.430000000000000215,-6.468965533414847258
0.431000000000000216,-6.396490543995584588
0.432000000000000217,-6.325130671644958902
0.433000000000000218,-6.254897350823356739
0.434000000000000219,-6.185800828004877516
0.435000000000000220,-6.117850181114103947
0.436000000000000221,-6.051053339944910903
0.437000000000000222,-5.985417107487631228
0.438000000000000222,-5.920947182092616501
0.439000000000000223,-5.857648180400081728
0.440000000000000224,-5.795523660967901058
0.441000000000000225,-5.734576148531100870
0.442000000000000226,-5.674807158828768294
0.443000000000000227,-5.616217223935874969
0.444000000000000228,-5.558805918039930738
0.445000000000000229,-5.502571883604065128
0.446000000000000230,-5.447512857860468571
0.447000000000000230,-5.393625699580056221
0.448000000000000231,-5.340906416066361295
0.449000000000000232,-5.289350190323682810
0.450000000000000233,-5.238951408351651295
0.451000000000000234,-5.189703686520330095
0.452000000000000235,-5.141599898982113892
0.453000000000000236,-5.094632205078506892
0.454000000000000237,-5.048792076702171450
0.455000000000000238,-5.004070325576178035
0.456000000000000238,-4.960457130414694937
0.457000000000000239,-4.917942063930981433
0.458000000000000240,-4.876514119660586566
0.459000000000000241,-4.836161738569281887
0.460000000000000242,-4.796872835417294034
0.461000000000000243,-4.758634824852842726
0.462000000000000244,-4.721434647209985513
0.463000000000000245,-4.685258793987090442
0.464000000000000246,-4.650093332984236660
0.465000000000000246,-4.615923933079096209
0.466000000000000247,-4.582735888622512022
0.467000000000000248,-4.550514143436430459
0.468000000000000249,-4.519243314398284639
0.469000000000000250,-4.488907714597269560
0.470000000000000251,-4.459491376049312450
0.471000000000000252,-4.430978071958712405
0.472000000000000253,-4.403351338515973268
0.473000000000000254,-4.376594496222034003
0.474000000000000254,-4.350690670730784859
0.475000000000000255,-4.325622813202443240
0.476000000000000256,-4.301373720161643988
0.477000000000000257,-4.277926052855039352
0.478000000000000258,-4.255262356104138277
0.479000000000000259,-4.233365076650079217
0.480000000000000260,-4.212216580987931280
0.481000000000000261,-4.191799172688826403
0.482000000000000262,-4.172095109209233321
0.483000000000000262,-4.153086618187256107
0.484000000000000263,-4.134755913226596746
0.485000000000000264,-4.117085209169607296
0.486000000000000265,-4.100056736861390938
0.487000000000000266,-4.083652757407490341
0.488000000000000267,-4.067855575928414069
0.489000000000000268,-4.052647554814686970
0.490000000000000269,-4.038011126486566127
0.491000000000000270,-4.023928805663217645
0.492000000000000270,-4.010383201146347609
0.493000000000000271,-3.997357027123948914
0.494000000000000272,-3.984833113999945997
0.495000000000000273,-3.972794418756124379
0.496000000000000274,-3.961224034852850018
0.497000000000000275,-3.950105201675492061
0.498000000000000276,-3.939421313533748581
0.499000000000000277,-3.929155928221249816
0.500000000000000222,-3.919292775143089269
0.501000000000000334,-3.909815763019140356
0.502000000000000224,-3.900708987171193520
0.503000000000000336,-3.891956736402076622
0.504000000000000226,-3.883543499475115457
0.505000000000000338,-3.875453971202381442
0.506000000000000227,-3.867673058150318699
0.507000000000000339,-3.860185883971339216
0.508000000000000229,-3.852977794370162634
0.509000000000000341,-3.846034361713657201
0.510000000000000231,-3.839341389293040585
0.511000000000000343,-3.832884915247210422
0.512000000000000233,-3.826651216156133017
0.513000000000000345,-3.820626810313127120
0.514000000000000234,-3.814798460684943215
0.515000000000000346,-3.809153177568357584
0.516000000000000236,-3.803678220952208644
0.517000000000000348,-3.798361102593557526
0.518000000000000238,-3.793189587816680586
0.519000000000000350,-3.788151697043583344
0.520000000000000240,-3.783235707064529496
0.521000000000000352,-3.778430152057205227
0.522000000000000242,-3.773723824362768653
0.523000000000000353,-3.769105775027289607
0.524000000000000243,-3.764565314116646189
0.525000000000000355,-3.760092010813116836
0.526000000000000245,-3.755675693301617546
0.527000000000000357,-3.751306448453513465
0.528000000000000247,-3.746974621315807497
0.529000000000000359,-3.742670814413324276
0.530000000000000249,-3.738385886871485209
0.531000000000000361,-3.734110953367044239
0.532000000000000250,-3.729837382914105604
0.533000000000000362,-3.725556797492543204
0.534000000000000252,-3.721261070525819115
0.535000000000000364,-3.716942325215156107
0.536000000000000254,-3.712592932736704654
0.537000000000000366,-3.708205510308338226
0.538000000000000256,-3.703772919132580999
0.539000000000000368,-3.699288262221867463
0.540000000000000258,-3.694744882112424023
0.541000000000000369,-3.690136358472702049
0.542000000000000259,-3.685456505612296318
0.543000000000000371,-3.680699369897047823
0.544000000000000261,-3.675859227075959801
0.545000000000000373,-3.670930579525348403
0.546000000000000263,-3.665908153415537551
0.547000000000000375,-3.660786895805249408
0.548000000000000265,-3.655561971668761068
0.549000000000000377,-3.650228760860633859
0.550000000000000266,-3.644782855022806523
0.551000000000000378,-3.639220054438645491
0.552000000000000268,-3.633536364838401589
0.553000000000000380,-3.627727994160420799
0.554000000000000270,-3.621791349272297733
0.555000000000000382,-3.615723032656019686
0.556000000000000272,-3.609519839061081647
0.557000000000000384,-3.603178752129270634
0.558000000000000274,-3.596696940994966951
0.559000000000000385,-3.590071756864301022
0.560000000000000275,-3.583300729576786470
0.561000000000000387,-3.576381564152607773
0.562000000000000277,-3.569312137328794599
0.563000000000000389,-3.562090494087348791
0.564000000000000279,-3.554714844178286537
0.565000000000000391,-3.547183558640411238
0.566000000000000281,-3.539495166322558894
0.567000000000000393,-3.531648350407937009
0.568000000000000282,-3.523641944944093218
0.569000000000000394,-3.515474931380856649
0.570000000000000284,-3.507146435118639882
0.571000000000000396,-3.498655722069250906
0.572000000000000286,-3.490002195231377335
0.573000000000000398,-3.481185391282669794
0.574000000000000288,-3.472204977190455288
0.575000000000000400,-3.463060746842830717
0.576000000000000290,-3.453752617701908889
0.577000000000000401,-3.444280627480868162
0.578000000000000291,-3.434644930846380451
0.579000000000000403,-3.424845796147886201
0.580000000000000293,-3.414883602175163624
0.581000000000000405,-3.404758834945467161
0.582000000000000295,-3.394472084521559019
0.583000000000000407,-3.384024041861751986
0.584000000000000297,-3.373415495703095068
0.585000000000000409,-3.362647329478768654
0.586000000000000298,-3.351720518270631999
0.587000000000000410,-3.340636125797824540
0.588000000000000300,-3.329395301442305222
0.589000000000000412,-3.317999277312053241
0.590000000000000302,-3.306449365342711388
0.591000000000000414,-3.294746954438308784
0.592000000000000304,-3.282893507651677645
0.593000000000000416,-3.270890559405092546
0.594000000000000306,-3.258739712751703710
0.595000000000000417,-3.246442636678144034
0.596000000000000307,-3.234001063448754820
0.597000000000000419,-3.221416785991769505
0.598000000000000309,-3.208691655327812420
0.599000000000000421,-3.195827578040876027
0.600000000000000311,-3.182826513792151868
0.601000000000000423,-3.169690472876756537
0.602000000000000313,-3.156421513823606695
0.603000000000000425,-3.143021741038475092
0.604000000000000314,-3.129493302490392814
0.605000000000000426,-3.115838387441299151
0.606000000000000316,-3.102059224219124278
0.607000000000000428,-3.088158078034074716
0.608000000000000318,-3.074137248838290759
0.609000000000000430,-3.059999069228559243
0.610000000000000320,-3.045745902392181570
0.611000000000000432,-3.031380140095671472
0.612000000000000322,-3.016904200716283846
0.613000000000000433,-3.002320527316033605
0.614000000000000323,-2.987631585758133035
0.615000000000000435,-2.972839862865493732
0.616000000000000325,-2.957947864621115919
0.617000000000000437,-2.942958114410062276
0.618000000000000327,-2.927873151302731181
0.619000000000000439,-2.912695528379084742
0.620000000000000329,-2.897427811093578942
0.621000000000000441,-2.882072575680356685
0.622000000000000330,-2.866632407598438625
0.623000000000000442,-2.851109900016453924
0.624000000000000332,-2.835507652336594298
0.625000000000000444,-2.819828268757344603
0.626000000000000334,-2.804074356874622698
0.627000000000000446,-2.788248526320851184
0.628000000000000336,-2.772353387441599981
0.629000000000000448,-2.756391550009293034
0.630000000000000338,-2.740365621973595012
0.631000000000000449,-2.724278208247937982
0.632000000000000339,-2.708131909531844350
0.633000000000000451,-2.691929321168427425
0.634000000000000341,-2.675673032036740118
0.635000000000000453,-2.659365623478375795
0.636000000000000343,-2.643009668257903400
0.637000000000000455,-2.626607729556613258
0.638000000000000345,-2.610162359999107284
0.639000000000000457,-2.593676100712170030
0.640000000000000346,-2.577151480415539986
0.641000000000000458,-2.560591014543928345
0.642000000000000348,-2.543997204399926382
0.643000000000000460,-2.527372536337159747
0.644000000000000350,-2.510719480973323758
0.645000000000000462,-2.494040492432431755
0.646000000000000352,-2.477338007615943472
0.647000000000000464,-2.460614445502081526
0.648000000000000353,-2.443872206473034492
0.649000000000000465,-2.427113671669293815
0.650000000000000355,-2.410341202370895886
0.651000000000000467,-2.393557139404792533
0.652000000000000357,-2.376763802578099938
0.653000000000000469,-2.359963490136479880
0.654000000000000359,-2.343158478247401533
0.655000000000000471,-2.326351020507567036
0.656000000000000361,-2.309543347474182884
0.657000000000000473,-2.292737666219444748
0.658000000000000362,-2.275936159907884893
0.659000000000000474,-2.259140987395970246
0.660000000000000364,-2.242354282853592728
