# AuFCC100-Ablate75_CS-6334-AC
# h[nm],U(h)[kJ/mol]
0.149999999999999994,124.913245952083229895
0.150999999999999995,122.616197780542734108
0.151999999999999996,118.638631203368134948
0.152999999999999997,114.343755119368296391
0.153999999999999998,110.266454312552198758
0.154999999999999999,106.531675094544539206
0.156000000000000000,103.089542556492801850
0.157000000000000001,99.839005676045729842
0.158000000000000002,96.686047997050010849
0.159000000000000002,93.565365786268671400
0.160000000000000003,90.443169045011387652
0.161000000000000004,87.311500441352634994
0.162000000000000005,84.179876375209772732
0.163000000000000006,81.067228443500084722
0.164000000000000007,77.995446346568016338
0.165000000000000008,74.984879158692208989
0.166000000000000009,72.051663864087103661
0.167000000000000010,69.206536164819084433
0.168000000000000010,66.454721409498191065
0.169000000000000011,63.796529094012626615
0.170000000000000012,61.228337569642235394
0.171000000000000013,58.743729976791293268
0.172000000000000014,56.334613634659511661
0.173000000000000015,53.992216257355963194
0.174000000000000016,51.707901001440141897
0.175000000000000017,49.473778565773521620
0.176000000000000018,47.283119737510553193
0.177000000000000018,45.130587816783808819
0.178000000000000019,43.012319257255569482
0.179000000000000020,40.925884482211948523
0.180000000000000021,38.870160767557749182
0.181000000000000022,36.845146618550060680
0.182000000000000023,34.851743212204397082
0.183000000000000024,32.891523979516740894
0.184000000000000025,30.966508790229113401
0.185000000000000026,29.078954830628180872
0.186000000000000026,27.231172347321724203
0.187000000000000027,25.425370079700577719
0.188000000000000028,23.663532459398378904
0.189000000000000029,21.947328504264795868
0.190000000000000030,20.278050732346411422
0.191000000000000031,18.656581304523438547
0.192000000000000032,17.083381900501006356
0.193000000000000033,15.558503467949401866
0.194000000000000034,14.081611888079589079
0.195000000000000034,12.652025708309597718
0.196000000000000035,11.268762347185223405
0.197000000000000036,9.930589530021098454
0.198000000000000037,8.636079125876221951
0.199000000000000038,7.383660995445178621
0.200000000000000039,6.171674900399866104
0.201000000000000040,4.998418949149678880
0.202000000000000041,3.862193448804621454
0.203000000000000042,2.761339389736709560
0.204000000000000042,1.694271102607995960
0.205000000000000043,0.659502896036672892
0.206000000000000044,-0.344330293621878059
0.207000000000000045,-1.318458028774295077
0.208000000000000046,-2.263964921860194490
0.209000000000000047,-3.181786156500209461
0.210000000000000048,-4.072707452636187497
0.211000000000000049,-4.937368906889071596
0.212000000000000050,-5.776272120307675451
0.213000000000000050,-6.589790026358518737
0.214000000000000051,-7.378178848582898297
0.215000000000000052,-8.141591646311272967
0.216000000000000053,-8.880092945037816321
0.217000000000000054,-9.593673992761777569
0.218000000000000055,-10.282268232418264375
0.219000000000000056,-10.945766631437479077
0.220000000000000057,-11.584032560827690617
0.221000000000000058,-12.196915966617636329
0.222000000000000058,-12.784266624970623383
0.223000000000000059,-13.345946317979860751
0.224000000000000060,-13.881839809499869176
0.225000000000000061,-14.391864538969915799
0.226000000000000062,-14.875978985815729416
0.227000000000000063,-15.334189687585809025
0.228000000000000064,-15.766556921503877220
0.229000000000000065,-16.173199081709707770
0.230000000000000066,-16.554295803284610145
0.231000000000000066,-16.910089899444475492
0.232000000000000067,-17.240888190287257942
0.233000000000000068,-17.547061310487439556
0.234000000000000069,-17.829042589629978011
0.235000000000000070,-18.087326102768361835
0.236000000000000071,-18.322463990569112013
0.237000000000000072,-18.535063148354272045
0.238000000000000073,-18.725781381745164822
0.239000000000000073,-18.895323123699910184
0.240000000000000074,-19.044434803763994779
0.241000000000000075,-19.173899955531787498
0.242000000000000076,-19.284534142847117977
0.243000000000000077,-19.377179779329729570
0.244000000000000078,-19.452700909557886888
0.245000000000000079,-19.511978013803641829
0.246000000000000080,-19.555902891726010040
0.247000000000000081,-19.585373673979439957
0.248000000000000081,-19.601290004376387799
0.249000000000000082,-19.604548429124200482
0.250000000000000111,-19.596038023794616123
0.251000000000000112,-19.576636283123850291
0.252000000000000113,-19.547205293516416447
0.253000000000000114,-19.508588203258970140
0.254000000000000115,-19.461606000960404828
0.255000000000000115,-19.407054608624136449
0.256000000000000116,-19.345702292035166892
0.257000000000000117,-19.278287387800396857
0.258000000000000118,-19.205516343408611135
0.259000000000000119,-19.128062064066760684
0.260000000000000120,-19.046562557803770943
0.261000000000000121,-18.961619868397164623
0.262000000000000122,-18.873799284052285685
0.263000000000000123,-18.783628808427927481
0.264000000000000123,-18.691598879536606148
0.265000000000000124,-18.598162321229626315
0.266000000000000125,-18.503734511387698092
0.267000000000000126,-18.408693750553563717
0.268000000000000127,-18.313381814546158211
0.269000000000000128,-18.218104674564390422
0.270000000000000129,-18.123133368404875654
0.271000000000000130,-18.028705006663066968
0.272000000000000131,-17.935023898144951460
0.273000000000000131,-17.842262779169161035
0.274000000000000132,-17.750564131973725068
0.275000000000000133,-17.660041578042683597
0.276000000000000134,-17.570781332822551946
0.277000000000000135,-17.482843708996028909
0.278000000000000136,-17.396264656209080357
0.279000000000000137,-17.311057325898019599
0.280000000000000138,-17.227213650627064112
0.281000000000000139,-17.144705928115687499
0.282000000000000139,-17.063488400902684816
0.283000000000000140,-16.983498823353897933
0.284000000000000141,-16.904660008467367049
0.285000000000000142,-16.826881347659945476
0.286000000000000143,-16.750060297427918243
0.287000000000000144,-16.674083827458328955
0.288000000000000145,-16.598829825426022921
0.289000000000000146,-16.524168454339157819
0.290000000000000147,-16.449963458894586665
0.291000000000000147,-16.376073417870362192
0.292000000000000148,-16.302352940116730196
0.293000000000000149,-16.228653802207730905
0.294000000000000150,-16.154826026283132023
0.295000000000000151,-16.080718897045702676
0.296000000000000152,-16.006181917280780880
0.297000000000000153,-15.931065701635830578
0.298000000000000154,-15.855222808736609608
0.299000000000000155,-15.778508512025592125
0.300000000000000155,-15.700781509988004814
0.301000000000000156,-15.621904576681867383
0.302000000000000157,-15.541745153713304006
0.303000000000000158,-15.460175884996695927
0.304000000000000159,-15.377075095813941275
0.305000000000000160,-15.292327217837481612
0.306000000000000161,-15.205823161911805386
0.307000000000000162,-15.117460640496494406
0.308000000000000163,-15.027144441763601534
0.309000000000000163,-14.934786657414132804
0.310000000000000164,-14.840306866333657254
0.311000000000000165,-14.743632276246776414
0.312000000000000166,-14.644697825556534099
0.313000000000000167,-14.543446247567496599
0.314000000000000168,-14.439828099292537189
0.315000000000000169,-14.333801757034018820
0.316000000000000170,-14.225333380910845094
0.317000000000000171,-14.114396850475269929
0.318000000000000171,-14.000973673527738583
0.319000000000000172,-13.885052870195963237
0.320000000000000173,-13.766630834296162078
0.321000000000000174,-13.645711173940876293
0.322000000000000175,-13.522304533300104623
0.323000000000000176,-13.396428397360821805
0.324000000000000177,-13.268106881465110192
0.325000000000000178,-13.137370507339962700
0.326000000000000179,-13.004255967262750460
0.327000000000000179,-12.868805877935272974
0.328000000000000180,-12.731068525567852845
0.329000000000000181,-12.591097603602909416
0.330000000000000182,-12.448951944434105243
0.331000000000000183,-12.304695246405980669
0.332000000000000184,-12.158395797306074115
0.333000000000000185,-12.010126195491119816
0.334000000000000186,-11.859963069718464368
0.335000000000000187,-11.707986798684922647
0.336000000000000187,-11.554281231208083369
0.337000000000000188,-11.398933407918770300
0.338000000000000189,-11.242033285269631193
0.339000000000000190,-11.083673462602185111
0.340000000000000191,-10.923948912954289270
0.341000000000000192,-10.762956718232247866
0.342000000000000193,-10.600795809314513818
0.343000000000000194,-10.437566711601172997
0.344000000000000195,-10.273371296470404701
0.345000000000000195,-10.108312539054391976
0.346000000000000196,-9.942494282699199104
0.347000000000000197,-9.776021010428289415
0.348000000000000198,-9.608997623686388323
0.349000000000000199,-9.441529228599565116
0.350000000000000200,-9.273720929949197611
0.351000000000000201,-9.105677633020702544
0.352000000000000202,-8.937503853453993230
0.353000000000000203,-8.769303535190429599
0.354000000000000203,-8.601179876580552275
0.355000000000000204,-8.433235164689060426
0.356000000000000205,-8.265570617807087572
0.357000000000000206,-8.098286236157296258
0.358000000000000207,-7.931480660754776757
0.359000000000000208,-7.765251040365829915
0.360000000000000209,-7.599692906487483413
0.361000000000000210,-7.434900056252868872
0.362000000000000210,-7.270964443151518353
0.363000000000000211,-7.107976075439090380
0.364000000000000212,-6.946022922097701446
0.365000000000000213,-6.785190826196138225
0.366000000000000214,-6.625563425488739888
0.367000000000000215,-6.467222080082146718
0.368000000000000216,-6.310245806991071404
0.369000000000000217,-6.154711221396842014
0.370000000000000218,-6.000692484416569883
0.371000000000000218,-5.848261257185400019
0.372000000000000219,-5.697486661050170653
0.373000000000000220,-5.548435243669360695
0.374000000000000221,-5.401170950811637894
0.375000000000000222,-5.255755103643333648
0.376000000000000223,-5.112246381294160535
0.377000000000000224,-4.970700808489856293
0.378000000000000225,-4.831171748040651082
0.379000000000000226,-4.693709897974905232
0.380000000000000226,-4.558363293108681269
0.381000000000000227,-4.425177310843368517
0.382000000000000228,-4.294194680985777168
0.383000000000000229,-4.165455499387462623
0.384000000000000230,-4.038997245202796904
0.385000000000000231,-3.914854801568639964
0.386000000000000232,-3.793060479511719763
0.387000000000000233,-3.673644044893566551
0.388000000000000234,-3.556632748206824512
0.389000000000000234,-3.442051357040933901
0.390000000000000235,-3.329922191039241142
0.391000000000000236,-3.220265159174503289
0.392000000000000237,-3.113097799173810909
0.393000000000000238,-3.008435318929173707
0.394000000000000239,-2.906290639734412373
0.395000000000000240,-2.806674441194103586
0.396000000000000241,-2.709595207655157711
0.397000000000000242,-2.615059276016515000
0.398000000000000242,-2.523070884777584233
0.399000000000000243,-2.433632224190859006
0.400000000000000244,-2.346743487389058025
0.401000000000000245,-2.262402922362551916
0.402000000000000246,-2.180606884667109391
0.403000000000000247,-2.101349890747335358
0.404000000000000248,-2.024624671765934636
0.405000000000000249,-1.950422227833601641
0.406000000000000250,-1.878731882539140141
0.407000000000000250,-1.809541337684056117
0.408000000000000251,-1.742836728130367163
0.409000000000000252,-1.678602676675018390
0.410000000000000253,-1.616822348868404591
0.411000000000000254,-1.557477507699167374
0.412000000000000255,-1.500548568071255584
0.413000000000000256,-1.446014651003714402
0.414000000000000257,-1.393853637487293184
0.415000000000000258,-1.344042221936247561
0.416000000000000258,-1.296555965177148551
0.417000000000000259,-1.251369346920442993
0.418000000000000260,-1.208455817663999676
0.419000000000000261,-1.167787849981231307
0.420000000000000262,-1.129336989149973380
0.421000000000000263,-1.093073903081358544
0.422000000000000264,-1.058968431511052133
0.423000000000000265,-1.026989634418345565
0.424000000000000266,-0.997105839641540426
0.425000000000000266,-0.969284689660658061
0.426000000000000267,-0.943493187521428522
0.427000000000000268,-0.919697741877021357
0.428000000000000269,-0.897864211126467304
0.429000000000000270,-0.877957946631062747
0.430000000000000271,-0.859943834992503708
0.431000000000000272,-0.843786339378437611
0.432000000000000273,-0.829449539883423848
0.433000000000000274,-0.816897172915170389
0.434000000000000274,-0.806092669597886613
0.435000000000000275,-0.796999193186297750
0.436000000000000276,-0.789579675485734822
0.437000000000000277,-0.783796852275209122
0.438000000000000278,-0.779613297732010269
0.439000000000000279,-0.776991457857837964
0.440000000000000280,-0.775893682907802917
0.441000000000000281,-0.776282258824972371
0.442000000000000282,-0.778119437684458126
0.443000000000000282,-0.781367467151997230
0.444000000000000283,-0.785988618963323504
0.445000000000000284,-0.791945216431440557
0.446000000000000285,-0.799199660989942440
0.447000000000000286,-0.807714457781498973
0.448000000000000287,-0.817452240301269173
0.449000000000000288,-0.828375794105966845
0.450000000000000289,-0.840448079599917186
0.451000000000000290,-0.853632253910081240
0.452000000000000290,-0.867891691862719639
0.453000000000000291,-0.883190006074839551
0.454000000000000292,-0.899491066174137766
0.455000000000000293,-0.916759017161555612
0.456000000000000294,-0.934958296931042154
0.457000000000000295,-0.954053652961394105
0.458000000000000296,-0.974010158195551368
0.459000000000000297,-0.994793226122755336
0.460000000000000298,-1.016368625079561827
0.461000000000000298,-1.038702491785540527
0.462000000000000299,-1.061761344130089046
0.463000000000000300,-1.085512093226569830
0.464000000000000301,-1.109922054750378084
0.465000000000000302,-1.134958959577443194
0.466000000000000303,-1.160590963739955850
0.467000000000000304,-1.186786657715841020
0.468000000000000305,-1.213515075068876792
0.469000000000000306,-1.240745700456066247
0.470000000000000306,-1.268448477018953691
0.471000000000000307,-1.296593813175558330
0.472000000000000308,-1.325152588829491718
0.473000000000000309,-1.354096161012698696
0.474000000000000310,-1.383396368978202506
0.475000000000000311,-1.413025538759231647
0.476000000000000312,-1.442956487210621308
0.477000000000000313,-1.473162525548725288
0.478000000000000314,-1.503617462405455019
0.479000000000000314,-1.534295606412211299
0.480000000000000315,-1.565171768329092439
0.481000000000000316,-1.596221262734720536
0.482000000000000317,-1.627419909291672795
0.483000000000000318,-1.658744033602433721
0.484000000000000319,-1.690170467670464305
0.485000000000000320,-1.721676549980824644
0.486000000000000321,-1.753240125214508227
0.487000000000000322,-1.784839543610429402
0.488000000000000322,-1.816453659988788161
0.489000000000000323,-1.848061832449191311
0.490000000000000324,-1.879643920756835396
0.491000000000000325,-1.911180284429602860
0.492000000000000326,-1.942651780538803719
0.493000000000000327,-1.974039761235988788
0.494000000000000328,-2.005326071017990763
0.495000000000000329,-2.036493043742123810
0.496000000000000330,-2.067523499403144616
0.497000000000000330,-2.098400740683413090
0.498000000000000331,-2.129108549287328955
0.499000000000000332,-2.159631182070863353
0.500000000000000333,-2.189953366976879146
0.501000000000000334,-2.220060298786479258
0.502000000000000335,-2.249937634696471456
0.503000000000000336,-2.279571489732772793
0.504000000000000337,-2.308948432009297669
0.505000000000000338,-2.338055477841608720
0.506000000000000338,-2.366880086724384658
0.507000000000000339,-2.395410156181491779
0.508000000000000340,-2.423634016497203891
0.509000000000000341,-2.451540425336826701
0.510000000000000342,-2.479118562264822412
0.511000000000000343,-2.506358023168221649
0.512000000000000344,-2.533248814592885534
0.513000000000000345,-2.559781347999937395
0.514000000000000346,-2.585946433949551704
0.515000000000000346,-2.611735276218849489
0.516000000000000347,-2.637139465860643295
0.517000000000000348,-2.662150975209459425
0.518000000000000349,-2.686762151841003643
0.519000000000000350,-2.710965712491096191
0.520000000000000351,-2.734754736939914110
0.521000000000000352,-2.758122661867046688
0.522000000000000353,-2.781063274682789022
0.523000000000000353,-2.803570707340901969
0.524000000000000354,-2.825639430137744768
0.525000000000000355,-2.847264245502678204
0.526000000000000356,-2.868440281784268464
0.527000000000000357,-2.889162987036791641
0.528000000000000358,-2.909428122811317685
0.529000000000000359,-2.929231757955335524
0.530000000000000360,-2.948570262424988098
0.531000000000000361,-2.967440301113569934
0.532000000000000361,-2.985838827699914155
0.533000000000000362,-3.003763078520059082
0.534000000000000363,-3.021210566465533098
0.535000000000000364,-3.038179074911316668
0.536000000000000365,-3.054666651676502198
0.537000000000000366,-3.070671603020467266
0.538000000000000367,-3.086192487677259511
0.539000000000000368,-3.101228110930770221
0.540000000000000369,-3.115777518733104046
0.541000000000000369,-3.129839991868454963
0.542000000000000370,-3.143415040164671659
0.543000000000000371,-3.156502396754555129
0.544000000000000372,-3.169102012388851808
0.545000000000000373,-3.181214049802723487
0.546000000000000374,-3.192838878137469472
0.547000000000000375,-3.203977067419029989
0.548000000000000376,-3.214629383094871340
0.549000000000000377,-3.224796780630550863
0.550000000000000377,-3.234480400167356606
0.551000000000000378,-3.243681561242159894
0.552000000000000379,-3.252401757570662078
0.553000000000000380,-3.260642651895022226
0.554000000000000381,-3.268406070896809013
0.555000000000000382,-3.275694000176206266
0.556000000000000383,-3.282508579298139217
0.557000000000000384,-3.288852096906146105
0.558000000000000385,-3.294726985904538274
0.559000000000000385,-3.300135818709477142
0.560000000000000386,-3.305081302569380597
0.561000000000000387,-3.309566274955174858
0.562000000000000388,-3.313593699020670247
0.563000000000000389,-3.317166659133421014
0.564000000000000390,-3.320288356476253533
0.565000000000000391,-3.322962104719707099
0.566000000000000392,-3.325191325765458394
0.567000000000000393,-3.326979545560842411
0.568000000000000393,-3.328330389984471172
0.569000000000000394,-3.329247580802942252
0.570000000000000395,-3.329734931698581590
0.571000000000000396,-3.329796344368046501
0.572000000000000397,-3.329435804691717404
0.573000000000000398,-3.328657378973625125
0.574000000000000399,-3.327465210251676186
0.575000000000000400,-3.325863514677957600
0.576000000000000401,-3.323856577968732129
0.577000000000000401,-3.321448751923876674
0.578000000000000402,-3.318644451015315244
0.579000000000000403,-3.315448149044077475
0.580000000000000404,-3.311864375865560817
0.581000000000000405,-3.307897714182517213
0.582000000000000406,-3.303552796405289538
0.583000000000000407,-3.298834301578779105
0.584000000000000408,-3.293746952375654846
0.585000000000000409,-3.288295512155179345
0.586000000000000409,-3.282484782087145447
0.587000000000000410,-3.276319598340305284
0.588000000000000411,-3.269804829334657992
0.589000000000000412,-3.262945373057032583
0.590000000000000413,-3.255746154439232320
0.591000000000000414,-3.248212122798180168
0.592000000000000415,-3.240348249337331232
0.593000000000000416,-3.232159524708672738
0.594000000000000417,-3.223650956634654730
0.595000000000000417,-3.214827567589323198
0.596000000000000418,-3.205694392537895787
0.597000000000000419,-3.196256476734183671
0.598000000000000420,-3.186518873574951893
0.599000000000000421,-3.176486642510646607
0.600000000000000422,-3.166164847011630368
0.601000000000000423,-3.155558552589221133
0.602000000000000424,-3.144672824870776928
0.603000000000000425,-3.133512727728080982
0.604000000000000425,-3.122083321458192895
0.605000000000000426,-3.110389661016110807
0.606000000000000427,-3.098436794298389252
0.607000000000000428,-3.086229760476952855
0.608000000000000429,-3.073773588382404665
0.609000000000000430,-3.061073294935935163
