# AuFCC100-Ablate75_CS-10471-AC
# h[nm],U(h)[kJ/mol]
0.149999999999999994,117.284061127769746236
0.150999999999999995,114.540874144528203260
0.151999999999999996,110.546683921770863890
0.152999999999999997,106.315571978122761720
0.153999999999999998,102.265250549206257347
0.154999999999999999,98.506575755346176493
0.156000000000000000,95.011698028806691241
0.157000000000000001,91.706188141473234055
0.158000000000000002,88.515017543640965414
0.159000000000000002,85.381713847851699484
0.160000000000000003,82.272889775709458604
0.161000000000000004,79.175609015827120629
0.162000000000000005,76.091961057485136166
0.163000000000000006,73.033244140170225478
0.164000000000000007,70.014933396035957003
0.165000000000000008,67.052884954069014611
0.166000000000000009,64.160821008240958463
0.167000000000000010,61.348936763578059583
0.168000000000000010,58.623388328272540093
0.169000000000000011,55.986408913587276004
0.170000000000000012,53.436825773555867158
0.171000000000000013,50.970791480454998634
0.172000000000000014,48.582588147324507588
0.173000000000000015,46.265405336355357235
0.174000000000000016,44.012028384548031568
0.175000000000000017,41.815402621926892834
0.176000000000000018,39.669060571084330036
0.177000000000000018,37.567414465473923713
0.178000000000000019,35.505926352306502736
0.179000000000000020,33.481173755887240873
0.180000000000000021,31.490831402521251903
0.181000000000000022,29.533589751853259742
0.182000000000000023,27.609029790836519425
0.183000000000000024,25.717471320491391396
0.184000000000000025,23.859809255989087973
0.185000000000000026,22.037349598848109622
0.186000000000000026,20.251653956221673525
0.187000000000000027,18.504398925410487919
0.188000000000000028,16.797254418295917588
0.189000000000000029,15.131783110167891238
0.190000000000000030,13.509361666855799200
0.191000000000000031,11.931123216916752483
0.192000000000000032,10.397919661323665963
0.193000000000000033,8.910301813079824385
0.194000000000000034,7.468514991618441456
0.195000000000000034,6.072507519850616653
0.196000000000000035,4.721949545648753244
0.197000000000000036,3.416259698305908810
0.198000000000000037,2.154637262342946169
0.199000000000000038,0.936097778808747782
0.200000000000000039,-0.240489754617064205
0.201000000000000040,-1.376365637068943659
0.202000000000000041,-2.472843446579968241
0.203000000000000042,-3.531276258479782992
0.204000000000000042,-4.553025857941593202
0.205000000000000043,-5.539435477445854517
0.206000000000000044,-6.491806388741574452
0.207000000000000045,-7.411378505002099715
0.208000000000000046,-8.299315002418385490
0.209000000000000047,-9.156690850582767993
0.210000000000000048,-9.984485046119694118
0.211000000000000049,-10.783576272058885692
0.212000000000000050,-11.554741654077707480
0.213000000000000050,-12.298658251462933677
0.214000000000000051,-13.015906902943831014
0.215000000000000052,-13.706978042964092168
0.216000000000000053,-14.372279110155272264
0.217000000000000054,-15.012143184585152511
0.218000000000000055,-15.626838511809665988
0.219000000000000056,-16.216578598101268227
0.220000000000000057,-16.781532590923415427
0.221000000000000058,-17.321835690437481503
0.222000000000000058,-17.837599370455251346
0.223000000000000059,-18.328921219848734125
0.224000000000000060,-18.795894247256374143
0.225000000000000061,-19.238615522386488976
0.226000000000000062,-19.657194055867527993
0.227000000000000063,-20.051757846107154393
0.228000000000000064,-20.422460045782024451
0.229000000000000065,-20.769484222265031548
0.230000000000000066,-21.093048705456659775
0.231000000000000066,-21.393410033139293347
0.232000000000000067,-21.670865518182274911
0.233000000000000068,-21.925754973796053093
0.234000000000000069,-22.158461642700409300
0.235000000000000070,-22.369412383688988655
0.236000000000000071,-22.559077174809850419
0.237000000000000072,-22.727967996417238083
0.238000000000000073,-22.876637159861065385
0.239000000000000073,-23.005675148747435799
0.240000000000000074,-23.115708039700830767
0.241000000000000075,-23.207394568550022029
0.242000000000000076,-23.281422906006344675
0.243000000000000077,-23.338507204350015911
0.244000000000000078,-23.379383973524895168
0.245000000000000079,-23.404808341487331802
0.246000000000000080,-23.415550249775087366
0.247000000000000081,-23.412390631155734155
0.248000000000000081,-23.396117611971170902
0.249000000000000082,-23.367522777491949171
0.250000000000000111,-23.327397534300779114
0.251000000000000112,-23.276529599493379408
0.252000000000000113,-23.215699642368242905
0.253000000000000114,-23.145678100308703762
0.254000000000000115,-23.067222186779229531
0.255000000000000115,-22.981073105780289723
0.256000000000000116,-22.887953483757179640
0.257000000000000117,-22.788565026845439832
0.258000000000000118,-22.683586408469714968
0.259000000000000119,-22.573671389695867617
0.260000000000000120,-22.459447172369600310
0.261000000000000121,-22.341512982952064448
0.262000000000000122,-22.220438883082771042
0.263000000000000123,-22.096764801249932475
0.264000000000000123,-21.970999778522170232
0.265000000000000124,-21.843621420079653461
0.266000000000000125,-21.715075543267225555
0.267000000000000126,-21.585776012062645179
0.268000000000000127,-21.456104747197620952
0.269000000000000128,-21.326411900674123956
0.270000000000000129,-21.197016183070122253
0.271000000000000130,-21.068205331814173320
0.272000000000000131,-20.940236708514618158
0.273000000000000131,-20.813338013443008379
0.274000000000000132,-20.687708105381791057
0.275000000000000133,-20.563517915241028788
0.276000000000000134,-20.440911442116714625
0.277000000000000135,-20.320006820794798585
0.278000000000000136,-20.200897450089374985
0.279000000000000137,-20.083653171832576589
0.280000000000000138,-19.968321490798849993
0.281000000000000139,-19.854928826339300230
0.282000000000000139,-19.743481787016975204
0.283000000000000140,-19.633968460063165651
0.284000000000000141,-19.526359708013856675
0.285000000000000142,-19.420610465428175928
0.286000000000000143,-19.316661029133246785
0.287000000000000144,-19.214438335976854688
0.288000000000000145,-19.113857222599687447
0.289000000000000146,-19.014821662256210288
0.290000000000000147,-18.917225974218293771
0.291000000000000147,-18.820956001783279987
0.292000000000000148,-18.725890255378963900
0.293000000000000149,-18.631901017708425883
0.294000000000000150,-18.538855408307920669
0.295000000000000151,-18.446616405299785413
0.296000000000000152,-18.355043822508683604
0.297000000000000153,-18.263995240473981596
0.298000000000000154,-18.173326890231514597
0.299000000000000155,-18.082894489057601106
0.300000000000000155,-17.992554027663466343
0.301000000000000156,-17.902162508602412316
0.302000000000000157,-17.811578635903970280
0.303000000000000158,-17.720663456180066220
0.304000000000000159,-17.629280951658323318
0.305000000000000160,-17.537298585787645777
0.306000000000000161,-17.444587802232298657
0.307000000000000162,-17.351024478223255443
0.308000000000000163,-17.256489333370360839
0.309000000000000163,-17.160868295157435170
0.310000000000000164,-17.064052822444722324
0.311000000000000165,-16.965940188390625565
0.312000000000000166,-16.866433724278447670
0.313000000000000167,-16.765443025793917542
0.314000000000000168,-16.662884123347609489
0.315000000000000169,-16.558679618072950745
0.316000000000000170,-16.452758785156753163
0.317000000000000171,-16.345057646175462196
0.318000000000000171,-16.235519012117801907
0.319000000000000172,-16.124092498773816118
0.320000000000000173,-16.010734516161868157
0.321000000000000174,-15.895408233650439200
0.322000000000000175,-15.778083522410264905
0.323000000000000176,-15.658736876806184313
0.324000000000000177,-15.537351316306390103
0.325000000000000178,-15.413916269451391372
0.326000000000000179,-15.288427441385863403
0.327000000000000179,-15.160886666413750490
0.328000000000000180,-15.031301746991767132
0.329000000000000181,-14.899686280529573779
0.330000000000000182,-14.766059475314353477
0.331000000000000183,-14.630445956827861309
0.332000000000000184,-14.492875565671138105
0.333000000000000185,-14.353383148259709401
0.334000000000000186,-14.212008341398597366
0.335000000000000187,-14.068795351792989123
0.336000000000000187,-13.923792731496813957
0.337000000000000188,-13.777053150248169899
0.338000000000000189,-13.628633165587825005
0.339000000000000190,-13.478592991604642748
0.340000000000000191,-13.326996267100238214
0.341000000000000192,-13.173909823915277428
0.342000000000000193,-13.019403456109440498
0.343000000000000194,-12.863549690639846546
0.344000000000000195,-12.706423560134869177
0.345000000000000195,-12.548102378315391547
0.346000000000000196,-12.388665518570743274
0.347000000000000197,-12.228194196154184681
0.348000000000000198,-12.066771254421574611
0.349000000000000199,-11.904480955496925532
0.350000000000000200,-11.741408775710926449
0.351000000000000201,-11.577641206121491280
0.352000000000000202,-11.413265558391017862
0.353000000000000203,-11.248369776261409214
0.354000000000000203,-11.083042252836335706
0.355000000000000204,-10.917371653850121760
0.356000000000000205,-10.751446747074123067
0.357000000000000206,-10.585356237984392180
0.358000000000000207,-10.419188611788934296
0.359000000000000208,-10.253031981888964808
0.360000000000000209,-10.086973944825961880
0.361000000000000210,-9.921101441745182825
0.362000000000000210,-9.755500626386517382
0.363000000000000211,-9.590256739595266922
0.364000000000000212,-9.425453990328284348
0.365000000000000213,-9.261175443114872508
0.366000000000000214,-9.097502911917498380
0.367000000000000215,-8.934516860323629572
0.368000000000000216,-8.772296307987801356
0.369000000000000217,-8.610918743231623651
0.370000000000000218,-8.450460041699290770
0.371000000000000218,-8.290994390956736737
0.372000000000000219,-8.132594220914352690
0.373000000000000220,-7.975330139945702612
0.374000000000000221,-7.819270876568127804
0.375000000000000222,-7.664483226545184991
0.376000000000000223,-7.511032005266057077
0.377000000000000224,-7.358980005252597323
0.378000000000000225,-7.208387958641185200
0.379000000000000226,-7.059314504483448438
0.380000000000000226,-6.911816160707753731
0.381000000000000227,-6.765947300581255597
0.382000000000000228,-6.621760133511361168
0.383000000000000229,-6.479304690024472180
0.384000000000000230,-6.338628810759480814
0.385000000000000231,-6.199778139314005898
0.386000000000000232,-6.062796118781337285
0.387000000000000233,-5.927723991817347660
0.388000000000000234,-5.794600804077605360
0.389000000000000234,-5.663463410866729220
0.390000000000000235,-5.534346486843377377
0.391000000000000236,-5.407282538626989599
0.392000000000000237,-5.282301920153989805
0.393000000000000238,-5.159432850634385836
0.394000000000000239,-5.038701434961827985
0.395000000000000240,-4.920131686433514950
0.396000000000000241,-4.803745551639107880
0.397000000000000242,-4.689562937381117180
0.398000000000000242,-4.577601739492509481
0.399000000000000243,-4.467877873420667001
0.400000000000000244,-4.360405306450102714
0.401000000000000245,-4.255196091440430983
0.402000000000000246,-4.152260401959027902
0.403000000000000247,-4.051606568691811461
0.404000000000000248,-3.953241117019367756
0.405000000000000249,-3.857168805649008103
0.406000000000000250,-3.763392666197302727
0.407000000000000250,-3.671914043621273827
0.408000000000000251,-3.582732637400018572
0.409000000000000252,-3.495846543372510329
0.410000000000000253,-3.411252296140550921
0.411000000000000254,-3.328944911949935026
0.412000000000000255,-3.248917931966092798
0.413000000000000256,-3.171163465864330622
0.414000000000000257,-3.095672235657997984
0.415000000000000258,-3.022433619691658357
0.416000000000000258,-2.951435696729469704
0.417000000000000259,-2.882665290072470743
0.418000000000000260,-2.816108011641690112
0.419000000000000261,-2.751748305967120167
0.420000000000000262,-2.689569494025870089
0.421000000000000263,-2.629553816875770167
0.422000000000000264,-2.571682479033644331
0.423000000000000265,-2.515935691550449604
0.424000000000000266,-2.462292714738374855
0.425000000000000266,-2.410731900507528724
0.426000000000000267,-2.361230734272703025
0.427000000000000268,-2.313765876393266474
0.428000000000000269,-2.268313203111675058
0.429000000000000270,-2.224847846958585507
0.430000000000000271,-2.183344236594928933
0.431000000000000272,-2.143776136063505255
0.432000000000000273,-2.106116683424922087
0.433000000000000274,-2.070338428754795235
0.434000000000000274,-2.036413371481184509
0.435000000000000275,-2.004312997043149469
0.436000000000000276,-1.974008312853304803
0.437000000000000277,-1.945469883548937018
0.438000000000000278,-1.918667865518094429
0.439000000000000279,-1.893572040688703551
0.440000000000000280,-1.870151849570302671
0.441000000000000281,-1.848376423539572100
0.442000000000000282,-1.828214616362348055
0.443000000000000282,-1.809635034946014853
0.444000000000000283,-1.792606069317747908
0.445000000000000284,-1.777095921825157188
0.446000000000000285,-1.763072635557083601
0.447000000000000286,-1.750504121983656347
0.448000000000000287,-1.739358187815462697
0.449000000000000288,-1.729602561083018575
0.450000000000000289,-1.721204916438524801
0.451000000000000290,-1.714132899682819344
0.452000000000000290,-1.708354151521368935
0.453000000000000291,-1.703836330553885947
0.454000000000000292,-1.700547135502976648
0.455000000000000293,-1.698454326687857119
0.456000000000000294,-1.697525746749961595
0.457000000000000295,-1.697729340637721851
0.458000000000000296,-1.699033174858609829
0.459000000000000297,-1.701405456006801042
0.460000000000000298,-1.704814548575581012
0.461000000000000298,-1.709228992063812402
0.462000000000000299,-1.714617517386506806
0.463000000000000300,-1.720949062599613111
0.464000000000000301,-1.728192787949745624
0.465000000000000302,-1.736318090259731051
0.466000000000000303,-1.745294616661285492
0.467000000000000304,-1.755092277686176372
0.468000000000000305,-1.765681259727751584
0.469000000000000306,-1.777032036884646615
0.470000000000000306,-1.789115382198807724
0.471000000000000307,-1.801902378300091367
0.472000000000000308,-1.815364427469839725
0.473000000000000309,-1.829473261135875717
0.474000000000000310,-1.844200948811498098
0.475000000000000311,-1.859519906491208463
0.476000000000000312,-1.875402904515679925
0.477000000000000313,-1.891823074918844494
0.478000000000000314,-1.908753918269693317
0.479000000000000314,-1.926169310021593306
0.480000000000000315,-1.944043506381701203
0.481000000000000316,-1.962351149713244425
0.482000000000000317,-1.981067273483141822
0.483000000000000318,-2.000167306767593800
0.484000000000000319,-2.019627078328017689
0.485000000000000320,-2.039422820269762848
0.486000000000000321,-2.059531171295811536
0.487000000000000322,-2.079929179567659769
0.488000000000000322,-2.100594305185407684
0.489000000000000323,-2.121504422298944981
0.490000000000000324,-2.142637820862065556
0.491000000000000325,-2.163973208041093610
0.492000000000000326,-2.185489709289531124
0.493000000000000327,-2.207166869100049222
0.494000000000000328,-2.228984651445006016
0.495000000000000329,-2.250923439916484803
0.496000000000000330,-2.272964037576694185
0.497000000000000330,-2.295087666529381121
0.498000000000000331,-2.317275967222774735
0.499000000000000332,-2.339510997494272715
0.500000000000000333,-2.361775231367103878
0.501000000000000334,-2.384051557608813710
0.502000000000000335,-2.406323278061342830
0.503000000000000336,-2.428574105752228984
0.504000000000000337,-2.450788162796331715
0.505000000000000338,-2.472949978097183088
0.506000000000000338,-2.495044484856982159
0.507000000000000339,-2.517057017903996829
0.508000000000000340,-2.538973310845950682
0.509000000000000341,-2.560779493057750766
0.510000000000000342,-2.582462086511807531
0.511000000000000343,-2.604008002458885862
0.512000000000000344,-2.625404537967332974
0.513000000000000345,-2.646639372328230877
0.514000000000000346,-2.667700563333991859
0.515000000000000346,-2.688576543437516619
0.516000000000000347,-2.709256115799005826
0.517000000000000348,-2.729728450227296044
0.518000000000000349,-2.749983079022338295
0.519000000000000350,-2.770009892725294520
0.520000000000000351,-2.789799135782635275
0.521000000000000352,-2.809341402130240084
0.522000000000000353,-2.828627630703501872
0.523000000000000353,-2.847649100879221074
0.524000000000000354,-2.866397427854805890
0.525000000000000355,-2.884864557970282739
0.526000000000000356,-2.903042763978285645
0.527000000000000357,-2.920924640267157368
0.528000000000000358,-2.938503098042121842
0.529000000000000359,-2.955771360469129583
0.530000000000000360,-2.972722957786195774
0.531000000000000361,-2.989351722386492050
0.532000000000000361,-3.005651783877595573
0.533000000000000362,-3.021617564120968158
0.534000000000000363,-3.037243772255725727
0.535000000000000364,-3.052525399710492415
0.536000000000000365,-3.067457715207071889
0.537000000000000366,-3.082036259759527219
0.538000000000000367,-3.096256841672050175
0.539000000000000368,-3.110115531538988343
0.540000000000000369,-3.123608657250147580
0.541000000000000369,-3.136732799004446903
0.542000000000000370,-3.149484784334824816
0.543000000000000371,-3.161861683147213942
0.544000000000000372,-3.173860802776258261
0.545000000000000373,-3.185479683060315814
0.546000000000000374,-3.196716091438251972
0.547000000000000375,-3.207568018070273475
0.548000000000000376,-3.218033670985158246
0.549000000000000377,-3.228111471255884712
0.550000000000000377,-3.237800048205772718
0.551000000000000378,-3.247098234647023851
0.552000000000000379,-3.256005062153501939
0.553000000000000380,-3.264519756369485215
0.554000000000000381,-3.272641732356025734
0.555000000000000382,-3.280370589976508988
0.556000000000000383,-3.287706109322807269
0.557000000000000384,-3.294648246183486062
0.558000000000000385,-3.301197127555321575
0.559000000000000385,-3.307353047199369733
0.560000000000000386,-3.313116461242706201
0.561000000000000387,-3.318487983826948096
0.562000000000000388,-3.323468382804518395
0.563000000000000389,-3.328058575483613168
0.564000000000000390,-3.332259624422685640
0.565000000000000391,-3.336072733275292190
0.566000000000000392,-3.339499242686010838
0.567000000000000393,-3.342540626238083235
0.568000000000000393,-3.345198486453410336
0.569000000000000394,-3.347474550845443098
0.570000000000000395,-3.349370668025497544
0.571000000000000396,-3.350888803862845489
0.572000000000000397,-3.352031037699107596
0.573000000000000398,-3.352799558617168607
0.574000000000000399,-3.353196661764959341
0.575000000000000400,-3.353224744734370599
0.576000000000000401,-3.352886303995441075
0.577000000000000401,-3.352183931386050197
0.578000000000000402,-3.351120310657171864
0.579000000000000403,-3.349698214073796976
0.580000000000000404,-3.347920499071562084
0.581000000000000405,-3.345790104969084133
0.582000000000000406,-3.343310049735962686
0.583000000000000407,-3.340483426816380330
0.584000000000000408,-3.337313402008242669
0.585000000000000409,-3.333803210397656702
0.586000000000000409,-3.329956153348646808
0.587000000000000410,-3.325775595547921792
0.588000000000000411,-3.321264962104419904
0.589000000000000412,-3.316427735703478596
0.590000000000000413,-3.311267453815267992
0.591000000000000414,-3.305787705957300204
0.592000000000000415,-3.299992131010619723
0.593000000000000416,-3.293884414589391518
0.594000000000000417,-3.287468286463526734
0.595000000000000417,-3.280747518033964916
0.596000000000000418,-3.273725919860228650
0.597000000000000419,-3.266407339239870034
0.598000000000000420,-3.258795657839329785
0.599000000000000421,-3.250894789375844418
0.600000000000000422,-3.242708677349895652
0.601000000000000423,-3.234241292827755299
0.602000000000000424,-3.225496632273658459
0.603000000000000425,-3.216478715431123625
0.604000000000000425,-3.207191583252866796
0.605000000000000426,-3.197639295878878851
0.606000000000000427,-3.187825930662097296
0.607000000000000428,-3.177755580241130140
0.608000000000000429,-3.167432350659567408
0.609000000000000430,-3.156860359531240334
