# AuFCC100-Ablate75_CS-12814-AC
# h[nm],U(h)[kJ/mol]
0.149999999999999994,140.756157380377061372
0.150999999999999995,136.369772984038263530
0.151999999999999996,132.056434400516423011
0.152999999999999997,127.806200002342308153
0.153999999999999998,123.639131478345305482
0.154999999999999999,119.575796650107434971
0.156000000000000000,115.627157123633580227
0.157000000000000001,111.793704490782005223
0.158000000000000002,108.068260834168341944
0.159000000000000002,104.439578173539800332
0.160000000000000003,100.895437885571453762
0.161000000000000004,97.424808119182586097
0.162000000000000005,94.019049384676435466
0.163000000000000006,90.672345576710796422
0.164000000000000007,87.381590900342402506
0.165000000000000008,84.145949443492469300
0.166000000000000009,80.966262289481733205
0.167000000000000010,77.844428387486971133
0.168000000000000010,74.782840573742987544
0.169000000000000011,71.783921627481930727
0.170000000000000012,68.849778074187966581
0.171000000000000013,65.981970885512581049
0.172000000000000014,63.181390792536831214
0.173000000000000015,60.448219965004014398
0.174000000000000016,57.781959760578857299
0.175000000000000017,55.181504801614458700
0.176000000000000018,52.645245756014730887
0.177000000000000018,50.171186112351662700
0.178000000000000019,47.757061405741978888
0.179000000000000020,45.400452414453106087
0.180000000000000021,43.098886595248799836
0.181000000000000022,40.849924350404982931
0.182000000000000023,38.651228586529583708
0.183000000000000024,36.500617448082138594
0.184000000000000025,34.396101128880914644
0.185000000000000026,32.335904339842649335
0.186000000000000026,30.318476402848215656
0.187000000000000027,28.342491109904734969
0.188000000000000028,26.406838489528769998
0.189000000000000029,24.510610507206010311
0.190000000000000030,22.653082534607758447
0.191000000000000031,20.833692185744727254
0.192000000000000032,19.052016862796524066
0.193000000000000033,17.307751098801837486
0.194000000000000034,15.600684541988362852
0.195000000000000034,13.930681205912787135
0.196000000000000035,12.297660415781617615
0.197000000000000036,10.701579716518185847
0.198000000000000037,9.142419872443072748
0.199000000000000038,7.620171980490899166
0.200000000000000039,6.134826636379282050
0.201000000000000040,4.686365033191014717
0.202000000000000041,3.274751831283038150
0.203000000000000042,1.899929614114466148
0.204000000000000042,0.561814733427445701
0.205000000000000043,-0.739705653604927016
0.206000000000000044,-2.004775545673702197
0.207000000000000045,-3.233571234914047743
0.208000000000000046,-4.426301782333300849
0.209000000000000047,-5.583208974210089437
0.210000000000000048,-6.704566883235903774
0.211000000000000049,-7.790681138877731726
0.212000000000000050,-8.841887992941186880
0.213000000000000050,-9.858553249120378226
0.214000000000000051,-10.841071109784655491
0.215000000000000052,-11.789862979565487677
0.216000000000000053,-12.705376253552547183
0.217000000000000054,-13.588083108077180228
0.218000000000000055,-14.438479304075883647
0.219000000000000056,-15.257083006757559573
0.220000000000000057,-16.044433620593586909
0.221000000000000058,-16.801090635319440025
0.222000000000000058,-17.527632476509047876
0.223000000000000059,-18.224655353156499871
0.224000000000000060,-18.892772094404751471
0.225000000000000061,-19.532610967923019984
0.226000000000000062,-20.144814473298325197
0.227000000000000063,-20.730038105034871876
0.228000000000000064,-21.288949081221876014
0.229000000000000065,-21.822225035535009141
0.230000000000000066,-22.330552671884671412
0.231000000000000066,-22.814626382649230152
0.232000000000000067,-23.275146832970115440
0.233000000000000068,-23.712819514997661940
0.234000000000000069,-24.128353277227422069
0.235000000000000070,-24.522458835136106359
0.236000000000000071,-24.895847270200128776
0.237000000000000072,-25.249228525056309991
0.238000000000000073,-25.583309903041470790
0.239000000000000073,-25.898794580634660889
0.240000000000000074,-26.196380141433802891
0.241000000000000075,-26.476757140239726596
0.242000000000000076,-26.740607705611346034
0.243000000000000077,-26.988604188915680027
0.244000000000000078,-27.221407867440468920
0.245000000000000079,-27.439667708585933070
0.246000000000000080,-27.644019201522326057
0.247000000000000081,-27.835083262010975602
0.248000000000000081,-28.013465215351438076
0.249000000000000082,-28.179753861655235880
0.250000000000000111,-28.334520626869640125
0.251000000000000112,-28.478318802194714010
0.252000000000000113,-28.611682873769460400
0.253000000000000114,-28.735127943750047308
0.254000000000000115,-28.849149243183223490
0.255000000000000115,-28.954221736389104791
0.256000000000000116,-29.050799815921955371
0.257000000000000117,-29.139317086576475901
0.258000000000000118,-29.220186236354454223
0.259000000000000119,-29.293798991805925169
0.260000000000000120,-29.360526154711390490
0.261000000000000121,-29.420717716675603981
0.262000000000000122,-29.474703047862796268
0.263000000000000123,-29.522791155813173702
0.264000000000000123,-29.565271010042856403
0.265000000000000124,-29.602411927939904501
0.266000000000000125,-29.634464017327577068
0.267000000000000126,-29.661658670968204632
0.268000000000000127,-29.684209108225779516
0.269000000000000128,-29.702310959088105591
0.270000000000000129,-29.716142885768864090
0.271000000000000130,-29.725867237161175183
0.272000000000000131,-29.731630731496004216
0.273000000000000131,-29.733565162666064197
0.274000000000000132,-29.731788125806765777
0.275000000000000133,-29.726403757877950085
0.276000000000000134,-29.717503489158200836
0.277000000000000135,-29.705166801747530769
0.278000000000000136,-29.689461991369945792
0.279000000000000137,-29.670446928972769030
0.280000000000000138,-29.648169818831981104
0.281000000000000139,-29.622669950090717350
0.282000000000000139,-29.593978438879123161
0.283000000000000140,-29.562118958385404710
0.284000000000000141,-29.527108454470504029
0.285000000000000142,-29.488957844638115091
0.286000000000000143,-29.447672698389119716
0.287000000000000144,-29.403253897201430789
0.288000000000000145,-29.355698272583957475
0.289000000000000146,-29.304999220853261477
0.290000000000000147,-29.251147293476151390
0.291000000000000147,-29.194130762006288649
0.292000000000000148,-29.133936156821810926
0.293000000000000149,-29.070548779038926313
0.294000000000000150,-29.003953185137447690
0.295000000000000151,-28.934133643984559114
0.296000000000000152,-28.861074566085068938
0.297000000000000153,-28.784760905018636379
0.298000000000000154,-28.705178531146913201
0.299000000000000155,-28.622314577787967949
0.300000000000000155,-28.536157760158523899
0.301000000000000156,-28.446698667481154388
0.302000000000000157,-28.353930028739302571
0.303000000000000158,-28.257846952641180849
0.304000000000000159,-28.158447142423920440
0.305000000000000160,-28.055731086189972245
0.306000000000000161,-27.949702223523253508
0.307000000000000162,-27.840367089178236881
0.308000000000000163,-27.727735434675821580
0.309000000000000163,-27.611820328672457947
0.310000000000000164,-27.492638236996931766
0.311000000000000165,-27.370209083269379846
0.312000000000000166,-27.244556291033706685
0.313000000000000167,-27.115706808344793188
0.314000000000000168,-26.983691115757700629
0.315000000000000169,-26.848543218667476395
0.316000000000000170,-26.710300624946107462
0.317000000000000171,-26.569004308815845405
0.318000000000000171,-26.424698661889273410
0.319000000000000172,-26.277431432293248292
0.320000000000000173,-26.127253652778442472
0.321000000000000174,-25.974219558697928534
0.322000000000000175,-25.818386496718204626
0.323000000000000176,-25.659814825103900660
0.324000000000000177,-25.498567806393090507
0.325000000000000178,-25.334711493255397841
0.326000000000000179,-25.168314608297954749
0.327000000000000179,-24.999448418557115303
0.328000000000000180,-24.828186605384892971
0.329000000000000181,-24.654605130410907066
0.330000000000000182,-24.478782098229828534
0.331000000000000183,-24.300797616435957593
0.332000000000000184,-24.120733653595177515
0.333000000000000185,-23.938673895715520956
0.334000000000000186,-23.754703601747291231
0.335000000000000187,-23.568909458613536145
0.336000000000000187,-23.381379436243275194
0.337000000000000188,-23.192202643049505184
0.338000000000000189,-23.001469182266788494
0.339000000000000190,-22.809270009534234447
0.340000000000000191,-22.615696792082655264
0.341000000000000192,-22.420841769858355974
0.342000000000000193,-22.224797618889002848
0.343000000000000194,-22.027657317173087392
0.344000000000000195,-21.829514013348738644
0.345000000000000195,-21.630460898375201140
0.346000000000000196,-21.430591080436570905
0.347000000000000197,-21.229997463256104595
0.348000000000000198,-21.028772627988139732
0.349000000000000199,-20.827008718834438383
0.350000000000000200,-20.624797332512748937
0.351000000000000201,-20.422229411686846134
0.352000000000000202,-20.219395142449833713
0.353000000000000203,-20.016383855936076941
0.354000000000000203,-19.813283934121106000
0.355000000000000204,-19.610182719854307720
0.356000000000000205,-19.407166431154902142
0.357000000000000206,-19.204320079788836040
0.358000000000000207,-19.001727394131410875
0.359000000000000208,-18.799470746309427938
0.360000000000000209,-18.597631083605310920
0.361000000000000210,-18.396287864096052544
0.362000000000000210,-18.195518996490065433
0.363000000000000211,-17.995400784116760917
0.364000000000000212,-17.796007873015703638
0.365000000000000213,-17.597413204064480396
0.366000000000000214,-17.399687969078481586
0.367000000000000215,-17.202901570809039811
0.368000000000000216,-17.007121586761446252
0.369000000000000217,-16.812413736749075355
0.370000000000000218,-16.618841854095855126
0.371000000000000218,-16.426467860394964760
0.372000000000000219,-16.235351743728763552
0.373000000000000220,-16.045551540251693723
0.374000000000000221,-15.857123319035583364
0.375000000000000222,-15.670121170074541084
0.376000000000000223,-15.484597195345125797
0.377000000000000224,-15.300601502816045141
0.378000000000000225,-15.118182203300653654
0.379000000000000226,-14.937385410044901946
0.380000000000000226,-14.758255240943134012
0.381000000000000227,-14.580833823273692929
0.382000000000000228,-14.405161300847149519
0.383000000000000229,-14.231275843459673780
0.384000000000000230,-14.059213658545251846
0.385000000000000231,-13.889009004921211599
0.386000000000000232,-13.720694208522417057
0.387000000000000233,-13.554299680020999830
0.388000000000000234,-13.389853934229639876
0.389000000000000234,-13.227383611188404444
0.390000000000000235,-13.066913498836148833
0.391000000000000236,-12.908466557170175548
0.392000000000000237,-12.752063943798898293
0.393000000000000238,-12.597725040795049622
0.394000000000000239,-12.445467482758447275
0.395000000000000240,-12.295307185999988064
0.396000000000000241,-12.147258378760502850
0.397000000000000242,-12.001333632380456251
0.398000000000000242,-11.857543893338968743
0.399000000000000243,-11.715898516082857483
0.400000000000000244,-11.576405296568653469
0.401000000000000245,-11.439070506443584918
0.402000000000000246,-11.303898927793230911
0.403000000000000247,-11.170893888386320469
0.404000000000000248,-11.040057297349829213
0.405000000000000249,-10.911389681209607616
0.406000000000000250,-10.784890220234334635
0.407000000000000250,-10.660556785023144855
0.408000000000000251,-10.538385973279455143
0.409000000000000252,-10.418373146716197297
0.410000000000000253,-10.300512468039631386
0.411000000000000254,-10.184796937961637653
0.412000000000000255,-10.071218432192383219
0.413000000000000256,-9.959767738367714784
0.414000000000000257,-9.850434592867610917
0.415000000000000258,-9.743207717484530406
0.416000000000000258,-9.638074855902328153
0.417000000000000259,-9.535022809948625166
0.418000000000000260,-9.434037475585595800
0.419000000000000261,-9.335103878606018313
0.420000000000000262,-9.238206210003511387
0.421000000000000263,-9.143327860987687572
0.422000000000000264,-9.050451457616784268
0.423000000000000265,-8.959558895022139424
0.424000000000000266,-8.870631371200806470
0.425000000000000266,-8.783649420353901505
0.426000000000000267,-8.698592945750272420
0.427000000000000268,-8.615441252096534441
0.428000000000000269,-8.534173077395971418
0.429000000000000270,-8.454766624280461329
0.430000000000000271,-8.377199590800788798
0.431000000000000272,-8.301449200662343486
0.432000000000000273,-8.227492232894281443
0.433000000000000274,-8.155305050941688449
0.434000000000000274,-8.084863631171426590
0.435000000000000275,-8.016143590783524786
0.436000000000000276,-7.949120215121169508
0.437000000000000277,-7.883768484373296026
0.438000000000000278,-7.820063099665006234
0.439000000000000279,-7.757978508531905959
0.440000000000000280,-7.697488929775379241
0.441000000000000281,-7.638568377696804745
0.442000000000000282,-7.581190685709610300
0.443000000000000282,-7.525329529328637079
0.444000000000000283,-7.470958448537449392
0.445000000000000284,-7.418050869534608793
0.446000000000000285,-7.366580125860761719
0.447000000000000286,-7.316519478909214058
0.448000000000000287,-7.267842137822936088
0.449000000000000288,-7.220521278781878216
0.450000000000000289,-7.174530063684831482
0.451000000000000290,-7.129841658230600565
0.452000000000000290,-7.086429249403865427
0.453000000000000291,-7.044266062371382198
0.454000000000000292,-7.003325376794796497
0.455000000000000293,-6.963580542566559117
0.456000000000000294,-6.925004994975928696
0.457000000000000295,-6.887572269312299156
0.458000000000000296,-6.851256014913500891
0.459000000000000297,-6.816030008666887241
0.460000000000000298,-6.781868167971426331
0.461000000000000298,-6.748744563169074340
0.462000000000000299,-6.716633429454184068
0.463000000000000300,-6.685509178269579245
0.464000000000000301,-6.655346408198409058
0.465000000000000302,-6.626119915360800583
0.466000000000000303,-6.597804703324712250
0.467000000000000304,-6.570375992540162358
0.468000000000000305,-6.543809229306551067
0.469000000000000306,-6.518080094282471926
0.470000000000000306,-6.493164510547754453
0.471000000000000307,-6.469038651227331016
0.472000000000000308,-6.445678946686771660
0.473000000000000309,-6.423062091309169830
0.474000000000000310,-6.401165049863098311
0.475000000000000311,-6.379965063471546571
0.476000000000000312,-6.359439655191491347
0.477000000000000313,-6.339566635213815360
0.478000000000000314,-6.320324105693349459
0.479000000000000314,-6.301690465218686477
0.480000000000000315,-6.283644412931280065
0.481000000000000316,-6.266164952303538094
0.482000000000000317,-6.249231394585228472
0.483000000000000318,-6.232823361927694705
0.484000000000000319,-6.216920790195174185
0.485000000000000320,-6.201503931472471365
0.486000000000000321,-6.186553356278071014
0.487000000000000322,-6.172049955491785589
0.488000000000000322,-6.157974942005798091
0.489000000000000323,-6.144309852107986636
0.490000000000000324,-6.131036546606177140
0.491000000000000325,-6.118137211701943912
0.492000000000000326,-6.105594359622346090
0.493000000000000327,-6.093390829018024313
0.494000000000000328,-6.081509785135780888
0.495000000000000329,-6.069934719773744547
0.496000000000000330,-6.058649451027039667
0.497000000000000330,-6.047638122831743068
0.498000000000000331,-6.036885204314829778
0.499000000000000332,-6.026375488957541826
0.500000000000000333,-6.016094093579627433
0.501000000000000334,-6.006026457151635967
0.502000000000000335,-5.996158339442359875
0.503000000000000336,-5.986475819508385143
0.504000000000000337,-5.976965294032500431
0.505000000000000338,-5.967613475517652866
0.506000000000000338,-5.958407390342949306
0.507000000000000339,-5.949334376688031334
0.508000000000000340,-5.940382082332069658
0.509000000000000341,-5.931538462333429074
0.510000000000000342,-5.922791776595941471
0.511000000000000343,-5.914130587327537825
0.512000000000000344,-5.905543756396909316
0.513000000000000345,-5.897020442593664313
0.514000000000000346,-5.888550098797389332
0.515000000000000346,-5.880122469060745871
0.516000000000000347,-5.871727585611738576
0.517000000000000348,-5.863355765780121409
0.518000000000000349,-5.854997608852651858
0.519000000000000350,-5.846643992861941364
0.520000000000000351,-5.838286071313445902
0.521000000000000352,-5.829915269854948789
0.522000000000000353,-5.821523282892846041
0.523000000000000353,-5.813102070159374968
0.524000000000000354,-5.804643853234866313
0.525000000000000355,-5.796141112028818654
0.526000000000000356,-5.787586581223658655
0.527000000000000357,-5.778973246684826037
0.528000000000000358,-5.770294341840729757
0.529000000000000359,-5.761543344035952252
0.530000000000000360,-5.752713970861114134
0.531000000000000361,-5.743800176462505291
0.532000000000000361,-5.734796147834630986
0.533000000000000362,-5.725696301098614605
0.534000000000000363,-5.716495277769404026
0.535000000000000364,-5.707187941014455923
0.536000000000000365,-5.697769371906668212
0.537000000000000366,-5.688234865674073326
0.538000000000000367,-5.678579927948771200
0.539000000000000368,-5.668800271017556902
0.540000000000000369,-5.658891810076392304
0.541000000000000369,-5.648850659491058579
0.542000000000000370,-5.638673129066026135
0.543000000000000371,-5.628355720323542144
0.544000000000000372,-5.617895122794955398
0.545000000000000373,-5.607288210326027311
0.546000000000000374,-5.596532037398093351
0.547000000000000375,-5.585623835466686060
0.548000000000000376,-5.574561009319318750
0.549000000000000377,-5.563341133453909571
0.550000000000000377,-5.551961948479315012
0.551000000000000378,-5.540421357539402791
0.552000000000000379,-5.528717422761987521
0.553000000000000380,-5.516848361733845962
0.554000000000000381,-5.504812544003042873
0.555000000000000382,-5.492608487609739853
0.556000000000000383,-5.480234855646401115
0.557000000000000384,-5.467690452848623650
0.558000000000000385,-5.454974222217338742
0.559000000000000385,-5.442085241673428442
0.560000000000000386,-5.429022720745470210
0.561000000000000387,-5.415785997291504117
0.562000000000000388,-5.402374534255481642
0.563000000000000389,-5.388787916459095939
0.564000000000000390,-5.375025847429641956
0.565000000000000391,-5.361088146264471277
0.566000000000000392,-5.346974744532599466
0.567000000000000393,-5.332685683213954420
0.568000000000000393,-5.318221109676692038
0.569000000000000394,-5.303581274693054404
0.570000000000000395,-5.288766529494092872
0.571000000000000396,-5.273777322863564265
0.572000000000000397,-5.258614198271389206
0.573000000000000398,-5.243277791046842218
0.574000000000000399,-5.227768825591735613
0.575000000000000400,-5.212088112633794346
0.576000000000000401,-5.196236546520355049
0.577000000000000401,-5.180215102552572226
0.578000000000000402,-5.164024834360150251
0.579000000000000403,-5.147666871316751269
0.580000000000000404,-5.131142415996061246
0.581000000000000405,-5.114452741668574554
0.582000000000000406,-5.097599189839059797
0.583000000000000407,-5.080583167824668678
0.584000000000000408,-5.063406146373671035
0.585000000000000409,-5.046069657324689040
0.586000000000000409,-5.028575291306347950
0.587000000000000410,-5.010924695477244839
0.588000000000000411,-4.993119571306047888
0.589000000000000412,-4.975161672391615220
0.590000000000000413,-4.957052802322905904
0.591000000000000414,-4.938794812578537474
0.592000000000000415,-4.920389600465751911
0.593000000000000416,-4.901839107098538761
0.594000000000000417,-4.883145315414748389
0.595000000000000417,-4.864310248231872080
0.596000000000000418,-4.845335966341211886
0.597000000000000419,-4.826224566640267000
0.598000000000000420,-4.806978180302882819
0.599000000000000421,-4.787598970987000158
0.600000000000000422,-4.768089133079607578
0.601000000000000423,-4.748450889978603762
0.602000000000000424,-4.728686492411228848
0.603000000000000425,-4.708798216788734337
0.604000000000000425,-4.688788363596909647
0.605000000000000426,-4.668659255822130483
0.606000000000000427,-4.648413237412605703
0.607000000000000428,-4.628052671774303128
0.608000000000000429,-4.607579940301411270
