# AuFCC100-Ablate75_CS-19489-AC
# h[nm],U(h)[kJ/mol]
0.149999999999999994,114.238258587958213752
0.150999999999999995,111.289010398470693985
0.151999999999999996,107.183816267125479271
0.152999999999999997,102.893386129387380379
0.153999999999999998,98.806286379197075576
0.154999999999999999,95.015965740519135352
0.156000000000000000,91.485892338853091132
0.157000000000000001,88.138862933481647133
0.158000000000000002,84.900667355863888019
0.159000000000000002,81.717503011126296997
0.160000000000000003,78.559295622838163808
0.161000000000000004,75.416298286398614437
0.162000000000000005,72.293237523242851239
0.163000000000000006,69.203309194956460715
0.164000000000000007,66.163120471889058649
0.165000000000000008,63.188965361289476164
0.166000000000000009,60.294432185614866171
0.167000000000000010,57.489151553764294533
0.168000000000000010,54.778422906857301200
0.169000000000000011,52.163454636425569788
0.170000000000000012,49.641984053251874798
0.171000000000000013,47.209088886982840449
0.172000000000000014,44.858049717522234801
0.173000000000000015,42.581166433886586731
0.174000000000000016,40.370468567012501637
0.175000000000000017,38.218288298543754422
0.176000000000000018,36.117686426528770482
0.177000000000000018,34.062736483908857110
0.178000000000000019,32.048681705071793147
0.179000000000000020,30.071984791151226801
0.180000000000000021,28.130292514060379006
0.181000000000000022,26.222337051012193143
0.182000000000000023,24.347794316873301312
0.183000000000000024,22.507117059545318938
0.184000000000000025,20.701357555193148130
0.185000000000000026,18.931991711504220888
0.186000000000000026,17.200753481215961926
0.187000000000000027,15.509485846323789460
0.188000000000000028,13.860012334756490304
0.189000000000000029,12.254031108987799570
0.190000000000000030,10.693032120641344562
0.191000000000000031,9.178236635502079466
0.192000000000000032,7.710557564930200947
0.193000000000000033,6.290578450814503064
0.194000000000000034,4.918548597680747037
0.195000000000000034,3.594391683774004864
0.196000000000000035,2.317725171991213529
0.197000000000000036,1.087887944563690201
0.198000000000000037,-0.096026229850621730
0.199000000000000038,-1.235131548880246344
0.200000000000000039,-2.330711230296341085
0.201000000000000040,-3.384178363877363260
0.202000000000000041,-4.397037874205937058
0.203000000000000042,-5.370850634490799358
0.204000000000000042,-6.307200517333415135
0.205000000000000043,-7.207664937837506614
0.206000000000000044,-8.073789240516671128
0.207000000000000045,-8.907065105347015788
0.208000000000000046,-9.708913000021272666
0.209000000000000047,-10.480668584003613120
0.210000000000000048,-11.223572873692999607
0.211000000000000049,-11.938765904747100421
0.212000000000000050,-12.627283575000264548
0.213000000000000050,-13.290057316892518458
0.214000000000000051,-13.927916229375261636
0.215000000000000052,-14.541591293399061868
0.216000000000000053,-15.131721299984439710
0.217000000000000054,-15.698860133369157310
0.218000000000000055,-16.243485071855079838
0.219000000000000056,-16.766005794002033724
0.220000000000000057,-17.266773806213443265
0.221000000000000058,-17.746092038212498920
0.222000000000000058,-18.204224384322188257
0.223000000000000059,-18.641404999913977036
0.224000000000000060,-19.057847193146571385
0.225000000000000061,-19.453751781594206705
0.226000000000000062,-19.829314811122696227
0.227000000000000063,-20.184734560095044742
0.228000000000000064,-20.520217775462619159
0.229000000000000065,-20.835985108402280019
0.230000000000000066,-21.132275735844395115
0.231000000000000066,-21.409351170516639939
0.232000000000000067,-21.667498276064399931
0.233000000000000068,-21.907031515501479646
0.234000000000000069,-22.128294470822581275
0.235000000000000070,-22.331660679221432275
0.236000000000000071,-22.517533837165881749
0.237000000000000072,-22.686347427756480499
0.238000000000000073,-22.838563829506959735
0.239000000000000073,-22.974672966105796235
0.240000000000000074,-23.095190557015946808
0.241000000000000075,-23.200656028100382855
0.242000000000000076,-23.291630139978259706
0.243000000000000077,-23.368692389659596387
0.244000000000000078,-23.432438238305337563
0.245000000000000079,-23.483476214832460727
0.246000000000000080,-23.522424941638156781
0.247000000000000081,-23.549910125048278076
0.248000000000000081,-23.566561549286976884
0.249000000000000082,-23.573010108891001124
0.250000000000000111,-23.569884910617524554
0.251000000000000112,-23.557810472070936925
0.252000000000000113,-23.537404040549844808
0.253000000000000114,-23.509273052023708317
0.254000000000000115,-23.474012746723825984
0.255000000000000115,-23.432203954593774142
0.256000000000000116,-23.384411060811494565
0.257000000000000117,-23.331180158777904410
0.258000000000000118,-23.273037395373837199
0.259000000000000119,-23.210487510921666399
0.260000000000000120,-23.144012574149925854
0.261000000000000121,-23.074070910544641322
0.262000000000000122,-23.001096220776556578
0.263000000000000123,-22.925496884409565013
0.264000000000000123,-22.847655442814723159
0.265000000000000124,-22.767928254125571641
0.266000000000000125,-22.686645312163239652
0.267000000000000126,-22.604110220521899777
0.268000000000000127,-22.520600312424839728
0.269000000000000128,-22.436366906526060916
0.270000000000000129,-22.351635688529892576
0.271000000000000130,-22.266607208319015854
0.272000000000000131,-22.181457482208116971
0.273000000000000131,-22.096338689964092339
0.274000000000000132,-22.011379956343237296
0.275000000000000133,-21.926688207081380000
0.276000000000000134,-21.842349089522738126
0.277000000000000135,-21.758427948379924999
0.278000000000000136,-21.674970847470611091
0.279000000000000137,-21.592005628668353268
0.280000000000000138,-21.509542999728523682
0.281000000000000139,-21.427577643097723836
0.282000000000000139,-21.346089338280584968
0.283000000000000140,-21.265044090815603539
0.284000000000000141,-21.184395261395991383
0.285000000000000142,-21.104084689159009258
0.286000000000000143,-21.024043803652190832
0.287000000000000144,-20.944194720464658133
0.288000000000000145,-20.864451315983817636
0.289000000000000146,-20.784720277197141769
0.290000000000000147,-20.704902122906119644
0.291000000000000147,-20.624892193150337505
0.292000000000000148,-20.544581604054382495
0.293000000000000149,-20.463858165705737235
0.294000000000000150,-20.382607261049059844
0.295000000000000151,-20.300712684138780162
0.296000000000000152,-20.218057436428139795
0.297000000000000153,-20.134524480088682452
0.298000000000000154,-20.049997447648422622
0.299000000000000155,-19.964361307511378385
0.300000000000000155,-19.877502985174182015
0.301000000000000156,-19.789311940188675010
0.302000000000000157,-19.699680699133203632
0.303000000000000158,-19.608505345049046298
0.304000000000000159,-19.515685963974526373
0.305000000000000160,-19.421127049366649686
0.306000000000000161,-19.324737865340978260
0.307000000000000162,-19.226432769784587151
0.308000000000000163,-19.126131498505028361
0.309000000000000163,-19.023759411672571673
0.310000000000000164,-18.919247703892331458
0.311000000000000165,-18.812533579309423715
0.312000000000000166,-18.703560393204991641
0.313000000000000167,-18.592277761583325457
0.314000000000000168,-18.478641640282685188
0.315000000000000169,-18.362614375164405089
0.316000000000000170,-18.244164724948326750
0.317000000000000171,-18.123267858267031016
0.318000000000000171,-17.999905326508518044
0.319000000000000172,-17.874065014007250340
0.320000000000000173,-17.745741067127188018
0.321000000000000174,-17.614933803758678010
0.322000000000000175,-17.481649604724250224
0.323000000000000176,-17.345900788557237604
0.324000000000000177,-17.207705471081535364
0.325000000000000178,-17.067087411182477297
0.326000000000000179,-16.924075844117346890
0.327000000000000179,-16.778705303669593007
0.328000000000000180,-16.631015434404979203
0.329000000000000181,-16.481050795240363982
0.330000000000000182,-16.328860655486000297
0.331000000000000183,-16.174498784473115620
0.332000000000000184,-16.018023235826991169
0.333000000000000185,-15.859496127395212639
0.334000000000000186,-15.698983417789289518
0.335000000000000187,-15.536554680446721832
0.336000000000000187,-15.372282876069956359
0.337000000000000188,-15.206244124248138760
0.338000000000000189,-15.038517475018258196
0.339000000000000190,-14.869184681073258858
0.340000000000000191,-14.698329971276928418
0.341000000000000192,-14.526039826099028218
0.342000000000000193,-14.352402755537800871
0.343000000000000194,-14.177509080053749102
0.344000000000000195,-14.001450714994694735
0.345000000000000195,-13.824320958951398453
0.346000000000000196,-13.646214286442496899
0.347000000000000197,-13.467226145289085792
0.348000000000000198,-13.287452759002459146
0.349000000000000199,-13.106990934472554144
0.350000000000000200,-12.925937875211397809
0.351000000000000201,-12.744391000372726097
0.352000000000000202,-12.562447769738739112
0.353000000000000203,-12.380205514835372682
0.354000000000000203,-12.197761276309764256
0.355000000000000204,-12.015211647677354279
0.356000000000000205,-11.832652625521467016
0.357000000000000206,-11.650179466204731327
0.358000000000000207,-11.467886549129781670
0.359000000000000208,-11.285867246566613886
0.360000000000000209,-11.104213800044330895
0.361000000000000210,-10.923017203287596288
0.362000000000000210,-10.742367091661396472
0.363000000000000211,-10.562351638072524196
0.364000000000000212,-10.383057455262084900
0.365000000000000213,-10.204569504410253344
0.366000000000000214,-10.026971009962945658
0.367000000000000215,-9.850343380578889807
0.368000000000000216,-9.674766136086260460
0.369000000000000217,-9.500316840328787649
0.370000000000000218,-9.327071039773750627
0.371000000000000218,-9.155102207747017218
0.372000000000000219,-8.984481694154208498
0.373000000000000220,-8.815278680541757339
0.374000000000000221,-8.647560140346955748
0.375000000000000222,-8.481390804182124654
0.376000000000000223,-8.316833129994925855
0.377000000000000224,-8.153947277944146421
0.378000000000000225,-7.992791089828294560
0.379000000000000226,-7.833420072902870679
0.380000000000000226,-7.675887387921342508
0.381000000000000227,-7.520243841234159454
0.382000000000000228,-7.366537880780446024
0.383000000000000229,-7.214815595807264614
0.384000000000000230,-7.065120720151976563
0.385000000000000231,-6.917494638924869044
0.386000000000000232,-6.771976398430167521
0.387000000000000233,-6.628602719165708201
0.388000000000000234,-6.487408011743411862
0.389000000000000234,-6.348424395575263723
0.390000000000000235,-6.211681720171626786
0.391000000000000236,-6.077207588902029833
0.392000000000000237,-5.945027385070892123
0.393000000000000238,-5.815164300164319400
0.394000000000000239,-5.687639364126843233
0.395000000000000240,-5.562471477530706032
0.396000000000000241,-5.439677445503558140
0.397000000000000242,-5.319272013284006562
0.398000000000000242,-5.201267903278230520
0.399000000000000243,-5.085675853494428189
0.400000000000000244,-4.972504657235492509
0.401000000000000245,-4.861761203934573672
0.402000000000000246,-4.753450521021392206
0.403000000000000247,-4.647575816711265517
0.404000000000000248,-4.544138523612785363
0.405000000000000249,-4.443138343053555595
0.406000000000000250,-4.344573290027435419
0.407000000000000250,-4.248439738670443333
0.408000000000000251,-4.154732468176133509
0.409000000000000252,-4.063444709065174187
0.410000000000000253,-3.974568189727212708
0.411000000000000254,-3.888093183157047328
0.412000000000000255,-3.804008553810435789
0.413000000000000256,-3.722301804508552525
0.414000000000000257,-3.642959123323328274
0.415000000000000258,-3.565965430379577583
0.416000000000000258,-3.491304424512830629
0.417000000000000259,-3.418958629725183052
0.418000000000000260,-3.348909441384648744
0.419000000000000261,-3.281137172116374678
0.420000000000000262,-3.215621097337417744
0.421000000000000263,-3.152339500389411242
0.422000000000000264,-3.091269717226391656
0.423000000000000265,-3.032388180617833218
0.424000000000000266,-2.975670463829685808
0.425000000000000266,-2.921091323748617352
0.426000000000000267,-2.868624743417311773
0.427000000000000268,-2.818243973951150672
0.428000000000000269,-2.769921575808793612
0.429000000000000270,-2.723629459391569529
0.430000000000000271,-2.679338924948749590
0.431000000000000272,-2.637020701767826658
0.432000000000000273,-2.596644986631006624
0.433000000000000274,-2.558181481521060618
0.434000000000000274,-2.521599430561516364
0.435000000000000275,-2.486867656177978780
0.436000000000000276,-2.453954594469138772
0.437000000000000277,-2.422828329777548806
0.438000000000000278,-2.393456628451954060
0.439000000000000279,-2.365806971794392588
0.440000000000000280,-2.339846588186694110
0.441000000000000281,-2.315542484392394407
0.442000000000000282,-2.292861476031452295
0.443000000000000282,-2.271770217226171784
0.444000000000000283,-2.252235229418205531
0.445000000000000284,-2.234222929357351450
0.446000000000000285,-2.217699656263979691
0.447000000000000286,-2.202631698168121765
0.448000000000000287,-2.188985317428757682
0.449000000000000288,-2.176726775438191375
0.450000000000000289,-2.165822356516869274
0.451000000000000290,-2.156238391004961397
0.452000000000000290,-2.147941277557670059
0.453000000000000291,-2.140897504651946726
0.454000000000000292,-2.135073671312920585
0.455000000000000293,-2.130436507068879770
0.456000000000000294,-2.126952891144287427
0.457000000000000295,-2.124589870900688293
0.458000000000000296,-2.123314679535973859
0.459000000000000297,-2.123094753052719330
0.460000000000000298,-2.123897746506911766
0.461000000000000298,-2.125691549548449188
0.462000000000000299,-2.128444301265473459
0.463000000000000300,-2.132124404344503343
0.464000000000000301,-2.136700538558910178
0.465000000000000302,-2.142141673598252360
0.466000000000000303,-2.148417081251417393
0.467000000000000304,-2.155496346956404352
0.468000000000000305,-2.163349380730053895
0.469000000000000306,-2.171946427490856202
0.470000000000000306,-2.181258076788237688
0.471000000000000307,-2.191255271951735750
0.472000000000000308,-2.201909318673577864
0.473000000000000309,-2.213191893038109814
0.474000000000000310,-2.225075049011607575
0.475000000000000311,-2.237531225406080626
0.476000000000000312,-2.250533252330408907
0.477000000000000313,-2.264054357142415874
0.478000000000000314,-2.278068169915182128
0.479000000000000314,-2.292548728431018645
0.480000000000000315,-2.307470482716288185
0.481000000000000316,-2.322808299130319387
0.482000000000000317,-2.338537464021416046
0.483000000000000318,-2.354633686962946282
0.484000000000000319,-2.371073103582339137
0.485000000000000320,-2.387832277995678432
0.486000000000000321,-2.404888204860449186
0.487000000000000322,-2.422218311058829343
0.488000000000000322,-2.439800457023800551
0.489000000000000323,-2.457612937720107027
0.490000000000000324,-2.475634483292042720
0.491000000000000325,-2.493844259389751183
0.492000000000000326,-2.512221867185605362
0.493000000000000327,-2.530747343092042634
0.494000000000000328,-2.549401158192032835
0.495000000000000329,-2.568164217393166027
0.496000000000000330,-2.587017858316138508
0.497000000000000330,-2.605943849928255229
0.498000000000000331,-2.624924390932320772
0.499000000000000332,-2.643942107921076978
0.500000000000000333,-2.662980053307231643
0.501000000000000334,-2.682021703038818483
0.502000000000000335,-2.701050954109441182
0.503000000000000336,-2.720052121872785555
0.504000000000000337,-2.739009937170565401
0.505000000000000338,-2.757909543282797138
0.506000000000000338,-2.776736492709193094
0.507000000000000339,-2.795476743790175078
0.508000000000000340,-2.814116657175845582
0.509000000000000341,-2.832642992150991468
0.510000000000000342,-2.851042902824107550
0.511000000000000343,-2.869303934188068617
0.512000000000000344,-2.887414018060018517
0.513000000000000345,-2.905361468907722511
0.514000000000000346,-2.923134979569568692
0.515000000000000346,-2.940723616875042801
0.516000000000000347,-2.958116817172438129
0.517000000000000348,-2.975304381770341955
0.518000000000000349,-2.992276472299181922
0.519000000000000350,-3.009023605998984774
0.520000000000000351,-3.025536650939385730
0.521000000000000352,-3.041806821177536868
0.522000000000000353,-3.057825671859595751
0.523000000000000353,-3.073585094271212625
0.524000000000000354,-3.089077310842219593
0.525000000000000355,-3.104294870110624771
0.526000000000000356,-3.119230641650793778
0.527000000000000357,-3.133877810970568056
0.528000000000000358,-3.148229874381928362
0.529000000000000359,-3.162280633849503531
0.530000000000000360,-3.176024191821332554
0.531000000000000361,-3.189454946045861217
0.532000000000000361,-3.202567584379199417
0.533000000000000362,-3.215357079586376621
0.534000000000000363,-3.227818684140333350
0.535000000000000364,-3.239947925022087283
0.536000000000000365,-3.251740598525495241
0.537000000000000366,-3.263192765069853785
0.538000000000000367,-3.274300744023407983
0.539000000000000368,-3.285061108540811237
0.540000000000000369,-3.295470680417317055
0.541000000000000369,-3.305526524962495216
0.542000000000000370,-3.315225945896028925
0.543000000000000371,-3.324566480268123847
0.544000000000000372,-3.333545893406876015
0.545000000000000373,-3.342162173894876354
0.546000000000000374,-3.350413528577206534
0.547000000000000375,-3.358298377602856988
0.548000000000000376,-3.365815349501553921
0.549000000000000377,-3.372963276297792135
0.550000000000000377,-3.379741188663841989
0.551000000000000378,-3.386148311113398535
0.552000000000000379,-3.392184057237399575
0.553000000000000380,-3.397848024983509241
0.554000000000000381,-3.403139991980638879
0.555000000000000382,-3.408059910909815748
0.556000000000000383,-3.412607904922583479
0.557000000000000384,-3.416784263108122222
0.558000000000000385,-3.420589436010093465
0.559000000000000385,-3.424024031194257134
0.560000000000000386,-3.427088808867697622
0.561000000000000387,-3.429784677550580252
0.562000000000000388,-3.432112689801159355
0.563000000000000389,-3.434074037994771622
0.564000000000000390,-3.435670050157452415
0.565000000000000391,-3.436902185854762592
0.566000000000000392,-3.437772032136371614
0.567000000000000393,-3.438281299536830371
0.568000000000000393,-3.438431818132966278
0.569000000000000394,-3.438225533658273658
0.570000000000000395,-3.437664503674616068
0.571000000000000396,-3.436750893801433726
0.572000000000000397,-3.435486974002778027
0.573000000000000398,-3.433875114932263273
0.574000000000000399,-3.431917784336063537
0.575000000000000400,-3.429617543514098088
0.576000000000000401,-3.426977043839355197
0.577000000000000401,-3.423999023335460468
0.578000000000000402,-3.420686303312356902
0.579000000000000403,-3.417041785060104253
0.580000000000000404,-3.413068446600647121
0.581000000000000405,-3.408769339497437212
0.582000000000000406,-3.404147585722740565
0.583000000000000407,-3.399206374582403267
0.584000000000000408,-3.393948959697920653
0.585000000000000409,-3.388378656045450299
0.586000000000000409,-3.382498837051595153
0.587000000000000410,-3.376312931745593549
0.588000000000000411,-3.369824421967584804
0.589000000000000412,-3.363036839632653319
0.590000000000000413,-3.355953764050197297
0.591000000000000414,-3.348578819298320575
0.592000000000000415,-3.340915671652784802
0.593000000000000416,-3.332968027070085437
0.594000000000000417,-3.324739628724246110
0.595000000000000417,-3.316234254596859721
0.596000000000000418,-3.307455715119859807
0.597000000000000419,-3.298407850870608282
0.598000000000000420,-3.289094530318712462
0.599000000000000421,-3.279519647624129952
0.600000000000000422,-3.269687120485991638
0.601000000000000423,-3.259600888041604527
0.602000000000000424,-3.249264908815117536
0.603000000000000425,-3.238683158715282673
0.604000000000000425,-3.227859629081707205
0.605000000000000426,-3.216798324779095886
0.606000000000000427,-3.205503262338852632
0.607000000000000428,-3.193978468147454564
0.608000000000000429,-3.182227976681056170
0.609000000000000430,-3.170255828785650376
