# AuFCC100-Ablate75_CS-66579-AC
# h[nm],U(h)[kJ/mol]
0.149999999999999994,128.528787381808285772
0.150999999999999995,125.588413004281818530
0.151999999999999996,121.559204986851071340
0.152999999999999997,117.350806089296881396
0.153999999999999998,113.327888017816192701
0.154999999999999999,109.579496918910848535
0.156000000000000000,106.073472968740290412
0.157000000000000001,102.739656504048440411
0.158000000000000002,99.510406132768551402
0.159000000000000002,96.336679403621985784
0.160000000000000003,93.191062480602653295
0.161000000000000004,90.064619297587057645
0.162000000000000005,86.961515319370818133
0.163000000000000006,83.893533942492538813
0.164000000000000007,80.875482557052990273
0.165000000000000008,77.921831531538771287
0.166000000000000009,75.044573758753983839
0.167000000000000010,72.252121453937107276
0.168000000000000010,69.548995713630191062
0.169000000000000011,66.936064450000657189
0.170000000000000012,64.411115156071588217
0.171000000000000013,61.969591957457353715
0.172000000000000014,59.605370856800639956
0.173000000000000015,57.311487318663964174
0.174000000000000016,55.080763859448680364
0.175000000000000017,52.906311457363429440
0.176000000000000018,50.781897784112757677
0.177000000000000018,48.702188400835360937
0.178000000000000019,46.662875263918010660
0.179000000000000020,44.660711259455950994
0.180000000000000021,42.693471033736024367
0.181000000000000022,40.759857967684602897
0.182000000000000023,38.859375450859410250
0.183000000000000024,36.992178185915207678
0.184000000000000025,35.158916500817731787
0.185000000000000026,33.360583850548081841
0.186000000000000026,31.598375045486921664
0.187000000000000027,29.873560369093336675
0.188000000000000028,28.187378706047308441
0.189000000000000029,26.540951116205139471
0.190000000000000030,24.935214953741457578
0.191000000000000031,23.370877620449157064
0.192000000000000032,21.848388322083653890
0.193000000000000033,20.367925726198514269
0.194000000000000034,18.929399157056394642
0.195000000000000034,17.532460867152742878
0.196000000000000035,16.176526958004195933
0.197000000000000036,14.860804651564899714
0.198000000000000037,13.584323808958728819
0.199000000000000038,12.345970830831641152
0.200000000000000039,11.144523333693751255
0.201000000000000040,9.978684263431091495
0.202000000000000041,8.847114368713372201
0.203000000000000042,7.748462204510969009
0.204000000000000042,6.681391063284218390
0.205000000000000043,5.644602434803611679
0.206000000000000044,4.636855772990606361
0.207000000000000045,3.656984499065508487
0.208000000000000046,2.703908295156816077
0.209000000000000047,1.776641842673740257
0.210000000000000048,0.874300237022575977
0.211000000000000049,-0.003898633135576546
0.212000000000000050,-0.858634415547899543
0.213000000000000050,-1.690486983894238238
0.214000000000000051,-2.499941129000897266
0.215000000000000052,-3.287392895554758443
0.216000000000000053,-4.053157219053391103
0.217000000000000054,-4.797476535627405170
0.218000000000000055,-5.520530060484611923
0.219000000000000056,-6.222443457501428909
0.220000000000000057,-6.903298651591137869
0.221000000000000058,-7.563143565766940135
0.222000000000000058,-8.202001595358677122
0.223000000000000059,-8.819880661855794557
0.224000000000000060,-9.416781717738100355
0.225000000000000061,-9.992706600950850060
0.226000000000000062,-10.547665163043227210
0.227000000000000063,-11.081681618190224015
0.228000000000000064,-11.594800081215081988
0.229000000000000065,-12.087089281266244711
0.230000000000000066,-12.558646453974303014
0.231000000000000066,-13.009600428779631187
0.232000000000000067,-13.440113939766973772
0.233000000000000068,-13.850385197895224820
0.234000000000000069,-14.240648770110492904
0.235000000000000070,-14.611175816637555158
0.236000000000000071,-14.962273741924542847
0.237000000000000072,-15.294285317439847205
0.238000000000000073,-15.607587335955651398
0.239000000000000073,-15.902588857265147482
0.240000000000000074,-16.179729104630375502
0.241000000000000075,-16.439475069791981809
0.242000000000000076,-16.682318882233122537
0.243000000000000077,-16.908774995706703947
0.244000000000000078,-17.119377241925768374
0.245000000000000079,-17.314675797887637998
0.246000000000000080,-17.495234109650102283
0.247000000000000081,-17.661625811585970780
0.248000000000000081,-17.814431676284243622
0.249000000000000082,-17.954236626405794652
0.250000000000000111,-18.081626835993422020
0.251000000000000112,-18.197186945024110827
0.252000000000000113,-18.301497407414792917
0.253000000000000114,-18.395131989277807349
0.254000000000000115,-18.478655430997079634
0.255000000000000115,-18.552621283671705044
0.256000000000000116,-18.617569927667499741
0.257000000000000117,-18.674026778432768481
0.258000000000000118,-18.722500682376772119
0.259000000000000119,-18.763482503478066121
0.260000000000000120,-18.797443899381754306
0.261000000000000121,-18.824836284053620972
0.262000000000000122,-18.846089972579282090
0.263000000000000123,-18.861613502416908261
0.264000000000000123,-18.871793124324582891
0.265000000000000124,-18.876992455274852034
0.266000000000000125,-18.877552284929585369
0.267000000000000126,-18.873790526664400602
0.268000000000000127,-18.866002303691960407
0.269000000000000128,-18.854460160525253087
0.270000000000000129,-18.839414389832839447
0.271000000000000130,-18.821093464656609484
0.272000000000000131,-18.799704565977016557
0.273000000000000131,-18.775434195710236196
0.274000000000000132,-18.748448865395388907
0.275000000000000133,-18.718895851068573677
0.276000000000000134,-18.686904005113373017
0.277000000000000135,-18.652584616217492197
0.278000000000000136,-18.616032308943054829
0.279000000000000137,-18.577325974826528920
0.280000000000000138,-18.536529727356846564
0.281000000000000139,-18.493693873630295599
0.282000000000000139,-18.448855895942653405
0.283000000000000140,-18.402041437047802930
0.284000000000000141,-18.353265283283228371
0.285000000000000142,-18.302532340231891794
0.286000000000000143,-18.249838596054349438
0.287000000000000144,-18.195172068079973116
0.288000000000000145,-18.138513728691670224
0.289000000000000146,-18.079838406969063413
0.290000000000000147,-18.019115662971849190
0.291000000000000147,-17.956310631944521816
0.292000000000000148,-17.891384836105402201
0.293000000000000149,-17.824296962045828252
0.294000000000000150,-17.755003602108722305
0.295000000000000151,-17.683459958439399884
0.296000000000000152,-17.609620508704384889
0.297000000000000153,-17.533439632757428228
0.298000000000000154,-17.454872199794223775
0.299000000000000155,-17.373874115780576943
0.300000000000000155,-17.290402831161721053
0.301000000000000156,-17.204417809064690204
0.302000000000000157,-17.115880954391137436
0.303000000000000158,-17.024757004365518753
0.304000000000000159,-16.931013881253825559
0.305000000000000160,-16.834623008101392116
0.306000000000000161,-16.735559588456599300
0.307000000000000162,-16.633802851149674495
0.308000000000000163,-16.529336261284520049
0.309000000000000163,-16.422147698676564431
0.310000000000000164,-16.312229605032385393
0.311000000000000165,-16.199579101217100430
0.312000000000000166,-16.084198075996013699
0.313000000000000167,-15.966093247665918753
0.314000000000000168,-15.845276200011952028
0.315000000000000169,-15.721763394037258976
0.316000000000000170,-15.595576156916427735
0.317000000000000171,-15.466740649619600489
0.318000000000000171,-15.335287814644246396
0.319000000000000172,-15.201253305275127303
0.320000000000000173,-15.064677397771649936
0.321000000000000174,-14.925604887855339342
0.322000000000000175,-14.784084972839988126
0.323000000000000176,-14.640171120712844655
0.324000000000000177,-14.493920927437979884
0.325000000000000178,-14.345395963712991971
0.326000000000000179,-14.194661612368292936
0.327000000000000179,-14.041786897553871327
0.328000000000000180,-13.886844306812744065
0.329000000000000181,-13.729909607094466395
0.330000000000000182,-13.571061655713117844
0.331000000000000183,-13.410382207207609540
0.332000000000000184,-13.247955717012667165
0.333000000000000185,-13.083869142801111352
0.334000000000000186,-12.918211744309653355
0.335000000000000187,-12.751074882412481770
0.336000000000000187,-12.582551818160094825
0.337000000000000188,-12.412737512453684730
0.338000000000000189,-12.241728426980440503
0.339000000000000190,-12.069622326989861705
0.340000000000000191,-11.896518086447802176
0.341000000000000192,-11.722515496062939633
0.342000000000000193,-11.547715074638398747
0.343000000000000194,-11.372217884162434842
0.344000000000000195,-11.196125349012813643
0.345000000000000195,-11.019539079613144494
0.346000000000000196,-10.842560700843534960
0.347000000000000197,-10.665291685473910377
0.348000000000000198,-10.487833192856054865
0.349000000000000199,-10.310285913078866216
0.350000000000000200,-10.132749916762341158
0.351000000000000201,-9.955324510637156621
0.352000000000000202,-9.778108099030539790
0.353000000000000203,-9.601198051353899032
0.354000000000000203,-9.424690575663719372
0.355000000000000204,-9.248680598345355719
0.356000000000000205,-9.073261649948245022
0.357000000000000206,-8.898525757181506179
0.358000000000000207,-8.724563341060704857
0.359000000000000208,-8.551463121179697424
0.360000000000000209,-8.379312026065653285
0.361000000000000210,-8.208195109560922020
0.362000000000000210,-8.038195473161948712
0.363000000000000211,-7.869394194233431783
0.364000000000000212,-7.701870260004534785
0.365000000000000213,-7.535700507243899615
0.366000000000000214,-7.370959567501164322
0.367000000000000215,-7.207719817794272288
0.368000000000000216,-7.046051336614786109
0.369000000000000217,-6.886021865116719987
0.370000000000000218,-6.727696773348976755
0.371000000000000218,-6.571139031386394436
0.372000000000000219,-6.416409185210386390
0.373000000000000220,-6.263565337186618898
0.374000000000000221,-6.112663130984443249
0.375000000000000222,-5.963755740780372072
0.376000000000000223,-5.816893864586528018
0.377000000000000224,-5.672125721543602950
0.378000000000000225,-5.529497053017498054
0.379000000000000226,-5.389051127338428060
0.380000000000000226,-5.250828748021808323
0.381000000000000227,-5.114868265310627216
0.382000000000000228,-4.981205590880347422
0.383000000000000229,-4.849874215548636514
0.384000000000000230,-4.720905229833727290
0.385000000000000231,-4.594327347207707746
0.386000000000000232,-4.470166929892723573
0.387000000000000233,-4.348448017050865921
0.388000000000000234,-4.229192355221159438
0.389000000000000234,-4.112419430859965530
0.390000000000000235,-3.998146504843946847
0.391000000000000236,-3.886388648798391188
0.392000000000000237,-3.777158783116392193
0.393000000000000238,-3.670467716538474257
0.394000000000000239,-3.566324187165254678
0.395000000000000240,-3.464734904779644520
0.396000000000000241,-3.365704594358670310
0.397000000000000242,-3.269236040658700659
0.398000000000000242,-3.175330133761719686
0.399000000000000243,-3.083985915473978157
0.400000000000000244,-2.995200626472067640
0.401000000000000245,-2.908969754095717342
0.402000000000000246,-2.825287080689768970
0.403000000000000247,-2.744144732402021614
0.404000000000000248,-2.665533228347361394
0.405000000000000249,-2.589441530052112306
0.406000000000000250,-2.515857091096472153
0.407000000000000250,-2.444765906876419592
0.408000000000000251,-2.376152564410072721
0.409000000000000252,-2.310000292117231346
0.410000000000000253,-2.246291009503941005
0.411000000000000254,-2.185005376687835010
0.412000000000000255,-2.126122843702873411
0.413000000000000256,-2.069621699525861835
0.414000000000000257,-2.015479120769906096
0.415000000000000258,-1.963671219993493811
0.416000000000000258,-1.914173093576670537
0.417000000000000259,-1.866958869118928277
0.418000000000000260,-1.822001752316294132
0.419000000000000261,-1.779274073277813617
0.420000000000000262,-1.738747332244615196
0.421000000000000263,-1.700392244677162878
0.422000000000000264,-1.664178785678930073
0.423000000000000265,-1.630076233727305368
0.424000000000000266,-1.598053213684937024
0.425000000000000266,-1.568077739066888521
0.426000000000000267,-1.540117253541388065
0.427000000000000268,-1.514138671644090106
0.428000000000000269,-1.490108418687728031
0.429000000000000270,-1.467992469851142845
0.430000000000000271,-1.447756388433582675
0.431000000000000272,-1.429365363261907440
0.432000000000000273,-1.412784245240202186
0.433000000000000274,-1.397977583032910420
0.434000000000000274,-1.384909657874277666
0.435000000000000275,-1.373544517498304307
0.436000000000000276,-1.363846009185040398
0.437000000000000277,-1.355777811920273912
0.438000000000000278,-1.349303467667118950
0.439000000000000279,-1.344386411749195265
0.440000000000000280,-1.340990002346308385
0.441000000000000281,-1.339077549104610743
0.442000000000000282,-1.338612340864450578
0.443000000000000282,-1.339557672509835040
0.444000000000000283,-1.341876870944733735
0.445000000000000284,-1.345533320202028316
0.446000000000000285,-1.350490485691879572
0.447000000000000286,-1.356711937597184114
0.448000000000000287,-1.364161373424221724
0.449000000000000288,-1.372802639717605633
0.450000000000000289,-1.382599752949048355
0.451000000000000290,-1.393516919590128023
0.452000000000000290,-1.405518555379821288
0.453000000000000291,-1.418569303797948766
0.454000000000000292,-1.432634053756294268
0.455000000000000293,-1.447677956519423770
0.456000000000000294,-1.463666441867732981
0.457000000000000295,-1.480565233515474199
0.458000000000000296,-1.498340363796992758
0.459000000000000297,-1.516958187634442901
0.460000000000000298,-1.536385395800790477
0.461000000000000298,-1.556589027491747768
0.462000000000000299,-1.577536482220921243
0.463000000000000300,-1.599195531052157282
0.464000000000000301,-1.621534327183546065
0.465000000000000302,-1.644521415897412853
0.466000000000000303,-1.668125743890912727
0.467000000000000304,-1.692316668001648150
0.468000000000000305,-1.717063963343037569
0.469000000000000306,-1.742337830863968318
0.470000000000000306,-1.768108904347343913
0.471000000000000307,-1.794348256862130953
0.472000000000000308,-1.821027406683441541
0.473000000000000309,-1.848118322695118110
0.474000000000000310,-1.875593429289195813
0.475000000000000311,-1.903425610776706689
0.476000000000000312,-1.931588215323820190
0.477000000000000313,-1.960055058427667918
0.478000000000000314,-1.988800425945652650
0.479000000000000314,-2.017799076692212257
0.480000000000000315,-2.047026244616660939
0.481000000000000316,-2.076457640575727126
0.482000000000000317,-2.106069453714109141
0.483000000000000318,-2.135838352466310930
0.484000000000000319,-2.165741485192758109
0.485000000000000320,-2.195756480463073146
0.486000000000000321,-2.225861446999157778
0.487000000000000322,-2.256034973290510504
0.488000000000000322,-2.286256126894111951
0.489000000000000323,-2.316504453430826338
0.490000000000000324,-2.346759975290269029
0.491000000000000325,-2.377003190055698045
0.492000000000000326,-2.407215068660343071
0.493000000000000327,-2.437377053286403417
0.494000000000000328,-2.467471055017642634
0.495000000000000329,-2.497479451256357841
0.496000000000000330,-2.527385082915213133
0.497000000000000330,-2.557171251394273259
0.498000000000000331,-2.586821715353299744
0.499000000000000332,-2.616320687289074076
0.500000000000000333,-2.645652829927518379
0.501000000000000334,-2.674803252439873269
0.502000000000000335,-2.703757506492151741
0.503000000000000336,-2.732501582136797502
0.504000000000000337,-2.761021903555294976
0.505000000000000338,-2.789305324660163343
0.506000000000000338,-2.817339124564668396
0.507000000000000339,-2.845111002928276012
0.508000000000000340,-2.872609075185685423
0.509000000000000341,-2.899821867667055741
0.510000000000000342,-2.926738312616842475
0.511000000000000343,-2.953347743118431179
0.512000000000000344,-2.979639887931562647
0.513000000000000345,-3.005604866249282914
0.514000000000000346,-3.031233182381090963
0.515000000000000346,-3.056515720368523592
0.516000000000000347,-3.081443738539457744
0.517000000000000348,-3.106008864007068215
0.518000000000000349,-3.130203087119224126
0.519000000000000350,-3.154018755863902790
0.520000000000000351,-3.177448570236099279
0.521000000000000352,-3.200485576571368451
0.522000000000000353,-3.223123161851096707
0.523000000000000353,-3.245355047984382679
0.524000000000000354,-3.267175286071169360
0.525000000000000355,-3.288578250651231549
0.526000000000000356,-3.309558633943281869
0.527000000000000357,-3.330111440078462159
0.528000000000000358,-3.350231979332275678
0.529000000000000359,-3.369915862358700220
0.530000000000000360,-3.389158994430390148
0.531000000000000361,-3.407957569688393473
0.532000000000000361,-3.426308065404916725
0.533000000000000362,-3.444207236262317284
0.534000000000000363,-3.461652108651577464
0.535000000000000364,-3.478639974993174455
0.536000000000000365,-3.495168388083278899
0.537000000000000366,-3.511235155467988367
0.538000000000000367,-3.526838333848223872
0.539000000000000368,-3.541976223517807831
0.540000000000000369,-3.556647362837032311
0.541000000000000369,-3.570850522744041911
0.542000000000000370,-3.584584701306119392
0.543000000000000371,-3.597849118312917760
0.544000000000000372,-3.610643209913584339
0.545000000000000373,-3.622966623299530564
0.546000000000000374,-3.634819211434644703
0.547000000000000375,-3.646201027834460096
0.548000000000000376,-3.657112321395904253
0.549000000000000377,-3.667553531278957557
0.550000000000000377,-3.677525281841615534
0.551000000000000378,-3.687028377629358200
0.552000000000000379,-3.696063798420330837
0.553000000000000380,-3.704632694327268272
0.554000000000000381,-3.712736380957170290
0.555000000000000382,-3.720376334629693194
0.556000000000000383,-3.727554187655011564
0.557000000000000384,-3.734271723672018872
0.558000000000000385,-3.740530873047488658
0.559000000000000385,-3.746333708336899715
0.560000000000000386,-3.751682439807423552
0.561000000000000387,-3.756579411023643011
0.562000000000000388,-3.761027094496403489
0.563000000000000389,-3.765028087395219991
0.564000000000000390,-3.768585107324512684
0.565000000000000391,-3.771700988164015111
0.566000000000000392,-3.774378675973543373
0.567000000000000393,-3.776621224962281254
0.568000000000000393,-3.778431793522733617
0.569000000000000394,-3.779813640329424906
0.570000000000000395,-3.780770120502373821
0.571000000000000396,-3.781304681835290893
0.572000000000000397,-3.781420861088533591
0.573000000000000398,-3.781122280346661313
0.574000000000000399,-3.780412643440466347
0.575000000000000400,-3.779295732433362698
0.576000000000000401,-3.777775404171864526
0.577000000000000401,-3.775855586900010330
0.578000000000000402,-3.773540276937378479
0.579000000000000403,-3.770833535420462734
0.580000000000000404,-3.767739485107079567
0.581000000000000405,-3.764262307243419592
0.582000000000000406,-3.760406238493426034
0.583000000000000407,-3.756175567930039705
0.584000000000000408,-3.751574634087956550
0.585000000000000409,-3.746607822077392402
0.586000000000000409,-3.741279560758413503
0.587000000000000410,-3.735594319975379385
0.588000000000000411,-3.729556607850925243
0.589000000000000412,-3.723170968139046799
0.590000000000000413,-3.716441977636670835
0.591000000000000414,-3.709374243653212666
0.592000000000000415,-3.701972401537559243
0.593000000000000416,-3.694241112261831717
0.594000000000000417,-3.686185060061411001
0.595000000000000417,-3.677808950130600607
0.596000000000000418,-3.669117506373256621
0.597000000000000419,-3.660115469207874561
0.598000000000000420,-3.650807593426357300
0.599000000000000421,-3.641198646105961778
0.600000000000000422,-3.631293404573665562
0.601000000000000423,-3.621096654422349737
0.602000000000000424,-3.610613187578135097
0.603000000000000425,-3.599847800418205956
0.604000000000000425,-3.588805291938397257
0.605000000000000426,-3.577490461969939251
0.606000000000000427,-3.565908109444662522
0.607000000000000428,-3.554063030707908410
0.608000000000000429,-3.541960017878583500
0.609000000000000430,-3.529603857255541044
0.610000000000000431,-3.516999327769720018
