# AuFCC100-Ablate75_CHOL-JS
# h[nm],U(h)[kJ/mol]
0.149999999999999994,158.223127723575800019
0.150999999999999995,154.880061589594788529
0.151999999999999996,150.654470901034557073
0.152999999999999997,146.347487047564015938
0.153999999999999998,142.263091540578614058
0.154999999999999999,138.457970681134497681
0.156000000000000000,134.883937958654087197
0.157000000000000001,131.463899785454941593
0.158000000000000002,128.128107080058327938
0.159000000000000002,124.827795469059850575
0.160000000000000003,121.536871744751991287
0.161000000000000004,118.248061769230645268
0.162000000000000005,114.967196046509386065
0.163000000000000006,111.707584196153533185
0.164000000000000007,108.485378579850731739
0.165000000000000008,105.316216403843242233
0.166000000000000009,102.213099504497819225
0.167000000000000010,99.185314751475388562
0.168000000000000010,96.238144869610124488
0.169000000000000011,93.373123700134357250
0.170000000000000012,90.588622626941287308
0.171000000000000013,87.880598542284516839
0.172000000000000014,85.243378223783665248
0.173000000000000015,82.670394031175334248
0.174000000000000016,80.154819078509390806
0.175000000000000017,77.690075944140531305
0.176000000000000018,75.270211984451620424
0.177000000000000018,72.890147341179712726
0.178000000000000019,70.545809875812381051
0.179000000000000020,68.234175621681544044
0.180000000000000021,65.953234906207669042
0.181000000000000022,63.701903906323948945
0.182000000000000023,61.479899744893067748
0.183000000000000024,59.287594848710583051
0.184000000000000025,57.125863568369723566
0.185000000000000026,54.995931291583055156
0.186000000000000026,52.899233656448174656
0.187000000000000027,50.837291108718218879
0.188000000000000028,48.811602011279063618
0.189000000000000029,46.823555828337646290
0.190000000000000030,44.874366566727189820
0.191000000000000031,42.965025639179188488
0.192000000000000032,41.096272585239702835
0.193000000000000033,39.268581604995652867
0.194000000000000034,37.482161587618030296
0.195000000000000034,35.736967210747536683
0.196000000000000035,34.032718710705978538
0.197000000000000036,32.368928044117957654
0.198000000000000037,30.744929349935574692
0.199000000000000038,29.159911852798767740
0.200000000000000039,27.612953604268728469
0.201000000000000040,26.103054721953391493
0.202000000000000041,24.629169045779015335
0.203000000000000042,23.190233376717184655
0.204000000000000042,21.785193689928355809
0.205000000000000043,20.413027917569472436
0.206000000000000044,19.072765074285729980
0.207000000000000045,17.763500649968875678
0.208000000000000046,16.484408320111789692
0.209000000000000047,15.234748125231675431
0.210000000000000048,14.013871349148010026
0.211000000000000049,12.821222383526764688
0.212000000000000050,11.656337905377831987
0.213000000000000050,10.518843717541031424
0.214000000000000051,9.408449612002256046
0.215000000000000052,8.324942614448170630
0.216000000000000053,7.268178957942265761
0.217000000000000054,6.238075115956331906
0.218000000000000055,5.234598201989610899
0.219000000000000056,4.257756016214874428
0.220000000000000057,3.307586990354033585
0.221000000000000058,2.384150251467372250
0.222000000000000058,1.487515994485795190
0.223000000000000059,0.617756322923815993
0.224000000000000060,-0.225063312105384383
0.225000000000000061,-1.040891972207078409
0.226000000000000062,-1.829700314830777996
0.227000000000000063,-2.591486846367379027
0.228000000000000064,-3.326283313757503635
0.229000000000000065,-4.034159222152110758
0.230000000000000066,-4.715225482778365063
0.231000000000000066,-5.369637209439098058
0.232000000000000067,-5.997595694093631913
0.233000000000000068,-6.599349601854109792
0.234000000000000069,-7.175195433622960195
0.235000000000000070,-7.725477310652000718
0.236000000000000071,-8.250586139686484799
0.237000000000000072,-8.750958220240880436
0.238000000000000073,-9.227073357104496054
0.239000000000000073,-9.679452541562097778
0.240000000000000074,-10.108655264200601565
0.241000000000000075,-10.515276520705711505
0.242000000000000076,-10.899943569878647764
0.243000000000000077,-11.263312500354917489
0.244000000000000078,-11.606064659304562880
0.245000000000000079,-11.928902992847412179
0.246000000000000080,-12.232548344126422890
0.247000000000000081,-12.517735751034795300
0.248000000000000081,-12.785210781563941751
0.249000000000000082,-13.035725940697142633
0.250000000000000111,-13.270037178774533260
0.251000000000000112,-13.488900527345844438
0.252000000000000113,-13.693068884749479253
0.253000000000000114,-13.883288970038453414
0.254000000000000115,-14.060298460445796564
0.255000000000000115,-14.224823324357142695
0.256000000000000116,-14.377575358755175117
0.257000000000000117,-14.519249937324463673
0.258000000000000118,-14.650523972861682509
0.259000000000000119,-14.772054095326614842
0.260000000000000120,-14.884475044791059872
0.261000000000000121,-14.988398276690009681
0.262000000000000122,-15.084410775147578221
0.263000000000000123,-15.173074068727984809
0.264000000000000123,-15.254923441741974344
0.265000000000000124,-15.330467333207707270
0.266000000000000125,-15.400186914713909658
0.267000000000000126,-15.464535837746092639
0.268000000000000127,-15.523940140505194663
0.269000000000000128,-15.578798303856430607
0.270000000000000129,-15.629481445784042748
0.271000000000000130,-15.676333643582257338
0.272000000000000131,-15.719672372971782437
0.273000000000000131,-15.759789053383794766
0.274000000000000132,-15.796949688788179955
0.275000000000000133,-15.831395593650128717
0.276000000000000134,-15.863344193867892074
0.277000000000000135,-15.892989892866808077
0.278000000000000136,-15.920504993391309867
0.279000000000000137,-15.946040665939381853
0.280000000000000138,-15.969727955216086457
0.281000000000000139,-15.991678816437303823
0.282000000000000139,-16.011987173785417582
0.283000000000000140,-16.030729993800427735
0.284000000000000141,-16.047968366977183763
0.285000000000000142,-16.063748591328341320
0.286000000000000143,-16.078103252158911118
0.287000000000000144,-16.091052292778346811
0.288000000000000145,-16.102604071348117998
0.289000000000000146,-16.112756399521941830
0.290000000000000147,-16.121497558982731846
0.291000000000000147,-16.128807292410638041
0.292000000000000148,-16.134657765830951348
0.293000000000000149,-16.139014499685806925
0.294000000000000150,-16.141837266350641755
0.295000000000000151,-16.143080952173370690
0.296000000000000152,-16.142696382450829162
0.297000000000000153,-16.140631108073790756
0.298000000000000154,-16.136830152867702282
0.299000000000000155,-16.131236720932037088
0.300000000000000155,-16.123792863536930753
0.301000000000000156,-16.114440105371198086
0.302000000000000157,-16.103120030152773268
0.303000000000000158,-16.089774825810138736
0.304000000000000159,-16.074347789623057992
0.305000000000000160,-16.056783793872686061
0.306000000000000161,-16.037029712696856620
0.307000000000000162,-16.015034810975397050
0.308000000000000163,-15.990751096184174784
0.309000000000000163,-15.964133634256373995
0.310000000000000164,-15.935140830575141635
0.311000000000000165,-15.903734677294636413
0.312000000000000166,-15.869880968247679576
0.313000000000000167,-15.833549482747519832
0.314000000000000168,-15.794714139630363192
0.315000000000000169,-15.753353122914759865
0.316000000000000170,-15.709448980474258306
0.317000000000000171,-15.662988697131813964
0.318000000000000171,-15.613963743588744393
0.319000000000000172,-15.562370102598952926
0.320000000000000173,-15.508208273790137000
0.321000000000000174,-15.451483258519463249
0.322000000000000175,-15.392204526131745723
0.323000000000000176,-15.330385962964300006
0.324000000000000177,-15.266045805414501402
0.325000000000000178,-15.199206558354759977
0.326000000000000179,-15.129894900145270498
0.327000000000000179,-15.058141575457460348
0.328000000000000180,-14.983981277081905858
0.329000000000000181,-14.907452517853784002
0.330000000000000182,-14.828597493785403927
0.331000000000000183,-14.747461939452730206
0.332000000000000184,-14.664094976637338519
0.333000000000000185,-14.578548957180620604
0.334000000000000186,-14.490879300961367449
0.335000000000000187,-14.401144329862285431
0.336000000000000187,-14.309405098545786572
0.337000000000000188,-14.215725222813739848
0.338000000000000189,-14.120170706281893303
0.339000000000000190,-14.022809766055038594
0.340000000000000191,-13.923712658045809931
0.341000000000000192,-13.822951502538007418
0.342000000000000193,-13.720600110553135664
0.343000000000000194,-13.616733811539310395
0.344000000000000195,-13.511429282861541878
0.345000000000000195,-13.404764381535233753
0.346000000000000196,-13.296817978607247568
0.347000000000000197,-13.187669796553759483
0.348000000000000198,-13.077400250029892703
0.349000000000000199,-12.966090290273166730
0.350000000000000200,-12.853821253431647165
0.351000000000000201,-12.740674713057213552
0.352000000000000202,-12.626732336975980076
0.353000000000000203,-12.512075748720588919
0.354000000000000203,-12.396786393682855731
0.355000000000000204,-12.280945410120949646
0.356000000000000205,-12.164633505131918767
0.357000000000000206,-12.047930835678434036
0.358000000000000207,-11.930916894737810807
0.359000000000000208,-11.813670402622234334
0.360000000000000209,-11.696269203500724743
0.361000000000000210,-11.578790167136379097
0.362000000000000210,-11.461309095836718086
0.363000000000000211,-11.343900636600187326
0.364000000000000212,-11.226638198428211979
0.365000000000000213,-11.109593874759656984
0.366000000000000214,-10.992838370972986439
0.367000000000000215,-10.876440936890711342
0.368000000000000216,-10.760469304211328634
0.369000000000000217,-10.644989628784658819
0.370000000000000218,-10.530066437639183263
0.371000000000000218,-10.415762580662237369
0.372000000000000219,-10.302139186828105366
0.373000000000000220,-10.189255624862990857
0.374000000000000221,-10.077169468231367944
0.375000000000000222,-9.965936464323366550
0.376000000000000223,-9.855610507719877234
0.377000000000000224,-9.746243617408437032
0.378000000000000225,-9.637885917820835147
0.379000000000000226,-9.530585623561055542
0.380000000000000226,-9.424389027691153942
0.381000000000000227,-9.319340493440966711
0.382000000000000228,-9.215482449207637927
0.383000000000000229,-9.112855386710181804
0.384000000000000230,-9.011497862164640438
0.385000000000000231,-8.911446500346070110
0.386000000000000232,-8.812736001403962405
0.387000000000000233,-8.715399150299210973
0.388000000000000234,-8.619466828731798813
0.389000000000000234,-8.524968029430183947
0.390000000000000235,-8.431929872674912119
0.391000000000000236,-8.340377624931399225
0.392000000000000237,-8.250334719468465750
0.393000000000000238,-8.161822778842186210
0.394000000000000239,-8.074861639126542201
0.395000000000000240,-7.989469375775388293
0.396000000000000241,-7.905662331002778487
0.397000000000000242,-7.823455142571553722
0.398000000000000242,-7.742860773883110781
0.399000000000000243,-7.663890545264079535
0.400000000000000244,-7.586554166348721928
0.401000000000000245,-7.510859769459190538
0.402000000000000246,-7.436813943888426870
0.403000000000000247,-7.364421770993994087
0.404000000000000248,-7.293686860014199524
0.405000000000000249,-7.224611384520929214
0.406000000000000250,-7.157196119426830982
0.407000000000000250,-7.091440478467613495
0.408000000000000251,-7.027342552083370109
0.409000000000000252,-6.964899145625915722
0.410000000000000253,-6.904105817822153490
0.411000000000000254,-6.844956919426676833
0.412000000000000255,-6.787445631999510454
0.413000000000000256,-6.731564006748278928
0.414000000000000257,-6.677303003376486856
0.415000000000000258,-6.624652528882938540
0.416000000000000258,-6.573601476259716136
0.417000000000000259,-6.524137763039156823
0.418000000000000260,-6.476248369642810587
0.419000000000000261,-6.429919377487964383
0.420000000000000262,-6.385136006809995379
0.421000000000000263,-6.341882654161228317
0.422000000000000264,-6.300142929549285675
0.423000000000000265,-6.259899693180480895
0.424000000000000266,-6.221135091776043957
0.425000000000000266,-6.183830594431004357
0.426000000000000267,-6.147967027987922606
0.427000000000000268,-6.113524611899693539
0.428000000000000269,-6.080482992557550759
0.429000000000000270,-6.048821277062463864
0.430000000000000271,-6.018518066419963120
0.431000000000000272,-5.989551488140192781
0.432000000000000273,-5.961899228226771541
0.433000000000000274,-5.935538562539716345
0.434000000000000274,-5.910446387519264988
0.435000000000000275,-5.886599250258990779
0.436000000000000276,-5.863973377918097363
0.437000000000000277,-5.842544706464138926
0.438000000000000278,-5.822288908738831203
0.439000000000000279,-5.803181421840909238
0.440000000000000280,-5.785197473821133585
0.441000000000000281,-5.768312109685792777
0.442000000000000282,-5.752500216706263991
0.443000000000000282,-5.737736549032950606
0.444000000000000283,-5.723995751613356830
0.445000000000000284,-5.711252383414590739
0.446000000000000285,-5.699480939951745206
0.447000000000000286,-5.688655875124510430
0.448000000000000287,-5.678751622364861973
0.449000000000000288,-5.669742615099800709
0.450000000000000289,-5.661603306533615765
0.451000000000000290,-5.654308188754805897
0.452000000000000290,-5.647831811173588790
0.453000000000000291,-5.642148798296295453
0.454000000000000292,-5.637233866843677887
0.455000000000000293,-5.633061842220548066
0.456000000000000294,-5.629607674344698331
0.457000000000000295,-5.626846452843445867
0.458000000000000296,-5.624753421626590644
0.459000000000000297,-5.623303992844895127
0.460000000000000298,-5.622473760243585694
0.461000000000000298,-5.622238511920590653
0.462000000000000299,-5.622574242499634778
0.463000000000000300,-5.623457164728423940
0.464000000000000301,-5.624863720512481180
0.465000000000000302,-5.626770591395309218
0.466000000000000303,-5.629154708495812898
0.467000000000000304,-5.631993261913929238
0.468000000000000305,-5.635263709615728978
0.469000000000000306,-5.638943785809152232
0.470000000000000306,-5.643011508821792255
0.471000000000000307,-5.647445188492062229
0.472000000000000308,-5.652223433085298510
0.473000000000000309,-5.657325155746208978
0.474000000000000310,-5.662729580499131998
0.475000000000000311,-5.668416247807760655
0.476000000000000312,-5.674365019705573054
0.477000000000000313,-5.680556084508660675
0.478000000000000314,-5.686969961122134265
0.479000000000000314,-5.693587502951648283
0.480000000000000315,-5.700389901431135442
0.481000000000000316,-5.707358689178150257
0.482000000000000317,-5.714475742787731960
0.483000000000000318,-5.721723285275960968
0.484000000000000319,-5.729083888184025142
0.485000000000000320,-5.736540473353616498
0.486000000000000321,-5.744076314384361837
0.487000000000000322,-5.751675037783747335
0.488000000000000322,-5.759320623820033624
0.489000000000000323,-5.766997407088372718
0.490000000000000324,-5.774690076800259142
0.491000000000000325,-5.782383676806328587
0.492000000000000326,-5.790063605362201216
0.493000000000000327,-5.797715614647186655
0.494000000000000328,-5.805325810045168566
0.495000000000000329,-5.812880649197180283
0.496000000000000330,-5.820366940834605707
0.497000000000000330,-5.827771843402244301
0.498000000000000331,-5.835082863479821746
0.499000000000000332,-5.842287854010707271
0.500000000000000333,-5.849375012346318847
0.501000000000000334,-5.856332878114378637
0.502000000000000335,-5.863150330919280506
0.503000000000000336,-5.869816587882339398
0.504000000000000337,-5.876321201029820251
0.505000000000000338,-5.882654054536186727
0.506000000000000338,-5.888805361830038443
0.507000000000000339,-5.894765662569947828
0.508000000000000340,-5.900525819497160818
0.509000000000000341,-5.906077015172133571
0.510000000000000342,-5.911410748601454657
0.511000000000000343,-5.916518831761782060
0.512000000000000344,-5.921393386027053118
0.513000000000000345,-5.926026838505100258
0.514000000000000346,-5.930411918289827611
0.515000000000000346,-5.934541652634534259
0.516000000000000347,-5.938409363052197243
0.517000000000000348,-5.942008661348212151
0.518000000000000349,-5.945333445590796018
0.519000000000000350,-5.948377896024328315
0.520000000000000351,-5.951136470930591393
0.521000000000000352,-5.953603902442774931
0.522000000000000353,-5.955775192316902000
0.523000000000000353,-5.957645607665257970
0.524000000000000354,-5.959210676656230277
0.525000000000000355,-5.960466184184731731
0.526000000000000356,-5.961408167517367573
0.527000000000000357,-5.962032911916301359
0.528000000000000358,-5.962336946245635261
0.529000000000000359,-5.962317038563936578
0.530000000000000360,-5.961970191706525313
0.531000000000000361,-5.961293638860911237
0.532000000000000361,-5.960284839138672019
0.533000000000000362,-5.958941473146891710
0.534000000000000363,-5.957261438562272637
0.535000000000000364,-5.955242845710762012
0.536000000000000365,-5.952884013155530951
0.537000000000000366,-5.950183463295978470
0.538000000000000367,-5.947139917980290846
0.539000000000000368,-5.943752294134093006
0.540000000000000369,-5.940019699407457665
0.541000000000000369,-5.935941427842559293
0.542000000000000370,-5.931516955564086757
0.543000000000000371,-5.926745936494507205
0.544000000000000372,-5.921628198096035689
0.545000000000000373,-5.916163737141254764
0.546000000000000374,-5.910352715514066269
0.547000000000000375,-5.904195456042640622
0.548000000000000376,-5.897692438366038736
0.549000000000000377,-5.890844294835839712
0.550000000000000377,-5.883651806454328614
0.551000000000000378,-5.876115898850453156
0.552000000000000379,-5.868237638294917069
0.553000000000000380,-5.860018227755470654
0.554000000000000381,-5.851459002993557590
0.555000000000000382,-5.842561428703385573
0.556000000000000383,-5.833327094694249482
0.557000000000000384,-5.823757712117162200
0.558000000000000385,-5.813855109736469018
0.559000000000000385,-5.803621230247344442
0.560000000000000386,-5.793058126639753169
0.561000000000000387,-5.782167958609614189
0.562000000000000388,-5.770952989017683166
0.563000000000000389,-5.759415580396756162
0.564000000000000390,-5.747558191507587289
0.565000000000000391,-5.735383373944030083
0.566000000000000392,-5.722893768787732149
0.567000000000000393,-5.710092103312732092
0.568000000000000393,-5.696981187740211894
0.569000000000000394,-5.683563912043689825
0.570000000000000395,-5.669843242804847527
0.571000000000000396,-5.655822220120055199
0.572000000000000397,-5.641503954557879119
0.573000000000000398,-5.626891624167475570
0.574000000000000399,-5.611988471538037260
0.575000000000000400,-5.596797800909236287
0.576000000000000401,-5.581322975332633440
0.577000000000000401,-5.565567413884067172
0.578000000000000402,-5.549534588926823275
0.579000000000000403,-5.533228023425541764
0.580000000000000404,-5.516651288310715273
0.581000000000000405,-5.499807999893543631
0.582000000000000406,-5.482701817331025573
0.583000000000000407,-5.465336440140961649
0.584000000000000408,-5.447715605766742186
0.585000000000000409,-5.429843087191550843
0.586000000000000409,-5.411722690601713737
0.587000000000000410,-5.393358253098941901
0.588000000000000411,-5.374753640461031878
0.589000000000000412,-5.355912744950798832
0.590000000000000413,-5.336839483172743925
0.591000000000000414,-5.317537793977182403
0.592000000000000415,-5.298011636411402492
0.593000000000000416,-5.278264987717383505
0.594000000000000417,-5.258301841375741859
0.595000000000000417,-5.238126205195436036
0.596000000000000418,-5.217742099448694049
0.597000000000000419,-5.197153555050887164
0.598000000000000420,-5.176364611784658898
0.599000000000000421,-5.155379316568026837
0.600000000000000422,-5.134201721765816018
0.601000000000000423,-5.112835883544029514
0.602000000000000424,-5.091285860266590468
0.603000000000000425,-5.069555710933983939
0.604000000000000425,-5.047649493663227460
0.605000000000000426,-5.025571264208705813
0.606000000000000427,-5.003325074523337079
0.607000000000000428,-4.980914971359417187
0.608000000000000429,-4.958344994908845393
0.609000000000000430,-4.935619177481891384
