# AuFCC100-Ablate75_BSAI19
# h[nm],U(h)[kJ/mol]
0.149999999999999994,105.924419469167418129
0.150999999999999995,101.120475532557875908
0.151999999999999996,96.846516710091790969
0.152999999999999997,92.698863316520046851
0.153999999999999998,88.561216961784765545
0.154999999999999999,84.437412551732137445
0.156000000000000000,80.367070064820154585
0.157000000000000001,76.387911885788398081
0.158000000000000002,72.522859744701065665
0.159000000000000002,68.779116497501746608
0.160000000000000003,65.152083956586835711
0.161000000000000004,61.630385482241230477
0.162000000000000005,58.200260931246475593
0.163000000000000006,54.848715210225478245
0.164000000000000007,51.565376979796347712
0.165000000000000008,48.343283131591093138
0.166000000000000009,45.178887027721998493
0.167000000000000010,42.071579606118007177
0.168000000000000010,39.022962912450338990
0.169000000000000011,36.036053950504800980
0.170000000000000012,33.114537836775284063
0.171000000000000013,30.262139823387180115
0.172000000000000014,27.482147867048553280
0.173000000000000015,24.777090635253689044
0.174000000000000016,22.148558558564438670
0.175000000000000017,19.597145774643738747
0.176000000000000018,17.122486613432080560
0.177000000000000018,14.723359929410937852
0.178000000000000019,12.397836698487555651
0.179000000000000020,10.143449788089617059
0.180000000000000021,7.957368895360872330
0.181000000000000022,5.836567790423607072
0.182000000000000023,3.777974854810222549
0.183000000000000024,1.778601272564500846
0.184000000000000025,-0.164355976276905513
0.185000000000000026,-2.053436968478308700
0.186000000000000026,-3.890866541753465135
0.187000000000000027,-5.678524709166952178
0.188000000000000028,-7.417936919470202284
0.189000000000000029,-9.110280920582100705
0.190000000000000030,-10.756406874277162800
0.191000000000000031,-12.356867461686871223
0.192000000000000032,-13.911954951717277140
0.193000000000000033,-15.421742527889657381
0.194000000000000034,-16.886127542938492496
0.195000000000000034,-18.304874763202533927
0.196000000000000035,-19.677658052783161935
0.197000000000000036,-21.004099313811273930
0.198000000000000037,-22.283803832805705980
0.199000000000000038,-23.516391477440460989
0.200000000000000039,-24.701523440052522318
0.201000000000000040,-25.838924433601476949
0.202000000000000041,-26.928400414168216059
0.203000000000000042,-27.969852034413548836
0.204000000000000042,-28.963284128505410564
0.205000000000000043,-29.908811595094071834
0.206000000000000044,-30.806662085345983826
0.207000000000000045,-31.657175922127255063
0.208000000000000046,-32.460803678221658686
0.209000000000000047,-33.218101829699087091
0.210000000000000048,-33.929726878551797142
0.211000000000000049,-34.596428309397751377
0.212000000000000050,-35.219040710905616720
0.213000000000000050,-35.798475355698386124
0.214000000000000051,-36.335711494545662958
0.215000000000000052,-36.831787583004583553
0.216000000000000053,-37.287792622354331229
0.217000000000000054,-37.704857762459035087
0.218000000000000055,-38.084148282621313797
0.219000000000000056,-38.426856037893927009
0.220000000000000057,-38.734192432882238677
0.221000000000000058,-39.007381962839396294
0.222000000000000058,-39.247656342786193306
0.223000000000000059,-39.456249229343413276
0.224000000000000060,-39.634391526765163860
0.225000000000000061,-39.783307258086999525
0.226000000000000062,-39.904209974102244018
0.227000000000000063,-39.998299666801003127
0.228000000000000064,-40.066760149686999171
0.229000000000000065,-40.110756864776057284
0.230000000000000066,-40.131435074830150711
0.231000000000000066,-40.129918399270273710
0.232000000000000067,-40.107307653023141825
0.233000000000000068,-40.064679949105212131
0.234000000000000069,-40.003088027859050158
0.235000000000000070,-39.923559778280484522
0.236000000000000071,-39.827097919680646498
0.237000000000000072,-39.714679814900804899
0.238000000000000073,-39.587257389346142133
0.239000000000000073,-39.445757133146493345
0.240000000000000074,-39.291080166727439860
0.241000000000000075,-39.124102352929824633
0.242000000000000076,-38.945674441512800001
0.243000000000000077,-38.756622234387705817
0.244000000000000078,-38.557746762236909888
0.245000000000000079,-38.349824465261129092
0.246000000000000080,-38.133607372668215874
0.247000000000000081,-37.909823277164413469
0.248000000000000081,-37.679175902139270704
0.249000000000000082,-37.442345060460020534
0.250000000000000111,-37.199986804816155939
0.251000000000000112,-36.952733570395864149
0.252000000000000113,-36.701194311347684618
0.253000000000000114,-36.445954632993824873
0.254000000000000115,-36.187576922137807856
0.255000000000000115,-35.926600478057125088
0.256000000000000116,-35.663541646911930627
0.257000000000000117,-35.398893962344715192
0.258000000000000118,-35.133128295008503983
0.259000000000000119,-34.866693013655613242
0.260000000000000120,-34.600014160258027118
0.261000000000000121,-34.333495641423148470
0.262000000000000122,-34.067519438129252762
0.263000000000000123,-33.802445835537774599
0.264000000000000123,-33.538613674358003891
0.265000000000000124,-33.276340624946243452
0.266000000000000125,-33.015923485027400375
0.267000000000000126,-32.757638501632300176
0.268000000000000127,-32.501741717559056610
0.269000000000000128,-32.248469342391004488
0.270000000000000129,-31.998038147842514434
0.271000000000000130,-31.750645886959507180
0.272000000000000131,-31.506471736475351264
0.273000000000000131,-31.265676761416766993
0.274000000000000132,-31.028404400868616619
0.275000000000000133,-30.794780973642950528
0.276000000000000134,-30.564916202454867289
0.277000000000000135,-30.338903755086683134
0.278000000000000136,-30.116821800921609764
0.279000000000000137,-29.898733581148036365
0.280000000000000138,-29.684687990875147534
0.281000000000000139,-29.474720171358079313
0.282000000000000139,-29.268852110506308861
0.283000000000000140,-29.067093249840080915
0.284000000000000141,-28.869441096066118746
0.285000000000000142,-28.675881835463719938
0.286000000000000143,-28.486390949304684739
0.287000000000000144,-28.300933828573988649
0.288000000000000145,-28.119466386311312789
0.289000000000000146,-27.941935665955799806
0.290000000000000147,-27.768280444145005958
0.291000000000000147,-27.598431826495545494
0.292000000000000148,-27.432313834972877231
0.293000000000000149,-27.269843985543257503
0.294000000000000150,-27.110933854888536132
0.295000000000000151,-26.955489635055350561
0.296000000000000152,-26.803412675001585086
0.297000000000000153,-26.654600008096384300
0.298000000000000154,-26.508944864721449619
0.299000000000000155,-26.366337169214510538
0.300000000000000155,-26.226664020485401352
0.301000000000000156,-26.089810155725150054
0.302000000000000157,-25.955658396714664349
0.303000000000000158,-25.824090078324267949
0.304000000000000159,-25.694985458876686835
0.305000000000000160,-25.568224112124120495
0.306000000000000161,-25.443685300665414672
0.307000000000000162,-25.321248330700125706
0.308000000000000163,-25.200792888084116328
0.309000000000000163,-25.082199355715093958
0.310000000000000164,-24.965349112336276960
0.311000000000000165,-24.850124812902166127
0.312000000000000166,-24.736410650702584491
0.313000000000000167,-24.624092601489167009
0.314000000000000168,-24.513058649892084162
0.315000000000000169,-24.403198998455948754
0.316000000000000170,-24.294406259659460545
0.317000000000000171,-24.186575631317012380
0.318000000000000171,-24.079605055788931622
0.319000000000000172,-23.973395363453786189
0.320000000000000173,-23.867850400917937748
0.321000000000000174,-23.762877144457302592
0.322000000000000175,-23.658385799202566346
0.323000000000000176,-23.554289884592424897
0.324000000000000177,-23.450506306630231279
0.325000000000000178,-23.346955417487261997
0.326000000000000179,-23.243561063002150746
0.327000000000000179,-23.140250618628446233
0.328000000000000180,-23.036955014384439266
0.329000000000000181,-22.933608749358167955
0.330000000000000182,-22.830149896317937674
0.331000000000000183,-22.726520096974820007
0.332000000000000184,-22.622664548437303011
0.333000000000000185,-22.518531981391362251
0.334000000000000186,-22.414074630530770094
0.335000000000000187,-22.309248197752275189
0.336000000000000187,-22.204011808620482071
0.337000000000000188,-22.098327962594527918
0.338000000000000189,-21.992162477497259943
0.339000000000000190,-21.885484428693786185
0.340000000000000191,-21.778266083432519906
0.341000000000000192,-21.670482830788394324
0.342000000000000193,-21.562113107631859066
0.343000000000000194,-21.453138321033662805
0.344000000000000195,-21.343542767498963286
0.345000000000000195,-21.233313549409832177
0.346000000000000196,-21.122440489038694977
0.347000000000000197,-21.010916040480317690
0.348000000000000198,-20.898735199833943454
0.349000000000000199,-20.785895413951568145
0.350000000000000200,-20.672396488053042418
0.351000000000000201,-20.558240492493169427
0.352000000000000202,-20.443431668950804436
0.353000000000000203,-20.327976336295176196
0.354000000000000203,-20.211882796369764037
0.355000000000000204,-20.095161239919821838
0.356000000000000205,-19.977823652875425608
0.357000000000000206,-19.859883723188442417
0.358000000000000207,-19.741356748407870469
0.359000000000000208,-19.622259544165675749
0.360000000000000209,-19.502610353732073634
0.361000000000000210,-19.382428758787199286
0.362000000000000210,-19.261735591544187685
0.363000000000000211,-19.140552848347283543
0.364000000000000212,-19.018903604857751333
0.365000000000000213,-18.896811932929345801
0.366000000000000214,-18.774302819265511033
0.367000000000000215,-18.651402085940169684
0.368000000000000216,-18.528136312855217227
0.369000000000000217,-18.404532762198318352
0.370000000000000218,-18.280619304956736926
0.371000000000000218,-18.156424349534368901
0.372000000000000219,-18.031976772511718821
0.373000000000000220,-17.907305851581362788
0.374000000000000221,-17.782441200684210969
0.375000000000000222,-17.657412707365892857
0.376000000000000223,-17.532250472365937810
0.377000000000000224,-17.406984751447094339
0.378000000000000225,-17.281645899466450800
0.379000000000000226,-17.156264316684975313
0.380000000000000226,-17.030870397307726449
0.381000000000000227,-16.905494480241806343
0.382000000000000228,-16.780166802056054820
0.383000000000000229,-16.654917452121722476
0.384000000000000230,-16.529776329910465194
0.385000000000000231,-16.404773104422691432
0.386000000000000232,-16.279937175716046482
0.387000000000000233,-16.155297638501451729
0.388000000000000234,-16.030883247771519962
0.389000000000000234,-15.906722386424025473
0.390000000000000235,-15.782843034840912111
0.391000000000000236,-15.659272742381929788
0.392000000000000237,-15.536038600750000427
0.393000000000000238,-15.413167219184391143
0.394000000000000239,-15.290684701436324744
0.395000000000000240,-15.168616624480787181
0.396000000000000241,-15.046988018917499375
0.397000000000000242,-14.925823351013004725
0.398000000000000242,-14.805146506335793433
0.399000000000000243,-14.684980774935501913
0.400000000000000244,-14.565348838017129651
0.401000000000000245,-14.446272756061228293
0.402000000000000246,-14.327773958340722871
0.403000000000000247,-14.209873233785117463
0.404000000000000248,-14.092590723143203491
0.405000000000000249,-13.975945912395483006
0.406000000000000250,-13.859957627367862187
0.407000000000000250,-13.744644029498635618
0.408000000000000251,-13.630022612711291785
0.409000000000000252,-13.516110201346231534
0.410000000000000253,-13.402922949104976169
0.411000000000000254,-13.290476338961401126
0.412000000000000255,-13.178785183994936148
0.413000000000000256,-13.067863629101770684
0.414000000000000257,-12.957725153540511798
0.415000000000000258,-12.848382574270107881
0.416000000000000258,-12.739848050038260041
0.417000000000000259,-12.632133086179708314
0.418000000000000260,-12.525248540084742643
0.419000000000000261,-12.419204627298949362
0.420000000000000262,-12.314010928216671203
0.421000000000000263,-12.209676395331145571
0.422000000000000264,-12.106209361005559444
0.423000000000000265,-12.003617545730243421
0.424000000000000266,-11.901908066832209698
0.425000000000000266,-11.801087447604201586
0.426000000000000267,-11.701161626821486195
0.427000000000000268,-11.602135968615710837
0.428000000000000269,-11.504015272675998105
0.429000000000000270,-11.406803784748596797
0.430000000000000271,-11.310505207407349104
0.431000000000000272,-11.215122711068211458
0.432000000000000273,-11.120658945222089642
0.433000000000000274,-11.027116049861213298
0.434000000000000274,-10.934495667075196934
0.435000000000000275,-10.842798952793884837
0.436000000000000276,-10.752026588655171579
0.437000000000000277,-10.662178793976492486
0.438000000000000278,-10.573255337810142152
0.439000000000000279,-10.485255551062994783
0.440000000000000280,-10.398178338662285469
0.441000000000000281,-10.312022191749909084
0.442000000000000282,-10.226785199888595912
0.443000000000000282,-10.142465063263944813
0.444000000000000283,-10.059059104867316137
0.445000000000000284,-9.976564282645250969
0.446000000000000285,-9.894977201601692585
0.447000000000000286,-9.814294125840454797
0.448000000000000287,-9.734510990535437003
0.449000000000000288,-9.655623413817510325
0.450000000000000289,-9.577626708567004599
0.451000000000000290,-9.500515894101912551
0.452000000000000290,-9.424285707752181551
0.453000000000000291,-9.348930616311308839
0.454000000000000292,-9.274444827356955301
0.455000000000000293,-9.200822300432829337
0.456000000000000294,-9.128056758084778011
0.457000000000000295,-9.056141696744415270
0.458000000000000296,-8.985070397454233415
0.459000000000000297,-8.914835936428584517
0.460000000000000298,-8.845431195445444317
0.461000000000000298,-8.776848872064253015
0.462000000000000299,-8.709081489665742026
0.463000000000000300,-8.642121407309801384
0.464000000000000301,-8.575960829408156627
0.465000000000000302,-8.510591815208837119
0.466000000000000303,-8.446006288089806802
0.467000000000000304,-8.382196044659488976
0.468000000000000305,-8.319152763662410521
0.469000000000000306,-8.256868014688237167
0.470000000000000306,-8.195333266683089590
0.471000000000000307,-8.134539896262021230
0.472000000000000308,-8.074479195822174660
0.473000000000000309,-8.015142381456069387
0.474000000000000310,-7.956520600664910958
0.475000000000000311,-7.898604939872025277
0.476000000000000312,-7.841386431736867557
0.477000000000000313,-7.784856062269892796
0.478000000000000314,-7.729004777749276300
0.479000000000000314,-7.673823491440413314
0.480000000000000315,-7.619303090119153410
0.481000000000000316,-7.565434440400347071
0.482000000000000317,-7.512208394872949668
0.483000000000000318,-7.459615798043425450
0.484000000000000319,-7.407647492089189711
0.485000000000000320,-7.356294322424027143
0.486000000000000321,-7.305547143077438577
0.487000000000000322,-7.255396821890113479
0.488000000000000322,-7.205834245527762860
0.489000000000000323,-7.156850324315660039
0.490000000000000324,-7.108435996896309561
0.491000000000000325,-7.060582234712822647
0.492000000000000326,-7.013280046320462091
0.493000000000000327,-6.966520481529220099
0.494000000000000328,-6.920294635379940829
0.495000000000000329,-6.874593651956963924
0.496000000000000330,-6.829408728039966903
0.497000000000000330,-6.784731116597994216
0.498000000000000331,-6.740552130128497410
0.499000000000000332,-6.696863143844441701
0.500000000000000333,-6.653655598712319374
0.501000000000000334,-6.610921004344200824
0.502000000000000335,-6.568650941746716043
0.503000000000000336,-6.526837065930147119
0.504000000000000337,-6.485471108380497007
0.505000000000000338,-6.444544879397710702
0.506000000000000338,-6.404050270303062398
0.507000000000000339,-6.363979255518726674
0.508000000000000340,-6.324323894522582812
0.509000000000000341,-6.285076333681351990
0.510000000000000342,-6.246228807964977037
0.511000000000000343,-6.207773642545342696
0.512000000000000344,-6.169703254282294047
0.513000000000000345,-6.132010153099906269
0.514000000000000346,-6.094686943256015788
0.515000000000000346,-6.057726324507873628
0.516000000000000347,-6.021121093176853734
0.517000000000000348,-5.984864143115120605
0.518000000000000349,-5.948948466577008709
0.519000000000000350,-5.913367154998038444
0.520000000000000351,-5.878113399684274931
0.521000000000000352,-5.843180492414807858
0.522000000000000353,-5.808561825960043556
0.523000000000000353,-5.774250894518488941
0.524000000000000354,-5.740241294074698075
0.525000000000000355,-5.706526722680921537
0.526000000000000356,-5.673100980665067183
0.527000000000000357,-5.639957970767468076
0.528000000000000358,-5.607091698208939157
0.529000000000000359,-5.574496270692545608
0.530000000000000360,-5.542165898341523622
0.531000000000000361,-5.510094893575642416
0.532000000000000361,-5.478277670928358489
0.533000000000000362,-5.446708746807010115
0.534000000000000363,-5.415382739198300932
0.535000000000000364,-5.384294367321190045
0.536000000000000365,-5.353438451229394879
0.537000000000000366,-5.322809911365547819
0.538000000000000367,-5.292403768069069869
0.539000000000000368,-5.262215141039766841
0.540000000000000369,-5.232239248759091410
0.541000000000000369,-5.202471407871000153
0.542000000000000370,-5.172907032524284077
0.543000000000000371,-5.143541633678151648
0.544000000000000372,-5.114370818372925953
0.545000000000000373,-5.085390288967511552
0.546000000000000374,-5.056595842345419811
0.547000000000000375,-5.027983369090883947
0.548000000000000376,-4.999548852636848117
0.549000000000000377,-4.971288368386248990
0.550000000000000377,-4.943198082808171634
0.551000000000000378,-4.915274252510414499
0.552000000000000379,-4.887513223289860598
0.553000000000000380,-4.859911429162075081
0.554000000000000381,-4.832465391371497887
0.555000000000000382,-4.805171717383621477
0.556000000000000383,-4.778027099860308269
0.557000000000000384,-4.751028315619679532
0.558000000000000385,-4.724172224581643320
0.559000000000000385,-4.697455768700349310
0.560000000000000386,-4.670875970884628359
0.561000000000000387,-4.644429933907608721
0.562000000000000388,-4.618114839306538322
0.563000000000000389,-4.591927946273825611
0.564000000000000390,-4.565866590540394121
0.565000000000000391,-4.539928183252227356
0.566000000000000392,-4.514110209841107668
0.567000000000000393,-4.488410228890451492
0.568000000000000393,-4.462825870997067845
0.569000000000000394,-4.437354837629749582
0.570000000000000395,-4.411994899985511864
0.571000000000000396,-4.386743897844181284
0.572000000000000397,-4.361599738422215822
0.573000000000000398,-4.336560395226388032
0.574000000000000399,-4.311623906908078396
0.575000000000000400,-4.286788376118860100
0.576000000000000401,-4.262051968367975618
0.577000000000000401,-4.237412910882403239
0.578000000000000402,-4.212869491470032202
0.579000000000000403,-4.188420057386572637
0.580000000000000404,-4.164063014206725200
0.581000000000000405,-4.139796824700161082
0.582000000000000406,-4.115620007712748496
0.583000000000000407,-4.091531137053605605
0.584000000000000408,-4.067528840388336064
0.585000000000000409,-4.043611798138970315
0.586000000000000409,-4.019778742390937687
0.587000000000000410,-3.996028455807572932
0.588000000000000411,-3.972359770552419178
0.589000000000000412,-3.948771567219783840
0.590000000000000413,-3.925262773773789071
0.591000000000000414,-3.901832364496345740
0.592000000000000415,-3.878479358944245892
0.593000000000000416,-3.855202820915718753
0.594000000000000417,-3.832001857426712288
0.595000000000000417,-3.808875617697162763
0.596000000000000418,-3.785823292147406871
0.597000000000000419,-3.762844111405121872
0.598000000000000420,-3.739937345322787543
0.599000000000000421,-3.717102302006068726
0.600000000000000422,-3.694338326853151777
0.601000000000000423,-3.671644801605256525
0.602000000000000424,-3.649021143408477830
0.603000000000000425,-3.626466803887085089
0.604000000000000425,-3.603981268228391599
0.605000000000000426,-3.581564054279347431
0.606000000000000427,-3.559214711654936192
0.607000000000000428,-3.536932820858434301
