# AuFCC100-Ablate75_HID-AC
# h[nm],U(h)[kJ/mol]
0.149999999999999994,147.815933478110849819
0.150999999999999995,141.729806898495752421
0.151999999999999996,137.053907575094854110
0.152999999999999997,132.825086235188990713
0.153999999999999998,128.661760597994515365
0.154999999999999999,124.463736914358420904
0.156000000000000000,120.248254124921203356
0.157000000000000001,116.066532060255141801
0.158000000000000002,111.966068461537545886
0.159000000000000002,107.977516733182071107
0.160000000000000003,104.113647566859341964
0.161000000000000004,100.373326683856575414
0.162000000000000005,96.746758352870614317
0.163000000000000006,93.220207043662938418
0.164000000000000007,89.779519438667904296
0.165000000000000008,86.412354804859631940
0.166000000000000009,83.109305672247231200
0.167000000000000010,79.864187431998431066
0.168000000000000010,76.673778199791556176
0.169000000000000011,73.537249129075675569
0.170000000000000012,70.455469056696117036
0.171000000000000013,67.430311358157922541
0.172000000000000014,64.464042531996284424
0.173000000000000015,61.558833955580851693
0.174000000000000016,58.716410505762482330
0.175000000000000017,55.937831091243445769
0.176000000000000018,53.223384879178105678
0.177000000000000018,50.572581339609335771
0.178000000000000019,47.984210569660774581
0.179000000000000020,45.456451351058575483
0.180000000000000021,42.987006981665942362
0.181000000000000022,40.573252313959827120
0.182000000000000023,38.212379071060851743
0.183000000000000024,35.901530021887047894
0.184000000000000025,33.637915754643998412
0.185000000000000026,31.418910473718305809
0.186000000000000026,29.242125417357271999
0.187000000000000027,27.105460162075068808
0.188000000000000028,25.007133286392537741
0.189000000000000029,22.945694670815594662
0.190000000000000030,20.920022179735319412
0.191000000000000031,18.929305671341285944
0.192000000000000032,16.973021276628450948
0.193000000000000033,15.050898734283080671
0.194000000000000034,13.162884312746204074
0.195000000000000034,11.309101533788737726
0.196000000000000035,9.489811565180964692
0.197000000000000036,7.705374797832908129
0.198000000000000037,5.956214783008477731
0.199000000000000038,4.242785390287078684
0.200000000000000039,2.565541764765833399
0.201000000000000040,0.924915416861616491
0.202000000000000041,-0.678706428498723868
0.203000000000000042,-2.244997265082025351
0.204000000000000042,-3.773703695342847109
0.205000000000000043,-5.264654051280474256
0.206000000000000044,-6.717763590589198586
0.207000000000000045,-8.133036657452741736
0.208000000000000046,-9.510566220755926281
0.209000000000000047,-10.850531208215770107
0.210000000000000048,-12.153192046533600745
0.211000000000000049,-13.418884798379753676
0.212000000000000050,-14.648014259731024111
0.213000000000000050,-15.841046348279842704
0.214000000000000051,-16.998500077461081048
0.215000000000000052,-18.120939372855144001
0.216000000000000053,-19.208964949759838703
0.217000000000000054,-20.263206433704841203
0.218000000000000055,-21.284314870469636105
0.219000000000000056,-22.272955739376246953
0.220000000000000057,-23.229802553692742606
0.221000000000000058,-24.155531105137960424
0.222000000000000058,-25.050814385856888578
0.223000000000000059,-25.916318200821514495
0.224000000000000060,-26.752697466334119270
0.225000000000000061,-27.560593176012975647
0.226000000000000062,-28.340630004125976882
0.227000000000000063,-29.093414507181751816
0.228000000000000064,-29.819533878035770158
0.229000000000000065,-30.519555202172774955
0.230000000000000066,-31.194025163019801994
0.231000000000000066,-31.843470141887173952
0.232000000000000067,-32.468396658179351277
0.233000000000000068,-33.069292096646954349
0.234000000000000069,-33.646625670454703538
0.235000000000000070,-34.200849571531414028
0.236000000000000071,-34.732400262877270336
0.237000000000000072,-35.241699871084456674
0.238000000000000073,-35.729157641145789626
0.239000000000000073,-36.195171419570989713
0.240000000000000074,-36.640129135811186245
0.241000000000000075,-37.064410255923149862
0.242000000000000076,-37.468387186225577068
0.243000000000000077,-37.852426608359984073
0.244000000000000078,-38.216890730625301842
0.245000000000000079,-38.562138443682300704
0.246000000000000080,-38.888526371699057904
0.247000000000000081,-39.196409812723118193
0.248000000000000081,-39.486143564509610826
0.249000000000000082,-39.758082634211191930
0.250000000000000111,-40.012582832248895670
0.251000000000000112,-40.250001252339643543
0.252000000000000113,-40.470696641071114641
0.253000000000000114,-40.675029661595587527
0.254000000000000115,-40.863363056983722288
0.255000000000000115,-41.036061719545664062
0.256000000000000116,-41.193492673013658134
0.257000000000000117,-41.336024974899302720
0.258000000000000118,-41.464029546609516785
0.259000000000000119,-41.577878939044396134
0.260000000000000120,-41.677947041423038854
0.261000000000000121,-41.764608741004103365
0.262000000000000122,-41.838239541204458760
0.263000000000000123,-41.899215145380722447
0.264000000000000123,-41.947911013241466094
0.265000000000000124,-41.984701896511047892
0.266000000000000125,-42.009961360081931048
0.267000000000000126,-42.024061294479203355
0.268000000000000127,-42.027371425028633212
0.269000000000000128,-42.020258822674300347
0.270000000000000129,-42.003087420941334074
0.271000000000000130,-41.976217543089781259
0.272000000000000131,-41.940005443060464074
0.273000000000000131,-41.894802863378963309
0.274000000000000132,-41.840956612762298050
0.275000000000000133,-41.778808165768097638
0.276000000000000134,-41.708693286438844439
0.277000000000000135,-41.630941677528213063
0.278000000000000136,-41.545876656552536588
0.279000000000000137,-41.453814859589094510
0.280000000000000138,-41.355065973444986582
0.281000000000000139,-41.249932496546747984
0.282000000000000139,-41.138709528649989977
0.283000000000000140,-41.021684589241758090
0.284000000000000141,-40.899137464303791489
0.285000000000000142,-40.771340080923195615
0.286000000000000143,-40.638556409076876719
0.287000000000000144,-40.501042389775079755
0.288000000000000145,-40.359045888630895149
0.289000000000000146,-40.212806673818455749
0.290000000000000147,-40.062556417299852285
0.291000000000000147,-39.908518718131126946
0.292000000000000148,-39.750909146605224009
0.293000000000000149,-39.589935307949964738
0.294000000000000150,-39.425796924272404453
0.295000000000000151,-39.258685933426392012
0.296000000000000152,-39.088786603474986237
0.297000000000000153,-38.916275661425224541
0.298000000000000154,-38.741322434925571372
0.299000000000000155,-38.564089005637853802
0.300000000000000155,-38.384730373022954097
0.301000000000000156,-38.203394627313016940
0.302000000000000157,-38.020223130480928830
0.303000000000000158,-37.835350704060488169
0.304000000000000159,-37.648905822716919545
0.305000000000000160,-37.461010812514835777
0.306000000000000161,-37.271782052882983294
0.307000000000000162,-37.081330181326563888
0.308000000000000163,-36.889760299991856130
0.309000000000000163,-36.697172183241917764
0.310000000000000164,-36.503660485456677520
0.311000000000000165,-36.309314948324654893
0.312000000000000166,-36.114220606948038039
0.313000000000000167,-35.918457994135067679
0.314000000000000168,-35.722103342306311902
0.315000000000000169,-35.525228782491865331
0.316000000000000170,-35.327902539946094862
0.317000000000000171,-35.130189125954096596
0.318000000000000171,-34.932149525450341798
0.319000000000000172,-34.733841380113801733
0.320000000000000173,-34.535319166646694100
0.321000000000000174,-34.336634369983869419
0.322000000000000175,-34.137835651218239263
0.323000000000000176,-33.938969010064163001
0.324000000000000177,-33.740077941714638143
0.325000000000000178,-33.541203587980199075
0.326000000000000179,-33.342384882627982279
0.327000000000000179,-33.143658690866885763
0.328000000000000180,-32.945059942951040455
0.329000000000000181,-32.746621761898566660
0.330000000000000182,-32.548375585343308103
0.331000000000000183,-32.350351281559625249
0.332000000000000184,-32.152577259717105562
0.333000000000000185,-31.955080574440227537
0.334000000000000186,-31.757887024762645467
0.335000000000000187,-31.561021247579503779
0.336000000000000187,-31.364506805713848081
0.337000000000000188,-31.168366270723019795
0.338000000000000189,-30.972621300581387516
0.339000000000000190,-30.777292712383076179
0.340000000000000191,-30.582400550215332657
0.341000000000000192,-30.387964148359792205
0.342000000000000193,-30.194002189982029449
0.343000000000000194,-30.000532761475131593
0.344000000000000195,-29.807573402624484515
0.345000000000000195,-29.615141152763833077
0.346000000000000196,-29.423252593092975360
0.347000000000000197,-29.231923885328559010
0.348000000000000198,-29.041170806858691122
0.349000000000000199,-28.851008782571028632
0.350000000000000200,-28.661452913523316255
0.351000000000000201,-28.472518002622372535
0.352000000000000202,-28.284218577475702006
0.353000000000000203,-28.096568910577055078
0.354000000000000203,-27.909583036983718785
0.355000000000000204,-27.723274769640106285
0.356000000000000205,-27.537657712498180729
0.357000000000000206,-27.352745271581511588
0.358000000000000207,-27.168550664135057815
0.359000000000000208,-26.985086925998729157
0.360000000000000209,-26.802366917338112273
0.361000000000000210,-26.620403326860930804
0.362000000000000210,-26.439208674643150943
0.363000000000000211,-26.258795313683940265
0.364000000000000212,-26.079175430303507710
0.365000000000000213,-25.900361043493337121
0.366000000000000214,-25.722364003323161086
0.367000000000000215,-25.545195988504364237
0.368000000000000216,-25.368868503204538456
0.369000000000000217,-25.193392873203301008
0.370000000000000218,-25.018780241474622983
0.371000000000000218,-24.845041563276438978
0.372000000000000219,-24.672187600823537679
0.373000000000000220,-24.500228917615697100
0.374000000000000221,-24.329175872488228549
0.375000000000000222,-24.159038613448078792
0.376000000000000223,-23.989827071354618226
0.377000000000000224,-23.821550953500000958
0.378000000000000225,-23.654219737140362412
0.379000000000000226,-23.487842663025080725
0.380000000000000226,-23.322428728968169764
0.381000000000000227,-23.157986683501690095
0.382000000000000228,-22.994525019648584419
0.383000000000000229,-22.832051968848375623
0.384000000000000230,-22.670575495066337623
0.385000000000000231,-22.510103289114177016
0.386000000000000232,-22.350642763206760577
0.387000000000000233,-22.192201045777320445
0.388000000000000234,-22.034784976570545467
0.389000000000000234,-21.878401102031272529
0.390000000000000235,-21.723055671002960310
0.391000000000000236,-21.568754630749516821
0.392000000000000237,-21.415503623310456760
0.393000000000000238,-21.263307982198707435
0.394000000000000239,-21.112172729447575392
0.395000000000000240,-20.962102573012366236
0.396000000000000241,-20.813101904530164177
0.397000000000000242,-20.665174797439835430
0.398000000000000242,-20.518325005463207589
0.399000000000000243,-20.372555961446572326
0.400000000000000244,-20.227870776560820332
0.401000000000000245,-20.084272239857494213
0.402000000000000246,-19.941762818176677285
0.403000000000000247,-19.800344656401726695
0.404000000000000248,-19.660019578055489831
0.405000000000000249,-19.520789086231285836
0.406000000000000250,-19.382654364851397588
0.407000000000000250,-19.245616280245364749
0.408000000000000251,-19.109675383039590457
0.409000000000000252,-18.974831910349383435
0.410000000000000253,-18.841085788263949752
0.411000000000000254,-18.708436634614731275
0.412000000000000255,-18.576883762016837665
0.413000000000000256,-18.446426181173329439
0.414000000000000257,-18.317062604431527006
0.415000000000000258,-18.188791449580811843
0.416000000000000258,-18.061610843880679056
0.417000000000000259,-17.935518628308095401
0.418000000000000260,-17.810512362013113830
0.419000000000000261,-17.686589326971311920
0.420000000000000262,-17.563746532822079871
0.421000000000000263,-17.441980721881627403
0.422000000000000264,-17.321288374319326664
0.423000000000000265,-17.201665713486622877
0.424000000000000266,-17.083108711387637868
0.425000000000000266,-16.965613094280357132
0.426000000000000267,-16.849174348398072709
0.427000000000000268,-16.733787725780423727
0.428000000000000269,-16.619448250203788575
0.429000000000000270,-16.506150723200928354
0.430000000000000271,-16.393889730159934004
0.431000000000000272,-16.282659646492884775
0.432000000000000273,-16.172454643864647039
0.433000000000000274,-16.063268696472825070
0.434000000000000274,-15.955095587369616084
0.435000000000000275,-15.847928914817160262
0.436000000000000276,-15.741762098667834380
0.437000000000000277,-15.636588386761207659
0.438000000000000278,-15.532400861329998421
0.439000000000000279,-15.429192445407270640
0.440000000000000280,-15.326955909227521602
0.441000000000000281,-15.225683876614613865
0.442000000000000282,-15.125368831349899068
0.443000000000000282,-15.026003123513723025
0.444000000000000283,-14.927578975794409288
0.445000000000000284,-14.830088489758608716
0.446000000000000285,-14.733523652077172628
0.447000000000000286,-14.637876340701609479
0.448000000000000287,-14.543138330985389217
0.449000000000000288,-14.449301301745711257
0.450000000000000289,-14.356356841260856427
0.451000000000000290,-14.264296453198806347
0.452000000000000290,-14.173111562473135194
0.453000000000000291,-14.082793521022150429
0.454000000000000292,-13.993333613507838109
0.455000000000000293,-13.904723062931111599
0.456000000000000294,-13.816953036160265711
0.457000000000000295,-13.730014649369795876
0.458000000000000296,-13.643898973386745510
0.459000000000000297,-13.558597038942247437
0.460000000000000298,-13.474099841825912804
0.461000000000000298,-13.390398347941030011
0.462000000000000299,-13.307483498258743992
0.463000000000000300,-13.225346213669467943
0.464000000000000301,-13.143977399730124134
0.465000000000000302,-13.063367951305911774
0.466000000000000303,-12.983508757105386877
0.467000000000000304,-12.904390704107967736
0.468000000000000305,-12.826004681883063085
0.469000000000000306,-12.748341586800133740
0.470000000000000306,-12.671392326129303996
0.471000000000000307,-12.595147822031949048
0.472000000000000308,-12.519599015441354339
0.473000000000000309,-12.444736869833068482
0.474000000000000310,-12.370552374885216196
0.475000000000000311,-12.297036550028764168
0.476000000000000312,-12.224180447888247869
0.477000000000000313,-12.151975157613065903
0.478000000000000314,-12.080411808100022242
0.479000000000000314,-12.009481571107780695
0.480000000000000315,-11.939175664263608212
0.481000000000000316,-11.869485353963611374
0.482000000000000317,-11.800401958166927940
0.483000000000000318,-11.731916849085083143
0.484000000000000319,-11.664021455767397129
0.485000000000000320,-11.596707266583605289
0.486000000000000321,-11.529965831604771509
0.487000000000000322,-11.463788764883743099
0.488000000000000322,-11.398167746636413966
0.489000000000000323,-11.333094525325124735
0.490000000000000324,-11.268560919645574714
0.491000000000000325,-11.204558820418665022
0.492000000000000326,-11.141080192388645997
0.493000000000000327,-11.078117075929254653
0.494000000000000328,-11.015661588659177994
0.495000000000000329,-10.953705926968531514
0.496000000000000330,-10.892242367457887653
0.497000000000000330,-10.831263268291507984
0.498000000000000331,-10.770761070466347675
0.499000000000000332,-10.710728298998621000
0.500000000000000333,-10.651157564029468006
0.501000000000000334,-10.592041561851470277
0.502000000000000335,-10.533373075857735301
0.503000000000000336,-10.475144977415256520
0.504000000000000337,-10.417350226664206403
0.505000000000000338,-10.359981873244947792
0.506000000000000338,-10.303033056954509661
0.507000000000000339,-10.246497008334134904
0.508000000000000340,-10.190367049189749338
0.509000000000000341,-10.134636593047053665
0.510000000000000342,-10.079299145542858440
0.511000000000000343,-10.024348304754500560
0.512000000000000344,-9.969777761468915145
0.513000000000000345,-9.915581299393194215
0.514000000000000346,-9.861752795308216690
0.515000000000000346,-9.808286219167005271
0.516000000000000347,-9.755175634139535035
0.517000000000000348,-9.702415196605667091
0.518000000000000349,-9.649999156097631925
0.519000000000000350,-9.597921855193925822
0.520000000000000351,-9.546177729366073450
0.521000000000000352,-9.494761306779828658
0.522000000000000353,-9.443667208052435313
0.523000000000000353,-9.392890145967363935
0.524000000000000354,-9.342424925148240078
0.525000000000000355,-9.292266441693225687
0.526000000000000356,-9.242409682771462798
0.527000000000000357,-9.192849726183046855
0.528000000000000358,-9.143581739883833492
0.529000000000000359,-9.094600981476611778
0.530000000000000360,-9.045902797669928219
0.531000000000000361,-8.997482623705989724
0.532000000000000361,-8.949335982758919172
0.533000000000000362,-8.901458485304676316
0.534000000000000363,-8.853845828464017131
0.535000000000000364,-8.806493795319562778
0.536000000000000365,-8.759398254208420553
0.537000000000000366,-8.712555157991410226
0.538000000000000367,-8.665960543300124996
0.539000000000000368,-8.619610529763056306
0.540000000000000369,-8.573501319211745297
0.541000000000000369,-8.527629194868252327
0.542000000000000370,-8.481990520514914422
0.543000000000000371,-8.436581739647440514
0.544000000000000372,-8.391399374612456441
0.545000000000000373,-8.346440025730426981
0.546000000000000374,-8.301700370404958562
0.547000000000000375,-8.257177162219436539
0.548000000000000376,-8.212867230021977605
0.549000000000000377,-8.168767476999519772
0.550000000000000377,-8.124874879741968314
0.551000000000000378,-8.081186487297282284
0.552000000000000379,-8.037699420218308077
0.553000000000000380,-7.994410869602188718
0.554000000000000381,-7.951318096123069168
0.555000000000000382,-7.908418429059042687
0.556000000000000383,-7.865709265313791221
0.557000000000000384,-7.823188068433958975
0.558000000000000385,-7.780852367622695276
0.559000000000000385,-7.738699756750234471
0.560000000000000386,-7.696727893362013795
0.561000000000000387,-7.654934497685071726
0.562000000000000388,-7.613317351633317465
0.563000000000000389,-7.571874297812189347
0.564000000000000390,-7.530603238523383425
0.565000000000000391,-7.489502134770138930
0.566000000000000392,-7.448569005263609988
0.567000000000000393,-7.407801925430890222
0.568000000000000393,-7.367199026425096164
0.569000000000000394,-7.326758494138061906
0.570000000000000395,-7.286478568216135265
0.571000000000000396,-7.246357541079326836
0.572000000000000397,-7.206393756944502904
0.573000000000000398,-7.166585610852800770
0.574000000000000399,-7.126931547701802927
0.575000000000000400,-7.087430061282738336
0.576000000000000401,-7.048079693323133554
0.577000000000000401,-7.008879032535263676
0.578000000000000402,-6.969826713670644658
0.579000000000000403,-6.930921416580976491
0.580000000000000404,-6.892161865285780564
0.581000000000000405,-6.853546827047017231
0.582000000000000406,-6.815075111450947354
0.583000000000000407,-6.776745569497522936
0.584000000000000408,-6.738557092697513795
0.585000000000000409,-6.700508612177610068
0.586000000000000409,-6.662599097793716396
0.587000000000000410,-6.624827557252643828
0.588000000000000411,-6.587193035242380645
0.589000000000000412,-6.549694612571158814
0.590000000000000413,-6.512331405315398669
0.591000000000000414,-6.475102563976788517
0.592000000000000415,-6.438007272648604840
0.593000000000000416,-6.401044748191372591
0.594000000000000417,-6.364214239418024555
0.595000000000000417,-6.327515026288762279
0.596000000000000418,-6.290946419115483579
0.597000000000000419,-6.254507757776202048
0.598000000000000420,-6.218198410939229426
0.599000000000000421,-6.182017775297456552
0.600000000000000422,-6.145965274812606793
0.601000000000000423,-6.110040359969685753
0.602000000000000424,-6.074242507041553552
0.603000000000000425,-6.038571217363767119
0.604000000000000425,-6.003026016619648964
0.605000000000000426,-5.967606454135676586
