# AuFCC100-Ablate75_GUAIACYL-AC
# h[nm],U(h)[kJ/mol]
0.149999999999999994,96.124689202094629081
0.150999999999999995,91.000603898505943334
0.151999999999999996,87.234442189367428000
0.152999999999999997,83.766359565589013414
0.153999999999999998,80.224287519356082043
0.154999999999999999,76.554588110915318566
0.156000000000000000,72.823737583916766880
0.157000000000000001,69.120507837947599228
0.158000000000000002,65.514675087237648654
0.159000000000000002,62.045531716166578917
0.160000000000000003,58.724498620416042627
0.161000000000000004,55.543039342495411859
0.162000000000000005,52.481292665893398919
0.163000000000000006,49.515326934034384010
0.164000000000000007,46.622315757835970373
0.165000000000000008,43.783660660336536807
0.166000000000000009,40.986413397442717610
0.167000000000000010,38.223452029869228852
0.168000000000000010,35.492847629306027102
0.169000000000000011,32.796787335118906981
0.170000000000000012,30.140331435487702549
0.171000000000000013,27.530197087127408651
0.172000000000000014,24.973688553511344423
0.173000000000000015,22.477836620350238661
0.174000000000000016,20.048767942729284641
0.175000000000000017,17.691296627249414541
0.176000000000000018,15.408712849457984362
0.177000000000000018,13.202734185514197307
0.178000000000000019,11.073582271116539033
0.179000000000000020,9.020148434202642562
0.180000000000000021,7.040215525815486153
0.181000000000000022,5.130708118342099056
0.182000000000000023,3.287948702808870305
0.183000000000000024,1.507902917674841081
0.184000000000000025,-0.213598186507685861
0.185000000000000026,-1.880666505874093897
0.186000000000000026,-3.497199914633044582
0.187000000000000027,-5.066761144486826574
0.188000000000000028,-6.592491508214232354
0.189000000000000029,-8.077056905734746550
0.190000000000000030,-9.522622526322987113
0.191000000000000031,-10.930852076324985234
0.192000000000000032,-12.302927127714916367
0.193000000000000033,-13.639582216418713045
0.194000000000000034,-14.941151547619227813
0.195000000000000034,-16.207623526209726350
0.196000000000000035,-17.438699773019983752
0.197000000000000036,-18.633855770551342346
0.198000000000000037,-19.792400774180915590
0.199000000000000038,-20.913535102733096238
0.200000000000000039,-21.996403369477370404
0.201000000000000040,-23.040142620214293601
0.202000000000000041,-24.043924702952949701
0.203000000000000042,-25.006992501145916208
0.204000000000000042,-25.928689919618683746
0.205000000000000043,-26.808485721256737122
0.206000000000000044,-27.645991476601182057
0.207000000000000045,-28.440974011999053062
0.208000000000000046,-29.193362829575562500
0.209000000000000047,-29.903253028909926314
0.210000000000000048,-30.570904290710114282
0.211000000000000049,-31.196736491570682404
0.212000000000000050,-31.781322510306704743
0.213000000000000050,-32.325378764222456596
0.214000000000000051,-32.829753981405858099
0.215000000000000052,-33.295416675696813513
0.216000000000000053,-33.723441746886372528
0.217000000000000054,-34.114996582078035203
0.218000000000000055,-34.471326986710003837
0.219000000000000056,-34.793743226882966724
0.220000000000000057,-35.083606419436598856
0.221000000000000058,-35.342315463469482495
0.222000000000000058,-35.571294667280241697
0.223000000000000059,-35.771982188390090585
0.224000000000000060,-35.945819371605047365
0.225000000000000061,-36.094241041068336528
0.226000000000000062,-36.218666776908314375
0.227000000000000063,-36.320493185299042693
0.228000000000000064,-36.401087152342945785
0.229000000000000065,-36.461780056943830175
0.230000000000000066,-36.503862905514253612
0.231000000000000066,-36.528582341691816282
0.232000000000000067,-36.537137476951215831
0.233000000000000068,-36.530677482821779734
0.234000000000000069,-36.510299882087757339
0.235000000000000070,-36.477049474608918445
0.236000000000000071,-36.431917833010324159
0.237000000000000072,-36.375843304232958531
0.238000000000000073,-36.309711454605306358
0.239000000000000073,-36.234355898505874904
0.240000000000000074,-36.150559453673423604
0.241000000000000075,-36.059055569637664007
0.242000000000000076,-35.960529979459167293
0.243000000000000077,-35.855622528875095156
0.244000000000000078,-35.744929140948691781
0.245000000000000079,-35.629003878336696687
0.246000000000000080,-35.508361069254860354
0.247000000000000081,-35.383477467080915346
0.248000000000000081,-35.254794417246060334
0.249000000000000082,-35.122720008595720742
0.250000000000000111,-34.987631189724559988
0.251000000000000112,-34.849875833891374555
0.252000000000000113,-34.709774738987135834
0.253000000000000114,-34.567623551657682412
0.254000000000000115,-34.423694607072093277
0.255000000000000115,-34.278238677980901628
0.256000000000000116,-34.131486628631215297
0.257000000000000117,-33.983650970808511715
0.258000000000000118,-33.834927320765473269
0.259000000000000119,-33.685495757091139524
0.260000000000000120,-33.535522080680429724
0.261000000000000121,-33.385158978897528925
0.262000000000000122,-33.234547096802245392
0.263000000000000123,-33.083816018938328796
0.264000000000000123,-32.933085165681291073
0.265000000000000124,-32.782464608523312677
0.266000000000000125,-32.632055808947811215
0.267000000000000126,-32.481952285726627849
0.268000000000000127,-32.332240215572880970
0.269000000000000128,-32.182998972109693625
0.270000000000000129,-32.034301608082373036
0.271000000000000130,-31.886215285656419383
0.272000000000000131,-31.738801659515377906
0.273000000000000131,-31.592117217308810950
0.274000000000000132,-31.446213581807864301
0.275000000000000133,-31.301137778911652276
0.276000000000000134,-31.156932475416120099
0.277000000000000135,-31.013636190214526778
0.278000000000000136,-30.871283482348246707
0.279000000000000137,-30.729905119073940511
0.280000000000000138,-30.589528226859307836
0.281000000000000139,-30.450176427969203985
0.282000000000000139,-30.311869965058672705
0.283000000000000140,-30.174625815951166885
0.284000000000000141,-30.038457800550595778
0.285000000000000142,-29.903376681616812505
0.286000000000000143,-29.769390260925383984
0.287000000000000144,-29.636503472135906634
0.288000000000000145,-29.504718471509043809
0.289000000000000146,-29.374034727440196946
0.290000000000000147,-29.244449109618653182
0.291000000000000147,-29.115955978474573840
0.292000000000000148,-28.988547275441909790
0.293000000000000149,-28.862212614443329528
0.294000000000000150,-28.736939374893307075
0.295000000000000151,-28.612712796416577277
0.296000000000000152,-28.489516075391360772
0.297000000000000153,-28.367330463349691883
0.298000000000000154,-28.246135367198711208
0.299000000000000155,-28.125908451169408409
0.300000000000000155,-28.006625740348624731
0.301000000000000156,-27.888261725608977315
0.302000000000000157,-27.770789469716550713
0.303000000000000158,-27.654180714369186234
0.304000000000000159,-27.538405987896471316
0.305000000000000160,-27.423434713337265123
0.306000000000000161,-27.309235316599966836
0.307000000000000162,-27.195775334405066559
0.308000000000000163,-27.083021521707593138
0.309000000000000163,-26.970939958299233297
0.310000000000000164,-26.859496154294703274
0.311000000000000165,-26.748655154215235541
0.312000000000000166,-26.638381639391855771
0.313000000000000167,-26.528640028423858155
0.314000000000000168,-26.419394575441419448
0.315000000000000169,-26.310609465936941831
0.316000000000000170,-26.202248909945939914
0.317000000000000171,-26.094277232375553410
0.318000000000000171,-25.986658960296544763
0.319000000000000172,-25.879358907032848691
0.320000000000000173,-25.772342252901086823
0.321000000000000174,-25.665574622470785471
0.322000000000000175,-25.559022158234142807
0.323000000000000176,-25.452651590592441977
0.324000000000000177,-25.346430304083312990
0.325000000000000178,-25.240326399790454559
0.326000000000000179,-25.134308753893673583
0.327000000000000179,-25.028347072332991274
0.328000000000000180,-24.922411941575717265
0.329000000000000181,-24.816474875489706875
0.330000000000000182,-24.710508358339545509
0.331000000000000183,-24.604485883935261370
0.332000000000000184,-24.498381990975051536
0.333000000000000185,-24.392172294634544727
0.334000000000000186,-24.285833514465462457
0.335000000000000187,-24.179343498675727631
0.336000000000000187,-24.072681244872065065
0.337000000000000188,-23.965826917353219017
0.338000000000000189,-23.858761861049572417
0.339000000000000190,-23.751468612210707931
0.340000000000000191,-23.643930905947510013
0.341000000000000192,-23.536133680741368579
0.342000000000000193,-23.428063080035158805
0.343000000000000194,-23.319706451025755456
0.344000000000000195,-23.211052340779168901
0.345000000000000195,-23.102090489792402650
0.346000000000000196,-22.992811823126963588
0.347000000000000197,-22.883208439240213750
0.348000000000000198,-22.773273596641185890
0.349000000000000199,-22.663001698497321712
0.350000000000000200,-22.552388275318300259
0.351000000000000201,-22.441429965842040417
0.352000000000000202,-22.330124496246831711
0.353000000000000203,-22.218470657812055435
0.354000000000000203,-22.106468283147751919
0.355000000000000204,-21.994118221111346401
0.356000000000000205,-21.881422310527387509
0.357000000000000206,-21.768383352823299504
0.358000000000000207,-21.655005083691435175
0.359000000000000208,-21.541292143884536614
0.360000000000000209,-21.427250049248744546
0.361000000000000210,-21.312885160094502623
0.362000000000000210,-21.198204650002772098
0.363000000000000211,-21.083216474159975462
0.364000000000000212,-20.967929337311879578
0.365000000000000213,-20.852352661422582258
0.366000000000000214,-20.736496553121309461
0.367000000000000215,-20.620371771015967965
0.368000000000000216,-20.503989692948568546
0.369000000000000217,-20.387362283264010898
0.370000000000000218,-20.270502060159948599
0.371000000000000218,-20.153422063181842816
0.372000000000000219,-20.036135820923476558
0.373000000000000220,-19.918657318989964722
0.374000000000000221,-19.801000968276433412
0.375000000000000222,-19.683181573612081650
0.376000000000000223,-19.565214302816279712
0.377000000000000224,-19.447114656209659955
0.378000000000000225,-19.328898436619923018
0.379000000000000226,-19.210581719919300525
0.380000000000000226,-19.092180826127183479
0.381000000000000227,-18.973712291108405736
0.382000000000000228,-18.855192838895334262
0.383000000000000229,-18.736639354658350953
0.384000000000000230,-18.618068858347289307
0.385000000000000231,-18.499498479023515074
0.386000000000000232,-18.380945429899931298
0.387000000000000233,-18.262426984103633743
0.388000000000000234,-18.143960451174070414
0.389000000000000234,-18.025563154307040037
0.390000000000000235,-17.907252408352814399
0.391000000000000236,-17.789045498574960646
0.392000000000000237,-17.670959660174268890
0.393000000000000238,-17.553012058580641508
0.394000000000000239,-17.435219770513928239
0.395000000000000240,-17.317599765813298518
0.396000000000000241,-17.200168890033165070
0.397000000000000242,-17.082943847802152249
0.398000000000000242,-16.965941186940622032
0.399000000000000243,-16.849177283330647015
0.400000000000000244,-16.732668326531360492
0.401000000000000245,-16.616430306131803718
0.402000000000000246,-16.500478998831859201
0.403000000000000247,-16.384829956241333093
0.404000000000000248,-16.269498493386496563
0.405000000000000249,-16.154499677912259159
0.406000000000000250,-16.039848319967745738
0.407000000000000250,-15.925558962762391246
0.408000000000000251,-15.811645873778866545
0.409000000000000252,-15.698123036629056060
0.410000000000000253,-15.585004143538366606
0.411000000000000254,-15.472302588443707094
0.412000000000000255,-15.360031460689736349
0.413000000000000256,-15.248203539308113008
0.414000000000000257,-15.136831287863705242
0.415000000000000258,-15.025926849852044853
0.416000000000000258,-14.915502044631821832
0.417000000000000259,-14.805568363876165705
0.418000000000000260,-14.696136968526463562
0.419000000000000261,-14.587218686232285236
0.420000000000000262,-14.478824009261126449
0.421000000000000263,-14.370963092861597232
0.422000000000000264,-14.263645754063745130
0.423000000000000265,-14.156881470900263054
0.424000000000000266,-14.050679382032601694
0.425000000000000266,-13.945048286765887369
0.426000000000000267,-13.839996645436787759
0.427000000000000268,-13.735532580158800187
0.428000000000000269,-13.631663875909373118
0.429000000000000270,-13.528397981943646400
0.430000000000000271,-13.425742013519760931
0.431000000000000272,-13.323702753920930064
0.432000000000000273,-13.222286656759749235
0.433000000000000274,-13.121499848550428169
0.434000000000000274,-13.021348131534944415
0.435000000000000275,-12.921836986749365650
0.436000000000000276,-12.822971577317014535
0.437000000000000277,-12.724756751955121459
0.438000000000000278,-12.627197048682335279
0.439000000000000279,-12.530296698714527892
0.440000000000000280,-12.434059630536554053
0.441000000000000281,-12.338489474138228275
0.442000000000000282,-12.243589565402931640
0.443000000000000282,-12.149362950637463854
0.444000000000000283,-12.055812391232407776
0.445000000000000284,-11.962940368442307459
0.446000000000000285,-11.870749088275315941
0.447000000000000286,-11.779240486482596140
0.448000000000000287,-11.688416233637529018
0.449000000000000288,-11.598277740295758420
0.450000000000000289,-11.508826162226798218
0.451000000000000290,-11.420062405708701903
0.452000000000000290,-11.331987132877403113
0.453000000000000291,-11.244600767122623353
0.454000000000000292,-11.157903498522708574
0.455000000000000293,-11.071895289310795363
0.456000000000000294,-10.986575879365355846
0.457000000000000295,-10.901944791718099381
0.458000000000000296,-10.818001338072770423
0.459000000000000297,-10.734744624328538265
0.460000000000000298,-10.652173556101946161
0.461000000000000298,-10.570286844241687518
0.462000000000000299,-10.489083010330858770
0.463000000000000300,-10.408560392171242626
0.464000000000000301,-10.328717149244964091
0.465000000000000302,-10.249551268148566763
0.466000000000000303,-10.171060567995240831
0.467000000000000304,-10.093242705780806290
0.468000000000000305,-10.016095181709637529
0.469000000000000306,-9.939615344476621317
0.470000000000000306,-9.863800396501716250
0.471000000000000307,-9.788647399113614256
0.472000000000000308,-9.714153277679653087
0.473000000000000309,-9.640314826678704208
0.474000000000000310,-9.567128714714606019
0.475000000000000311,-9.494591489467378409
0.476000000000000312,-9.422699582580086997
0.477000000000000313,-9.351449314478859520
0.478000000000000314,-9.280836899124343731
0.479000000000000314,-9.210858448692590628
0.480000000000000315,-9.141509978183659513
0.481000000000000316,-9.072787409956523774
0.482000000000000317,-9.004686578188781709
0.483000000000000318,-8.937203233259932489
0.484000000000000319,-8.870333046057160331
0.485000000000000320,-8.804071612202632124
0.486000000000000321,-8.738414456201402558
0.487000000000000322,-8.673357035509260626
0.488000000000000322,-8.608894744519830056
0.489000000000000323,-8.545022918470525752
0.490000000000000324,-8.481736837266858231
0.491000000000000325,-8.419031729224863980
0.492000000000000326,-8.356902774731398864
0.493000000000000327,-8.295345109822287455
0.494000000000000328,-8.234353829678179082
0.495000000000000329,-8.173923992038329089
0.496000000000000330,-8.114050620532312408
0.497000000000000330,-8.054728707929987408
0.498000000000000331,-7.995953219309977378
0.499000000000000332,-7.937719095147024007
0.500000000000000333,-7.880021254318661406
0.501000000000000334,-7.822854597031688506
0.502000000000000335,-7.766214007669001163
0.503000000000000336,-7.710094357557380818
0.504000000000000337,-7.654490507656896980
0.505000000000000338,-7.599397311172625180
0.506000000000000338,-7.544809616089430904
0.507000000000000339,-7.490722267630609110
0.508000000000000340,-7.437130110641190228
0.509000000000000341,-7.384027991896845222
0.510000000000000342,-7.331410762339181986
0.511000000000000343,-7.279273279238476668
0.512000000000000344,-7.227610408284704135
0.513000000000000345,-7.176417025607906730
0.514000000000000346,-7.125688019728945832
0.515000000000000346,-7.075418293441551043
0.516000000000000347,-7.025602765626824286
0.517000000000000348,-6.976236373001301949
0.518000000000000349,-6.927314071799456130
0.519000000000000350,-6.878830839391996577
0.520000000000000351,-6.830781675840921885
0.521000000000000352,-6.783161605392464821
0.522000000000000353,-6.735965677909128146
0.523000000000000353,-6.689188970241820797
0.524000000000000354,-6.642826587543441796
0.525000000000000355,-6.596873664524823155
0.526000000000000356,-6.551325366654363158
0.527000000000000357,-6.506176891302454024
0.528000000000000358,-6.461423468831779537
0.529000000000000359,-6.417060363634772280
0.530000000000000360,-6.373082875119255419
0.531000000000000361,-6.329486338643520504
0.532000000000000361,-6.286266126401896415
0.533000000000000362,-6.243417648262010289
0.534000000000000363,-6.200936352554879960
0.535000000000000364,-6.158817726818880622
0.536000000000000365,-6.117057298498833617
0.537000000000000366,-6.075650635601226313
0.538000000000000367,-6.034593347306695499
0.539000000000000368,-5.993881084540927162
0.540000000000000369,-5.953509540504934527
0.541000000000000369,-5.913474451165926737
0.542000000000000370,-5.873771595709730065
0.543000000000000371,-5.834396796955837239
0.544000000000000372,-5.795345921736177353
0.545000000000000373,-5.756614881238537151
0.546000000000000374,-5.718199631315743048
0.547000000000000375,-5.680096172761500917
0.548000000000000376,-5.642300551554026988
0.549000000000000377,-5.604808859068281635
0.550000000000000377,-5.567617232257857651
0.551000000000000378,-5.530721853807457400
0.552000000000000379,-5.494118952256887844
0.553000000000000380,-5.457804802097451002
0.554000000000000381,-5.421775723841672168
0.555000000000000382,-5.386028084067272736
0.556000000000000383,-5.350558295436135481
0.557000000000000384,-5.315362816689313874
0.558000000000000385,-5.280438152618724068
0.559000000000000385,-5.245780854016482309
0.560000000000000386,-5.211387517602627639
0.561000000000000387,-5.177254785932054126
0.562000000000000388,-5.143379347281420877
0.563000000000000389,-5.109757935516778815
0.564000000000000390,-5.076387329942699367
0.565000000000000391,-5.043264355133620924
0.566000000000000392,-5.010385880748101428
0.567000000000000393,-4.977748821326743567
0.568000000000000393,-4.945350136074389447
0.569000000000000394,-4.913186828627320146
0.570000000000000395,-4.881255946806122736
0.571000000000000396,-4.849554582354772769
0.572000000000000397,-4.818079870666702291
0.573000000000000398,-4.786828990498301906
0.574000000000000399,-4.755799163670610064
0.575000000000000400,-4.724987654759639000
0.576000000000000401,-4.694391770775970585
0.577000000000000401,-4.664008860834198522
0.578000000000000402,-4.633836315812679629
0.579000000000000403,-4.603871568004167081
0.580000000000000404,-4.574112090757859406
0.581000000000000405,-4.544555398113310218
0.582000000000000406,-4.515199044426700503
0.583000000000000407,-4.486040623989972609
0.584000000000000408,-4.457077770643243397
0.585000000000000409,-4.428308157380978827
0.586000000000000409,-4.399729495952323433
0.587000000000000410,-4.371339536456052777
0.588000000000000411,-4.343136066930509465
0.589000000000000412,-4.315116912938956162
0.590000000000000413,-4.287279937150697329
0.591000000000000414,-4.259623038918386229
0.592000000000000415,-4.232144153851832513
0.593000000000000416,-4.204841253388679867
0.594000000000000417,-4.177712344362295660
0.595000000000000417,-4.150755468567234985
0.596000000000000418,-4.123968702322478919
0.597000000000000419,-4.097350156032940838
0.598000000000000420,-4.070897973749332266
0.599000000000000421,-4.044610332726857216
0.600000000000000422,-4.018485442982880684
0.601000000000000423,-3.992521546853917691
0.602000000000000424,-3.966716918552164906
0.603000000000000425,-3.941069863721825328
0.604000000000000425,-3.915578718995479157
0.605000000000000426,-3.890241851550739760
0.606000000000000427,-3.865057658667398588
