# AuFCC100-Ablate75_FORMONITRILE-AC
# h[nm],U(h)[kJ/mol]
0.149999999999999994,125.508117422987510281
0.150999999999999995,126.136529725405580393
0.151999999999999996,123.184204377288480714
0.152999999999999997,119.458075512239673799
0.153999999999999998,116.032018010563405142
0.154999999999999999,113.143134759861297312
0.156000000000000000,110.684919315336486534
0.157000000000000001,108.459651961272442122
0.158000000000000002,106.292467091804240908
0.159000000000000002,104.070249400555326247
0.160000000000000003,101.743142333768503249
0.161000000000000004,99.310356304351017798
0.162000000000000005,96.801986337363672419
0.163000000000000006,94.262548623519620605
0.164000000000000007,91.738486329122721941
0.165000000000000008,89.270023396556069883
0.166000000000000009,86.886836429339339816
0.167000000000000010,84.606666742139481130
0.168000000000000010,82.435953446355412666
0.169000000000000011,80.371678276167784816
0.170000000000000012,78.403781745241943213
0.171000000000000013,76.517686842685989745
0.172000000000000014,74.696624811729520843
0.173000000000000015,72.923586795034552210
0.174000000000000016,71.182823155889096256
0.175000000000000017,69.460881551913956855
0.176000000000000018,67.747219863753500135
0.177000000000000018,66.034455963544047563
0.178000000000000019,64.318327915372918824
0.179000000000000020,62.597439776755059881
0.180000000000000021,60.872863192061387849
0.181000000000000022,59.147656141652973361
0.182000000000000023,57.426349543638401940
0.183000000000000024,55.714441317676161702
0.184000000000000025,54.017926954252516225
0.185000000000000026,52.342886161029085201
0.186000000000000026,50.695137077637021150
0.187000000000000027,49.079962962778523661
0.188000000000000028,47.501911130637260783
0.189000000000000029,45.964660131293847201
0.190000000000000030,44.470948568684171676
0.191000000000000031,43.022557345510300308
0.192000000000000032,41.620336330994021523
0.193000000000000033,40.264266287790285048
0.194000000000000034,38.953547209118752903
0.195000000000000034,37.686704867342797343
0.196000000000000035,36.461708243977241750
0.197000000000000036,35.276091503165474705
0.198000000000000037,34.127075210853334397
0.199000000000000038,33.011682532998648298
0.200000000000000039,31.926847126557909462
0.201000000000000040,30.869510338172695185
0.202000000000000041,29.836706129670936605
0.203000000000000042,28.825632847514903290
0.204000000000000042,27.833711542606589973
0.205000000000000043,26.858631029806851132
0.206000000000000044,25.898380259066165365
0.207000000000000045,24.951268860513629022
0.208000000000000046,24.015936933930596808
0.209000000000000047,23.091355289163978171
0.210000000000000048,22.176817418741570975
0.211000000000000049,21.271924507474160748
0.212000000000000050,20.376564765801933987
0.213000000000000050,19.490888322922611309
0.214000000000000051,18.615278840269944283
0.215000000000000052,17.750322912690773336
0.216000000000000053,16.896778219731011461
0.217000000000000054,16.055541277887904528
0.218000000000000055,15.227615530747163675
0.219000000000000056,14.414080401018011912
0.220000000000000057,13.616061819295634194
0.221000000000000058,12.834704640971329681
0.222000000000000058,12.071147266548472032
0.223000000000000059,11.326498692719404460
0.224000000000000060,10.601818142501254982
0.225000000000000061,9.898097352782277980
0.226000000000000062,9.216245536781881853
0.227000000000000063,8.557076986950399089
0.228000000000000064,7.921301240341350081
0.229000000000000065,7.309515692963612921
0.230000000000000066,6.722200521474346324
0.231000000000000066,6.159715749151472686
0.232000000000000067,5.622300277717236838
0.233000000000000068,5.110072696585522323
0.234000000000000069,4.623033675807699971
0.235000000000000070,4.161069747744232217
0.236000000000000071,3.723958284678155817
0.237000000000000072,3.311373484634908770
0.238000000000000073,2.922893185050312148
0.239000000000000073,2.558006333150578904
0.240000000000000074,2.216120952535397759
0.241000000000000075,1.896572457102734033
0.242000000000000076,1.598632175775839270
0.243000000000000077,1.321515964193344050
0.244000000000000078,1.064392792345815186
0.245000000000000079,0.826393209871769230
0.246000000000000080,0.606617603182040832
0.247000000000000081,0.404144170617793119
0.248000000000000081,0.218036553347968287
0.249000000000000082,0.047351070586942032
0.250000000000000111,-0.108856482104046165
0.251000000000000112,-0.251524503221258022
0.252000000000000113,-0.381579747536165192
0.253000000000000114,-0.499931995325963441
0.254000000000000115,-0.607469236684480718
0.255000000000000115,-0.705053372608945628
0.256000000000000116,-0.793516428928588313
0.257000000000000117,-0.873657274223079705
0.258000000000000118,-0.946238828639845098
0.259000000000000119,-1.011985746921536311
0.260000000000000120,-1.071582555957174776
0.261000000000000121,-1.125672224729584725
0.262000000000000122,-1.174855142605126357
0.263000000000000123,-1.219688480454011570
0.264000000000000123,-1.260685908058577276
0.265000000000000124,-1.298317640618490421
0.266000000000000125,-1.333010786856693830
0.267000000000000126,-1.365149971226138792
0.268000000000000127,-1.395078202979479043
0.269000000000000128,-1.423097965354583216
0.270000000000000129,-1.449472498815998822
0.271000000000000130,-1.474427253144563910
0.272000000000000131,-1.498151484156077906
0.273000000000000131,-1.520799971928585403
0.274000000000000132,-1.542494838603181595
0.275000000000000133,-1.563327445072809629
0.276000000000000134,-1.583360347168261129
0.277000000000000135,-1.602629293273240663
0.278000000000000136,-1.621145246634954518
0.279000000000000137,-1.638896416970151204
0.280000000000000138,-1.655850287287045308
0.281000000000000139,-1.671955623140576774
0.282000000000000139,-1.687144452803861494
0.283000000000000140,-1.701334008064894210
0.284000000000000141,-1.714428616538647532
0.285000000000000142,-1.726321537516119609
0.286000000000000143,-1.736896734449570490
0.287000000000000144,-1.746030578194317728
0.288000000000000145,-1.753593476090838932
0.289000000000000146,-1.759451422873854254
0.290000000000000147,-1.763467470238894830
0.291000000000000147,-1.765503112679786657
0.292000000000000148,-1.765419587934652146
0.293000000000000149,-1.763079091043196156
0.294000000000000150,-1.758345901626173546
0.295000000000000151,-1.751087424550858529
0.296000000000000152,-1.741175144645080053
0.297000000000000153,-1.728485496570323132
0.298000000000000154,-1.712900651362382787
0.299000000000000155,-1.694309221499832763
0.300000000000000155,-1.672606886667583392
0.301000000000000156,-1.647696942647982166
0.302000000000000157,-1.619490775997983523
0.303000000000000158,-1.587908267359941394
0.304000000000000159,-1.552878126408698156
0.305000000000000160,-1.514338161560402130
0.306000000000000161,-1.472235487662786779
0.307000000000000162,-1.426526674953200180
0.308000000000000163,-1.377177842612853365
0.309000000000000163,-1.324164700265758388
0.310000000000000164,-1.267472540769996714
0.311000000000000165,-1.207096187630095852
0.312000000000000166,-1.143039900324156033
0.313000000000000167,-1.075317240789357642
0.314000000000000168,-1.003950904246830422
0.315000000000000169,-0.928972517472951509
0.316000000000000170,-0.850422407540590064
0.317000000000000171,-0.768349343961745590
0.318000000000000171,-0.682810257064258574
0.319000000000000172,-0.593869935330513465
0.320000000000000173,-0.501600704316944479
0.321000000000000174,-0.406082089659981382
0.322000000000000175,-0.307400466558868102
0.323000000000000176,-0.205648698008294412
0.324000000000000177,-0.100925763935501747
0.325000000000000178,0.006663616722046117
0.326000000000000179,0.117009369080430178
0.327000000000000179,0.229996448713934404
0.328000000000000180,0.345505229716029594
0.329000000000000181,0.463411892845417062
0.330000000000000182,0.583588812298612925
0.331000000000000183,0.705904939758524086
0.332000000000000184,0.830226184475410856
0.333000000000000185,0.956415788239191267
0.334000000000000186,1.084334694201771310
0.335000000000000187,1.213841908604230913
0.336000000000000187,1.344794854555968922
0.337000000000000188,1.477049717101697857
0.338000000000000189,1.610461778896808527
0.339000000000000190,1.744885745892649664
0.340000000000000191,1.880176062510316992
0.341000000000000192,2.016187215854285064
0.342000000000000193,2.152774028587018051
0.343000000000000194,2.289791940150279537
0.344000000000000195,2.427097276081113808
0.345000000000000195,2.564547505227679380
0.346000000000000196,2.702001484724589009
0.347000000000000197,2.839319692637864101
0.348000000000000198,2.976364448236526794
0.349000000000000199,3.113000119891804918
0.350000000000000200,3.249093320644967697
0.351000000000000201,3.384513091522455053
0.352000000000000202,3.519131072710751873
0.353000000000000203,3.652821662734923258
0.354000000000000203,3.785462165813255897
0.355000000000000204,3.916932927585955238
0.356000000000000205,4.047117459439204978
0.357000000000000206,4.175902551666700546
0.358000000000000207,4.303178375729027394
0.359000000000000208,4.428838575887607654
0.360000000000000209,4.552780350504036733
0.361000000000000210,4.674904523307822579
0.362000000000000210,4.795115604945856091
0.363000000000000211,4.913321845135511623
0.364000000000000212,5.029435275750238965
0.365000000000000213,5.143371745171955389
0.366000000000000214,5.255050944248469413
0.367000000000000215,5.364396424196907986
0.368000000000000216,5.471335606795526552
0.369000000000000217,5.575799787206553226
0.370000000000000218,5.677724129772013129
0.371000000000000218,5.777047657122735380
0.372000000000000219,5.873713232938082562
0.373000000000000220,5.967667538690666795
0.374000000000000221,6.058861044705916576
0.375000000000000222,6.147247975861840352
0.376000000000000223,6.232786272248647563
0.377000000000000224,6.315437545102101424
0.378000000000000225,6.395167028317947810
0.379000000000000226,6.471943525847921208
0.380000000000000226,6.545739355270690396
0.381000000000000227,6.616530287823406020
0.382000000000000228,6.684295485171894313
0.383000000000000229,6.749017433189266058
0.384000000000000230,6.810681873004742037
0.385000000000000231,6.869277729575911096
0.386000000000000232,6.924797038029202767
0.387000000000000233,6.977234868004916102
0.388000000000000234,7.026589246234337338
0.389000000000000234,7.072861077567923260
0.390000000000000235,7.116054064665021883
0.391000000000000236,7.156174626546691009
0.392000000000000237,7.193231816205016393
0.393000000000000238,7.227237237453505436
0.394000000000000239,7.258204961194946847
0.395000000000000240,7.286151441274813401
0.396000000000000241,7.311095430080046143
0.397000000000000242,7.333057894035102109
0.398000000000000242,7.352061929139290797
0.399000000000000243,7.368132676681547366
0.400000000000000244,7.381297239261561671
0.401000000000000245,7.391584597238288090
0.402000000000000246,7.399025525720219321
0.403000000000000247,7.403652512204397240
0.404000000000000248,7.405499674964465484
0.405000000000000249,7.404602682281415937
0.406000000000000250,7.400998672604286455
0.407000000000000250,7.394726175721747730
0.408000000000000251,7.385825035019618845
0.409000000000000252,7.374336330893403790
0.410000000000000253,7.360302305379431864
0.411000000000000254,7.343766288062672842
0.412000000000000255,7.324772623314186326
0.413000000000000256,7.303366598906029239
0.414000000000000257,7.279594376046783388
0.415000000000000258,7.253502920876085724
0.416000000000000258,7.225139937452306427
0.417000000000000259,7.194553802263089715
0.418000000000000260,7.161793500284619363
0.419000000000000261,7.126908562611499853
0.420000000000000262,7.089949005675498128
0.421000000000000263,7.050965272067900358
0.422000000000000264,7.010008172976962548
0.423000000000000265,6.967128832248723036
0.424000000000000266,6.922378632076404692
0.425000000000000266,6.875809160321011859
0.426000000000000267,6.827472159462854684
0.427000000000000268,6.777419477181259921
0.428000000000000269,6.725703018557498858
0.429000000000000270,6.672374699893579120
0.430000000000000271,6.617486404137464362
0.431000000000000272,6.561089937903520131
0.432000000000000273,6.503236990074898749
0.433000000000000274,6.443979091973157658
0.434000000000000274,6.383367579078488063
0.435000000000000275,6.321453554282896903
0.436000000000000276,6.258287852656962968
0.437000000000000277,6.193921007709706217
0.438000000000000278,6.128403219120029277
0.439000000000000279,6.061784321917050633
0.440000000000000280,5.994113757085671068
0.441000000000000281,5.925440543573079921
0.442000000000000282,5.855813251670807240
0.443000000000000282,5.785279977746618840
0.444000000000000283,5.713888320299567170
0.445000000000000284,5.641685357311305715
0.446000000000000285,5.568717624866130755
0.447000000000000286,5.495031097011866095
0.448000000000000287,5.420671166833381349
0.449000000000000288,5.345682628710340722
0.450000000000000289,5.270109661730387529
0.451000000000000290,5.193995814229064756
0.452000000000000290,5.117383989427485957
0.453000000000000291,5.040316432138766345
0.454000000000000292,4.962834716514292310
0.455000000000000293,4.884979734800815265
0.456000000000000294,4.806791687079577713
0.457000000000000295,4.728310071958700789
0.458000000000000296,4.649573678190203729
0.459000000000000297,4.570620577183362343
0.460000000000000298,4.491488116386038065
0.461000000000000298,4.412212913506282419
0.462000000000000299,4.332830851546310313
0.463000000000000300,4.253377074621634613
0.464000000000000301,4.173885984538214799
0.465000000000000302,4.094391238101069419
0.466000000000000303,4.014925745127738033
0.467000000000000304,3.935521667140930102
0.468000000000000305,3.856210416714572542
0.469000000000000306,3.777022657448168452
0.470000000000000306,3.697988304544762350
0.471000000000000307,3.619136525968118523
0.472000000000000308,3.540495744155326641
0.473000000000000309,3.462093638261326767
0.474000000000000310,3.383957146912572433
0.475000000000000311,3.306112471447025136
0.476000000000000312,3.228585079618940590
0.477000000000000313,3.151399709746356415
0.478000000000000314,3.074580375280682620
0.479000000000000314,2.998150369777545343
0.480000000000000315,2.922132272248892271
0.481000000000000316,2.846547952876719467
0.482000000000000317,2.771418579069322874
0.483000000000000318,2.696764621841392540
0.484000000000000319,2.622605862499827634
0.485000000000000320,2.548961399617594825
0.486000000000000321,2.475849656278398037
0.487000000000000322,2.403288387575494234
0.488000000000000322,2.331294688348334088
0.489000000000000323,2.259885001141366700
0.490000000000000324,2.189075124369542102
0.491000000000000325,2.118880220675797066
0.492000000000000326,2.049314825466020729
0.493000000000000327,1.980392855607630676
0.494000000000000328,1.912127618278190111
0.495000000000000329,1.844531819951026774
0.496000000000000330,1.777617575505231473
0.497000000000000330,1.711396417447763607
0.498000000000000331,1.645879305235911527
0.499000000000000332,1.581076634688784344
0.500000000000000333,1.516998247476686323
0.501000000000000334,1.453653440677947328
0.502000000000000335,1.391050976392935956
0.503000000000000336,1.329199091405494748
0.504000000000000337,1.268105506882263533
0.505000000000000338,1.207777438100937628
0.506000000000000338,1.148221604198672363
0.507000000000000339,1.089444237932255977
0.508000000000000340,1.031451095442102783
0.509000000000000341,0.974247466012330698
0.510000000000000342,0.917838181819586096
0.511000000000000343,0.862227627663557761
0.512000000000000344,0.807419750672489611
0.513000000000000345,0.753418069977283444
0.514000000000000346,0.700225686347976883
0.515000000000000346,0.647845291786916633
0.516000000000000347,0.596279179072946253
0.517000000000000348,0.545529251251403169
0.518000000000000349,0.495597031064870130
0.519000000000000350,0.446483670320004300
0.520000000000000351,0.398189959185852316
0.521000000000000352,0.350716335419467284
0.522000000000000353,0.304062893514824961
0.523000000000000353,0.258229393771154059
0.524000000000000354,0.213215271277274188
0.525000000000000355,0.169019644808439867
0.526000000000000356,0.125641325632703194
0.527000000000000357,0.083078826223773924
0.528000000000000358,0.041330368877616694
0.529000000000000359,0.000393894230408004
0.530000000000000360,-0.039732930324705859
0.531000000000000361,-0.079052702324082083
0.532000000000000361,-0.117568276025386151
0.533000000000000362,-0.155282754306476339
0.534000000000000363,-0.192199480673127643
0.535000000000000364,-0.228322031377094781
0.536000000000000365,-0.263654207645856342
0.537000000000000366,-0.298200028025318420
0.538000000000000367,-0.331963720836533860
0.539000000000000368,-0.364949716747438146
0.540000000000000369,-0.397162641460385879
0.541000000000000369,-0.428607308516246011
0.542000000000000370,-0.459288712215591421
0.543000000000000371,-0.489212020657522728
0.544000000000000372,-0.518382568896448515
0.545000000000000373,-0.546805852217096433
0.546000000000000374,-0.574487519527950408
0.547000000000000375,-0.601433366873124653
0.548000000000000376,-0.627649331062724913
0.549000000000000377,-0.653141483421508129
0.550000000000000377,-0.677916023655738109
0.551000000000000378,-0.701979273837862072
0.552000000000000379,-0.725337672508761133
0.553000000000000380,-0.747997768897079363
0.554000000000000381,-0.769966217255170671
0.555000000000000382,-0.791249771311138494
0.556000000000000383,-0.811855278836278393
0.557000000000000384,-0.831789676327334027
0.558000000000000385,-0.851059983802765374
0.559000000000000385,-0.869673299712300563
0.560000000000000386,-0.887636795958892888
0.561000000000000387,-0.904957713032247035
0.562000000000000388,-0.921643355252937391
0.563000000000000389,-0.937701086126237149
0.564000000000000390,-0.953138323804540222
0.565000000000000391,-0.967962536657447137
0.566000000000000392,-0.982181238948372504
0.567000000000000393,-0.995801986616588031
0.568000000000000393,-1.008832373163563556
0.569000000000000394,-1.021280025642453682
0.570000000000000395,-1.033152600749541739
0.571000000000000396,-1.044457781016383979
0.572000000000000397,-1.055203271101514684
0.573000000000000398,-1.065396794180374584
0.574000000000000399,-1.075046088432227265
0.575000000000000400,-1.084158903622786552
0.576000000000000401,-1.092742997781233960
0.577000000000000401,-1.100806133970344547
0.578000000000000402,-1.108356077148364704
0.579000000000000403,-1.115400591121322726
0.580000000000000404,-1.121947435584452313
0.581000000000000405,-1.128004363251335462
0.582000000000000406,-1.133579117069472009
0.583000000000000407,-1.138679427520829623
0.584000000000000408,-1.143313010006140829
0.585000000000000409,-1.147487562311442222
0.586000000000000409,-1.151210762155593814
0.587000000000000410,-1.154490264817395140
0.588000000000000411,-1.157333700840873503
0.589000000000000412,-1.159748673817492026
0.590000000000000413,-1.161742758243808904
0.591000000000000414,-1.163323497453299549
0.592000000000000415,-1.164498401621002710
0.593000000000000416,-1.165274945839576137
0.594000000000000417,-1.165660568265492802
0.595000000000000417,-1.165662668334031427
0.596000000000000418,-1.165288605041685299
0.597000000000000419,-1.164545695294776584
0.598000000000000420,-1.163441212322841700
0.599000000000000421,-1.161982384155609394
0.600000000000000422,-1.160176392162198589
0.601000000000000423,-1.158030369651292801
0.602000000000000424,-1.155551400531017459
0.603000000000000425,-1.152746518027298883
0.604000000000000425,-1.149622703459362905
0.605000000000000426,-1.146186885071257544
0.606000000000000427,-1.142445936918113691
0.607000000000000428,-1.138406677805914757
0.608000000000000429,-1.134075870283672405
0.609000000000000430,-1.129460219686690081
0.610000000000000431,-1.124566373229902716
0.611000000000000432,-1.119400919149986739
0.612000000000000433,-1.113970385895203918
0.613000000000000433,-1.108281241361815272
0.614000000000000434,-1.102339892175951075
0.615000000000000435,-1.096152683019808505
0.616000000000000436,-1.089725896001173755
0.617000000000000437,-1.083065750065125954
