# AuFCC100-Ablate75_ISOQUINOLINE-AC
# h[nm],U(h)[kJ/mol]
0.149999999999999994,111.343804946756932850
0.150999999999999995,105.386948717327499025
0.151999999999999996,101.085727285987360347
0.152999999999999997,97.166625073907127330
0.153999999999999998,93.183058201603301995
0.154999999999999999,89.067907196647098544
0.156000000000000000,84.895338358566078796
0.157000000000000001,80.764682996111076818
0.158000000000000002,76.752338668406537181
0.159000000000000002,72.899094535001353279
0.160000000000000003,69.213899040908884785
0.161000000000000004,65.683557668302739785
0.162000000000000005,62.282976347414987117
0.163000000000000006,58.983559354068880509
0.164000000000000007,55.759027819071128818
0.165000000000000008,52.588768165740972904
0.166000000000000009,49.459184550843382056
0.167000000000000010,46.363627450438826827
0.168000000000000010,43.301432109880309440
0.169000000000000011,40.276503006346544566
0.170000000000000012,37.295767438804354299
0.171000000000000013,34.367715626590928935
0.172000000000000014,31.501156427116001169
0.173000000000000015,28.704249892039513270
0.174000000000000016,25.983829408239706993
0.175000000000000017,23.344994335571794153
0.176000000000000018,20.790935470376041394
0.177000000000000018,18.322947004406163529
0.178000000000000019,15.940576976887589566
0.179000000000000020,13.641871116476130155
0.180000000000000021,11.423670557608039289
0.181000000000000022,9.281930797070151229
0.182000000000000023,7.212036450602856696
0.183000000000000024,5.209093228823116206
0.184000000000000025,3.268184687117146492
0.185000000000000026,1.384586516345088558
0.186000000000000026,-0.446064634064253673
0.187000000000000027,-2.227647545789014139
0.188000000000000028,-3.963475395433819326
0.189000000000000029,-5.656253036930939615
0.190000000000000030,-7.308067371786679978
0.191000000000000031,-8.920405117835414899
0.192000000000000032,-10.494192227778203375
0.193000000000000033,-12.029849443705234791
0.194000000000000034,-13.527358912774555932
0.195000000000000034,-14.986337357219806421
0.196000000000000035,-16.406111928516921239
0.197000000000000036,-17.785795533948007829
0.198000000000000037,-19.124359068916962912
0.199000000000000038,-20.420698595293181654
0.200000000000000039,-21.673696058297387879
0.201000000000000040,-22.882272622300501297
0.202000000000000041,-24.045434124998120495
0.203000000000000042,-25.162308499398498896
0.204000000000000042,-26.232175296503935868
0.205000000000000043,-27.254487663073327042
0.206000000000000044,-28.228887294319878976
0.207000000000000045,-29.155212997402649933
0.208000000000000046,-30.033503574957091331
0.209000000000000047,-30.863995775431590118
0.210000000000000048,-31.647118065090729999
0.211000000000000049,-32.383480961167926182
0.212000000000000050,-33.073864632181582124
0.213000000000000050,-33.719204424618041571
0.214000000000000051,-34.320574919149876791
0.215000000000000052,-34.879173057785493484
0.216000000000000053,-35.396300818731610605
0.217000000000000054,-35.873347850648514168
0.218000000000000055,-36.311774414243785714
0.219000000000000056,-36.713094918205264605
0.220000000000000057,-37.078862279364045662
0.221000000000000058,-37.410653284411715447
0.222000000000000058,-37.710055082929208936
0.223000000000000059,-37.978652899126565501
0.224000000000000060,-38.218019012591426531
0.225000000000000061,-38.429703026392481036
0.226000000000000062,-38.615223413872811875
0.227000000000000063,-38.776060313105560340
0.228000000000000064,-38.913649519926423181
0.229000000000000065,-39.029377616323586153
0.230000000000000066,-39.124578160358431944
0.231000000000000066,-39.200528856309219350
0.232000000000000067,-39.258449618979717854
0.233000000000000068,-39.299501443714689231
0.234000000000000069,-39.324785993257350469
0.235000000000000070,-39.335345813831345652
0.236000000000000071,-39.332165095428884172
0.237000000000000072,-39.316170894955895676
0.238000000000000073,-39.288234745376144019
0.239000000000000073,-39.249174579088162318
0.240000000000000074,-39.199756899270887800
0.241000000000000075,-39.140699138678357372
0.242000000000000076,-39.072672151210113611
0.243000000000000077,-38.996302787415139335
0.244000000000000078,-38.912176510806077090
0.245000000000000079,-38.820840017387133969
0.246000000000000080,-38.722803826075605116
0.247000000000000081,-38.618544812675807520
0.248000000000000081,-38.508508664710760172
0.249000000000000082,-38.393112238712930662
0.250000000000000111,-38.272745805505998362
0.251000000000000112,-38.147775172571392943
0.252000000000000113,-38.018543675791264036
0.253000000000000114,-37.885374035697324757
0.254000000000000115,-37.748570075850977901
0.255000000000000115,-37.608418303145057848
0.256000000000000116,-37.465189351673785723
0.257000000000000117,-37.319139293382860956
0.258000000000000118,-37.170510820009042163
0.259000000000000119,-37.019534301869519766
0.260000000000000120,-36.866428729887971372
0.261000000000000121,-36.711402547868296153
0.262000000000000122,-36.554654382471134966
0.263000000000000123,-36.396373678630880022
0.264000000000000123,-36.236741248294251250
0.265000000000000124,-36.075929740382029820
0.266000000000000125,-35.914104039792597689
0.267000000000000126,-35.751421603093049839
0.268000000000000127,-35.588032738300000801
0.269000000000000128,-35.424080835845579429
0.270000000000000129,-35.259702557473168838
0.271000000000000130,-35.095027989417772574
0.272000000000000131,-34.930180765811925880
0.273000000000000131,-34.765278167824689604
0.274000000000000132,-34.600431203599342211
0.275000000000000133,-34.435744673610351185
0.276000000000000134,-34.271317225616535040
0.277000000000000135,-34.107241402953121678
0.278000000000000136,-33.943603689481001595
0.279000000000000137,-33.780484554103658468
0.280000000000000138,-33.617958497371112969
0.281000000000000139,-33.456094102319269723
0.282000000000000139,-33.294954091343946345
0.283000000000000140,-33.134595390581793595
0.284000000000000141,-32.975069202966594162
0.285000000000000142,-32.816421090849743791
0.286000000000000143,-32.658691068817432779
0.287000000000000144,-32.501913707103611273
0.288000000000000145,-32.346118245788908041
0.289000000000000146,-32.191328719787094315
0.290000000000000147,-32.037564094455298402
0.291000000000000147,-31.884838411518217072
0.292000000000000148,-31.733160944871439568
0.293000000000000149,-31.582536365720621063
0.294000000000000150,-31.432964916424101176
0.295000000000000151,-31.284442592332432298
0.296000000000000152,-31.136961330859350028
0.297000000000000153,-30.990509206974117262
0.298000000000000154,-30.845070634272758525
0.299000000000000155,-30.700626570764825374
0.300000000000000155,-30.557154728502570862
0.301000000000000156,-30.414629786177794557
0.302000000000000157,-30.273023603819702032
0.303000000000000158,-30.132305438741401105
0.304000000000000159,-29.992442161904136810
0.305000000000000160,-29.853398473894934284
0.306000000000000161,-29.715137119744866823
0.307000000000000162,-29.577619101850537220
0.308000000000000163,-29.440803890299964252
0.309000000000000163,-29.304649629945515699
0.310000000000000164,-29.169113343609542000
0.311000000000000165,-29.034151130853114608
0.312000000000000166,-28.899718361784028531
0.313000000000000167,-28.765769865426211283
0.314000000000000168,-28.632260112218780534
0.315000000000000169,-28.499143390259177977
0.316000000000000170,-28.366373974949954828
0.317000000000000171,-28.233906291753196882
0.318000000000000171,-28.101695071800055103
0.319000000000000172,-27.969695500144883482
0.320000000000000173,-27.837863356493691924
0.321000000000000174,-27.706155148276128131
0.322000000000000175,-27.574528235966489831
0.323000000000000176,-27.442940950595442473
0.324000000000000177,-27.311352703426745592
0.325000000000000178,-27.179724087804977728
0.326000000000000179,-27.048016973209747960
0.327000000000000179,-26.916194591578960882
0.328000000000000180,-26.784221615989121545
0.329000000000000181,-26.652064231804434513
0.330000000000000182,-26.519690200426879301
0.331000000000000183,-26.387068915800107050
0.332000000000000184,-26.254171453836438133
0.333000000000000185,-26.120970614952646827
0.334000000000000186,-25.987440959914057004
0.335000000000000187,-25.853558839198143460
0.336000000000000187,-25.719302416100457975
0.337000000000000188,-25.584651683813493861
0.338000000000000189,-25.449588476717607932
0.339000000000000190,-25.314096476128714386
0.340000000000000191,-25.178161210752037391
0.341000000000000192,-25.041770052095522203
0.342000000000000193,-24.904912205097616607
0.343000000000000194,-24.767578694226465075
0.344000000000000195,-24.629762345306851046
0.345000000000000195,-24.491457763331037967
0.346000000000000196,-24.352661306507620509
0.347000000000000197,-24.213371056800120584
0.348000000000000198,-24.073586787204014570
0.349000000000000199,-23.933309926006540280
0.350000000000000200,-23.792543518269830827
0.351000000000000201,-23.651292184772085392
0.352000000000000202,-23.509562078636669469
0.353000000000000203,-23.367360839872521439
0.354000000000000203,-23.224697548043515383
0.355000000000000204,-23.081582673277015516
0.356000000000000205,-22.938028025815768274
0.357000000000000206,-22.794046704309639750
0.358000000000000207,-22.649653043036284572
0.359000000000000208,-22.504862558232954228
0.360000000000000209,-22.359691893713403488
0.361000000000000210,-22.214158765936694806
0.362000000000000210,-22.068281908686753212
0.363000000000000211,-21.922081017513978196
0.364000000000000212,-21.775576694082563023
0.365000000000000213,-21.628790390559430534
0.366000000000000214,-21.481744354173240907
0.367000000000000215,-21.334461572064462587
0.368000000000000216,-21.186965716540193228
0.369000000000000217,-21.039281090839953237
0.370000000000000218,-20.891432575512077108
0.371000000000000218,-20.743445575492724942
0.372000000000000219,-20.595345967973461399
0.373000000000000220,-20.447160051136258119
0.374000000000000221,-20.298914493828657868
0.375000000000000222,-20.150636286245504181
0.376000000000000223,-20.002352691677632635
0.377000000000000224,-19.854091199382235544
0.378000000000000225,-19.705879478623899104
0.379000000000000226,-19.557745333929815956
0.380000000000000226,-19.409716661598000798
0.381000000000000227,-19.261821407491531488
0.382000000000000228,-19.114087526148104246
0.383000000000000229,-18.966542941228755836
0.384000000000000230,-18.819215507325782966
0.385000000000000231,-18.672132973145856738
0.386000000000000232,-18.525322946079942454
0.387000000000000233,-18.378812858168483757
0.388000000000000234,-18.232629933466377281
0.389000000000000234,-18.086801156809439561
0.390000000000000235,-17.941353243980319832
0.391000000000000236,-17.796312613269638092
0.392000000000000237,-17.651705358424717218
0.393000000000000238,-17.507557222976352307
0.394000000000000239,-17.363893575931083291
0.395000000000000240,-17.220739388814696014
0.396000000000000241,-17.078119214050516916
0.397000000000000242,-16.936057164653917084
0.398000000000000242,-16.794576895223215729
0.399000000000000243,-16.653701584205101938
0.400000000000000244,-16.513453917411474947
0.401000000000000245,-16.373856072763455671
0.402000000000000246,-16.234929706236869151
0.403000000000000247,-16.096695938982442442
0.404000000000000248,-15.959175345593383355
0.405000000000000249,-15.822387943491893481
0.406000000000000250,-15.686353183405444156
0.407000000000000250,-15.551089940903242592
0.408000000000000251,-15.416616508962627918
0.409000000000000252,-15.282950591534907758
0.410000000000000253,-15.150109298079581066
0.411000000000000254,-15.018109139035928479
0.412000000000000255,-14.886966022200528670
0.413000000000000256,-14.756695249979461693
0.414000000000000257,-14.627311517483553516
0.415000000000000258,-14.498828911435513334
0.416000000000000258,-14.371260909857578980
0.417000000000000259,-14.244620382508548673
0.418000000000000260,-14.118919592039432587
0.419000000000000261,-13.994170195836957760
0.420000000000000262,-13.870383248524717601
0.421000000000000263,-13.747569205092039724
0.422000000000000264,-13.625737924620889174
0.423000000000000265,-13.504898674581705009
0.424000000000000266,-13.385060135669636594
0.425000000000000266,-13.266230407152761472
0.426000000000000267,-13.148417012704758378
0.427000000000000268,-13.031626906694814494
0.428000000000000269,-12.915866480908217540
0.429000000000000270,-12.801141571671617925
0.430000000000000271,-12.687457467357511121
0.431000000000000272,-12.574818916243119205
0.432000000000000273,-12.463230134699536222
0.433000000000000274,-12.352694815687494057
0.434000000000000274,-12.243216137536816035
0.435000000000000275,-12.134796772987305857
0.436000000000000276,-12.027438898469405615
0.437000000000000277,-11.921144203603535772
0.438000000000000278,-11.815913900897880850
0.439000000000000279,-11.711748735624885498
0.440000000000000280,-11.608648995857320685
0.441000000000000281,-11.506614522645588039
0.442000000000000282,-11.405644720318516505
0.443000000000000282,-11.305738566890429553
0.444000000000000283,-11.206894624558056961
0.445000000000000284,-11.109111050271454957
0.446000000000000285,-11.012385606363491064
0.447000000000000286,-10.916715671223606421
0.448000000000000287,-10.822098250001385367
0.449000000000000288,-10.728529985326918705
0.450000000000000289,-10.636007168034774750
0.451000000000000290,-10.544525747879472277
0.452000000000000290,-10.454081344230717221
0.453000000000000291,-10.364669256737158776
0.454000000000000292,-10.276284475948186170
0.455000000000000293,-10.188921693883491670
0.456000000000000294,-10.102575314541002882
0.457000000000000295,-10.017239464334009469
0.458000000000000296,-9.932908002448927576
0.459000000000000297,-9.849574531115674603
0.460000000000000298,-9.767232405782916516
0.461000000000000298,-9.685874745191140889
0.462000000000000299,-9.605494441336784206
0.463000000000000300,-9.526084169321080708
0.464000000000000301,-9.447636397077806336
0.465000000000000302,-9.370143394974530082
0.466000000000000303,-9.293597245282125385
0.467000000000000304,-9.217989851507956800
0.468000000000000305,-9.143312947588464468
0.469000000000000306,-9.069558106937051889
0.470000000000000306,-8.996716751343805996
0.471000000000000307,-8.924780159723551876
0.472000000000000308,-8.853739476709558076
0.473000000000000309,-8.783585721089922416
0.474000000000000310,-8.714309794084496019
0.475000000000000311,-8.645902487460134012
0.476000000000000312,-8.578354491482613753
0.477000000000000313,-8.511656402703435376
0.478000000000000314,-8.445798731580453023
0.479000000000000314,-8.380771909931192809
0.480000000000000315,-8.316566298217932030
0.481000000000000316,-8.253172192664171902
0.482000000000000317,-8.190579832201880350
0.483000000000000318,-8.128779405249463963
0.484000000000000319,-8.067761056320399859
0.485000000000000320,-8.007514892462790357
0.486000000000000321,-7.948030989530114887
0.487000000000000322,-7.889299398283744935
0.488000000000000322,-7.831310150327906783
0.489000000000000323,-7.774053263877898523
0.490000000000000324,-7.717518749362575647
0.491000000000000325,-7.661696614862170129
0.492000000000000326,-7.606576871382623395
0.493000000000000327,-7.552149537967871140
0.494000000000000328,-7.498404646651474437
0.495000000000000329,-7.445332247249152324
0.496000000000000330,-7.392922411993867016
0.497000000000000330,-7.341165240015214977
0.498000000000000331,-7.290050861664942872
0.499000000000000332,-7.239569442690485523
0.500000000000000333,-7.189711188258482544
0.501000000000000334,-7.140466346830343980
0.502000000000000335,-7.091825213891929991
0.503000000000000336,-7.043778135539551677
0.504000000000000337,-6.996315511924398045
0.505000000000000338,-6.949427800557775647
0.506000000000000338,-6.903105519479311170
0.507000000000000339,-6.857339250290552357
0.508000000000000340,-6.812119641056268549
0.509000000000000341,-6.767437409075856003
0.510000000000000342,-6.723283343527275413
0.511000000000000343,-6.679648307985901923
0.512000000000000344,-6.636523242820802082
0.513000000000000345,-6.593899167470850031
0.514000000000000346,-6.551767182603204454
0.515000000000000346,-6.510118472156571912
0.516000000000000347,-6.468944305271743467
0.517000000000000348,-6.428236038112014050
0.518000000000000349,-6.387985115575727235
0.519000000000000350,-6.348183072903683666
0.520000000000000351,-6.308821537183723294
0.521000000000000352,-6.269892228755002961
0.522000000000000353,-6.231386962514427807
0.523000000000000353,-6.193297649127636362
0.524000000000000354,-6.155616296147075062
0.525000000000000355,-6.118335009039421735
0.526000000000000356,-6.081445992124878686
0.527000000000000357,-6.044941549430665972
0.528000000000000358,-6.008814085461047227
0.529000000000000359,-5.973056105886232814
0.530000000000000360,-5.937660218152523761
0.531000000000000361,-5.902619132015869852
0.532000000000000361,-5.867925660001183097
0.533000000000000362,-5.833572717789627049
0.534000000000000363,-5.799553324536049992
0.535000000000000364,-5.765860603118746930
0.536000000000000365,-5.732487780323713977
0.537000000000000366,-5.699428186965497467
0.538000000000000367,-5.666675257946681477
0.539000000000000368,-5.634222532258151617
0.540000000000000369,-5.602063652922023351
0.541000000000000369,-5.570192366879378909
0.542000000000000370,-5.538602524824617568
0.543000000000000371,-5.507288080988409718
0.544000000000000372,-5.476243092871171392
0.545000000000000373,-5.445461720928811644
0.546000000000000374,-5.414938228212664129
0.547000000000000375,-5.384666979965315292
0.548000000000000376,-5.354642443174156163
0.549000000000000377,-5.324859186084287543
0.550000000000000377,-5.295311877672482126
0.551000000000000378,-5.265995287083891085
0.552000000000000379,-5.236904283033058327
0.553000000000000380,-5.208033833170818028
0.554000000000000381,-5.179379003418636884
0.555000000000000382,-5.150934957271926962
0.556000000000000383,-5.122696955073702263
0.557000000000000384,-5.094660353260174190
0.558000000000000385,-5.066820603579525795
0.559000000000000385,-5.039173252285381821
0.560000000000000386,-5.011713939306181587
0.561000000000000387,-4.984438397391871334
0.562000000000000388,-4.957342451239126646
0.563000000000000389,-4.930422016596329726
0.564000000000000390,-4.903673099349575182
0.565000000000000391,-4.877091794590816320
0.566000000000000392,-4.850674285669331454
0.567000000000000393,-4.824416843227626650
0.568000000000000393,-4.798315824222817660
0.569000000000000394,-4.772367670934585249
0.570000000000000395,-4.746568909960749316
0.571000000000000396,-4.720916151201348221
0.572000000000000397,-4.695406086832334402
0.573000000000000398,-4.670035490269699885
0.574000000000000399,-4.644801215125016647
0.575000000000000400,-4.619700194153235628
0.576000000000000401,-4.594729438193593474
0.577000000000000401,-4.569886035104500088
0.578000000000000402,-4.545167148693151304
0.579000000000000403,-4.520570017640661575
0.580000000000000404,-4.496091954423485859
0.581000000000000405,-4.471730344231846566
0.582000000000000406,-4.447482643885808606
0.583000000000000407,-4.423346380749790363
0.584000000000000408,-4.399319151646058579
0.585000000000000409,-4.375398621767894625
0.586000000000000409,-4.351582523593003238
0.587000000000000410,-4.327868655797804109
0.588000000000000411,-4.304254882173088603
0.589000000000000412,-4.280739130541649118
0.590000000000000413,-4.257319391678383802
0.591000000000000414,-4.233993718233357129
0.592000000000000415,-4.210760223658323476
0.593000000000000416,-4.187617081137152475
0.594000000000000417,-4.164562522520620647
0.595000000000000417,-4.141594837265989426
0.596000000000000418,-4.118712371381723969
0.597000000000000419,-4.095913526377851888
0.598000000000000420,-4.073196758222195513
0.599000000000000421,-4.050560576302955518
0.600000000000000422,-4.028003542397887493
0.601000000000000423,-4.005524269650462266
0.602000000000000424,-3.983121421553262653
0.603000000000000425,-3.960793710938956824
0.604000000000000425,-3.938539898979064979
0.605000000000000426,-3.916358794190847981
0.606000000000000427,-3.894249251452521321
